0
22.09
24.6
25.74
25.8
24.92
23.19
20.86
18.32
16.07
14.5
13.74
13.56
13.56
13.34
12.67
11.54
10.08
8.48
6.81
5.02
3.03
0.71
-2.04
-5.3
-9.13
-13.67
-19.06
-25.25
-31.84
-37.96
-42.34
-43.74
-41.33
-35.12
-25.95
-15.25
-4.55
4.97
12.7
18.58
22.84
25.77
27.61
28.49
28.47
27.7
26.37
24.79
23.26
22.04
21.21
20.64
20.07
19.21
17.85
15.93
13.55
10.85
7.95
4.91
1.74
-1.55
-4.96
-8.52
-12.29
-16.47
-21.24
-26.65
-32.45
-37.94
-42.12
-43.9
-42.46
-37.53
-29.53
-19.51
-8.87
1.03
9.2
15.22
19.19
21.56
22.84
23.47
23.67
23.5
22.96
22.14
21.17
20.22
19.39
18.69
18.04
17.41
16.84
16.39
16.05
15.66
14.91
13.46
11.13
8.04
4.52
1.0
-2.24
-5.18
-8.1
-11.44
-15.69
-21.12
-27.62
-34.6
-40.95
-45.29
-46.37
-43.5
-36.86
-27.5
-16.93
-6.71
2.05
8.83
13.67
16.85
18.7
19.53
19.56
19.06
18.36
17.76
17.48
17.54
17.81
18.06
18.14
17.98
17.64
17.23
16.74
16.07
14.95
13.15
10.55
7.26
3.53
-0.32
-4.09
-7.71
-11.32
-15.2
-19.62
-24.7
-30.23
-35.55
-39.63
-41.34
-39.83
-34.87
-27.05
-17.56
-7.86
0.84
7.81
12.91
16.32
18.3
19.01
18.52
16.93
14.54
11.82
9.31
7.49
6.62
6.69
7.48
8.66
9.91
10.96
11.57
11.58
10.87
9.42
7.33
4.79
2.01
-0.88
-3.94
-7.38
-11.5
-16.5
-22.28
-28.35
-33.79
-37.51
-38.53
-36.32
-31.0
-23.28
-14.29
-5.18
3.09
10.01
15.37
19.12
21.24
21.73
20.67
18.4
15.47
12.57
10.29
8.91
8.37
8.32
8.35
8.18
7.69
6.9
5.88
4.68
3.33
1.87
0.36
-1.23
-3.02
-5.27
-8.3
-12.33
-17.32
-22.84
-28.1
-32.12
-33.95
-32.98
-29.1
-22.76
-14.85
-6.47
1.4
8.11
13.38
17.19
19.67
20.89
20.91
19.76
17.67
15.02
12.37
10.27
9.05
8.7
8.91
9.17
9.04
8.25
6.81
4.92
2.86
0.8
-1.24
-3.41
-5.88
-8.83
-12.4
-16.69
-21.69
-27.2
-32.67
-37.12
-39.41
-38.57
-34.22
-26.83
-17.53
-7.79
1.11
8.41
13.89
17.68
20.02
21.08
20.93
19.7
17.6
15.06
12.57
10.6
9.44
9.06
9.15
9.26
8.97
8.1
6.75
5.25
3.91
2.91
2.09
1.06
-0.67
-3.54
-7.77
-13.32
-19.92
-26.97
-33.58
-38.69
-41.24
-40.43
-36.09
-28.72
-19.41
-9.5
-0.2
7.73
14.01
18.74
22.11
24.23
25.08
24.64
23.01
20.58
17.92
15.66
14.2
13.59
13.51
13.47
12.99
11.83
10.04
7.82
5.37
2.8
0.08
-2.85
-5.99
-9.3
-12.76
-16.42
-20.43
-24.96
-30.02
-35.29
-40.07
-43.34
-44.06
-41.47
-35.4
-26.4
-15.58
-4.41
5.78
14.09
20.15
24.13
26.48
27.67
28.06
27.92
27.42
26.73
26.03
25.48
25.11
24.81
24.41
23.74
22.75
21.48
20.03
18.39
16.42
13.96
10.89
7.3
3.47
-0.26
-3.7
-6.86
-10.02
-13.56
-17.85
-23.08
-29.12
-35.45
-41.12
-44.94
-45.77
-42.95
-36.55
-27.43
-16.99
-6.64
2.53
9.97
15.58
19.49
21.9
23.01
23.06
22.43
21.57
20.89
20.58
20.61
20.74
20.69
20.27
19.49
18.47
17.39
16.35
15.28
13.98
12.22
9.88
7.0
3.78
0.48
-2.73
-5.8
-8.83
-11.98
-15.45
-19.43
-23.99
-28.99
-33.93
-37.95
-40.01
-39.17
-35.02
-27.86
-18.64
-8.65
0.84
8.89
15.01
19.08
21.27
21.9
21.36
20.01
18.23
16.32
14.58
13.28
12.65
12.84
13.79
15.21
16.69
17.77
18.13
17.62
16.21
13.94
10.88
7.11
2.86
-1.58
-5.9
-9.86
-13.43
-16.82
-20.4
-24.49
-29.15
-34.03
-38.29
-40.88
-40.76
-37.38
-30.84
-21.9
-11.77
-1.76
7.07
14.1
19.15
22.4
24.15
24.74
24.4
23.3
21.56
19.4
17.09
15.01
13.45
12.55
12.23
12.22
12.23
12.0
11.42
10.48
9.19
7.56
5.56
3.18
0.44
-2.58
-5.82
-9.26
-12.97
-17.1
-21.84
-27.25
-33.14
-38.89
-43.43
-45.58
-44.39
-39.55
-31.55
-21.57
-11.09
-1.4
6.74
13.09
17.82
21.22
23.51
24.79
25.13
24.64
23.58
22.24
20.89
19.7
18.75
17.99
17.39
16.91
16.56
16.28
15.91
15.17
13.72
11.31
7.89
3.7
-0.78
-5.09
-8.86
-11.98
-14.6
-17.08
-19.87
-23.42
-27.94
-33.25
-38.64
-42.92
-44.77
-43.19
-37.93
-29.57
-19.41
-8.94
0.64
8.67
14.99
19.81
23.33
25.68
26.94
27.21
26.75
25.89
25.02
24.4
24.17
24.26
24.49
24.61
24.46
23.98
23.2
22.24
21.21
20.1
18.77
17.0
14.58
11.42
7.61
3.44
-0.77
-4.74
-8.31
-11.49
-14.4
-17.24
-20.28
-23.8
-28.07
-33.22
-39.04
-44.85
-49.52
-51.75
-50.49
-45.37
-36.92
-26.38
-15.26
-4.89
3.94
10.97
16.32
20.16
22.65
23.88
23.98
23.21
21.95
20.69
19.78
19.48
19.84
20.7
21.8
22.79
23.39
23.41
22.9
22.01
20.92
19.69
18.2
16.24
13.64
10.39
6.65
2.75
-1.02
-4.47
-7.54
-10.29
-12.82
-15.24
-17.73
-20.54
-23.98
-28.31
-33.53
-39.25
-44.63
-48.54
-49.88
-47.94
-42.65
-34.61
-24.9
-14.73
-5.15
3.16
9.84
14.78
17.97
19.46
19.42
18.23
16.4
14.57
13.23
12.63
12.67
12.98
13.1
12.74
11.94
10.97
10.24
9.95
10.01
9.98
9.35
7.78
5.29
2.22
-0.94
-3.77
-6.11
-8.01
-9.7
-11.49
-13.74
-16.8
-20.95
-26.16
-31.93
-37.23
-40.74
-41.25
-38.12
-31.54
-22.43
-12.16
-2.1
6.71
13.74
18.83
22.11
23.84
24.29
23.77
22.56
20.94
19.15
17.41
15.92
14.8
14.09
13.74
13.57
13.33
12.81
11.87
10.48
8.7
6.65
4.47
2.19
-0.22
-2.88
-5.98
-9.75
-14.38
-19.94
-26.2
-32.61
-38.26
-42.02
-42.89
-40.26
-34.18
-25.37
-15.07
-4.66
4.68
12.18
17.61
21.14
23.13
23.98
23.95
23.18
21.74
19.75
17.46
15.23
13.51
12.58
12.4
12.66
12.84
12.52
11.49
9.84
7.82
5.64
3.37
0.96
-1.69
-4.63
-7.83
-11.3
-15.15
-19.59
-24.75
-30.42
-35.87
-39.94
-41.4
-39.39
-33.8
-25.31
-15.18
-4.77
4.78
12.84
19.24
24.01
27.29
29.18
29.76
29.15
27.61
25.49
23.21
21.15
19.61
18.72
18.38
18.34
18.22
17.66
16.42
14.42
11.73
8.53
5.0
1.29
-2.49
-6.28
-10.13
-14.15
-18.58
-23.68
-29.54
-35.89
-41.99
-46.7
-48.78
-47.24
-41.79
-32.9
-21.75
-9.87
1.28
10.67
17.83
22.82
26.01
27.87
28.77
28.94
28.5
27.56
26.31
25.03
23.99
23.32
23.0
22.82
22.54
21.93
20.88
19.33
17.23
14.56
11.3
7.53
3.4
-0.88
-5.08
-9.09
-12.91
-16.7
-20.73
-25.36
-30.76
-36.74
-42.65
-47.38
-49.65
-48.41
-43.29
-34.74
-23.91
-12.28
-1.21
8.46
16.39
22.65
27.44
30.89
32.97
33.64
32.99
31.35
29.26
27.32
25.97
25.34
25.21
25.17
24.83
24.01
22.78
21.42
20.18
19.14
18.08
16.62
14.36
11.09
6.94
2.35
-2.11
-5.98
-9.13
-11.79
-14.48
-17.78
-22.15
-27.78
-34.42
-41.41
-47.67
-51.92
-52.94
-49.97
-43.02
-32.87
-20.96
-8.94
1.8
10.45
16.79
21.04
23.57
24.7
24.61
23.53
21.77
19.84
18.28
17.52
17.63
18.35
19.14
19.49
19.17
18.34
17.43
16.86
16.75
16.9
16.83
16.08
14.42
11.89
8.78
5.39
1.98
-1.38
-4.74
-8.17
-11.77
-15.69
-20.08
-25.07
-30.69
-36.62
-42.14
-46.14
-47.49
-45.36
-39.65
-30.96
-20.52
-9.71
0.26
8.63
15.06
19.52
22.14
23.17
22.88
21.69
20.08
18.51
17.37
16.88
17.06
17.72
18.57
19.29
19.66
19.62
19.28
18.8
18.25
17.52
16.32
14.36
11.47
7.8
3.73
-0.27
-3.84
-6.88
-9.56
-12.25
-15.38
-19.32
-24.3
-30.25
-36.69
-42.64
-46.87
-48.13
-45.64
-39.45
-30.38
-19.79
-9.1
0.61
8.71
14.93
19.22
21.59
22.16
21.31
19.65
17.88
16.63
16.21
16.55
17.28
17.98
18.35
18.31
17.9
17.3
16.63
15.9
14.98
13.64
11.63
8.77
5.07
0.82
-3.53
-7.49
-10.72
-13.22
-15.27
-17.38
-20.13
-23.91
-28.82
-34.51
-40.19
-44.74
-46.94
-45.89
-41.25
-33.49
-23.68
-13.23
-3.42
4.94
11.55
16.5
20.05
22.43
23.77
24.22
23.95
23.22
22.32
21.52
21.01
20.89
21.13
21.64
22.25
22.74
22.9
22.64
21.9
20.77
19.31
17.54
15.34
12.56
9.07
4.96
0.5
-3.91
-7.9
-11.28
-14.13
-16.74
-19.51
-22.82
-26.91
-31.87
-37.53
-43.4
-48.67
-52.24
-52.96
-50.04
-43.31
-33.4
-21.57
-9.33
1.98
11.47
18.79
24.0
27.33
29.08
29.55
29.12
28.2
27.23
26.6
26.48
26.85
27.56
28.36
29.07
29.57
29.84
29.94
29.85
29.53
28.87
27.79
26.26
24.33
22.06
19.59
17.0
14.35
11.67
9.01
6.36
3.77
1.26
-1.2
-3.71
-6.44
-9.53
-13.06
-16.9
-20.81
-24.52
-27.81
-30.64
-33.17
-35.64
-38.32
-41.45
-45.2
-49.6
-54.35
-58.79
-61.84
-62.27
-59.14
-52.16
-41.95
-29.87
-17.55
-6.4
2.74
9.68
14.65
18.0
19.99
20.75
20.43
19.3
17.83
16.57
15.98
16.25
17.29
18.75
20.27
21.56
22.53
23.17
23.51
23.5
23.02
21.97
20.29
18.06
15.42
12.53
9.48
6.32
3.05
-0.3
-3.66
-6.93
-10.01
-12.86
-15.56
-18.34
-21.54
-25.56
-30.62
-36.53
-42.57
-47.5
-49.94
-48.84
-43.9
-35.71
-25.52
-14.79
-4.66
4.25
11.83
18.14
23.2
26.86
28.95
29.47
28.73
27.25
25.66
24.41
23.76
23.66
23.92
24.25
24.39
24.17
23.56
22.54
21.22
19.62
17.73
15.44
12.63
9.25
5.32
1.07
-3.27
-7.43
-11.25
-14.73
-18.01
-21.28
-24.76
-28.62
-32.99
-37.95
-43.43
-49.12
-54.33
-58.09
-59.28
-57.1
-51.31
-42.39
-31.43
-19.75
-8.61
1.15
9.12
15.2
19.52
22.24
23.59
23.84
23.35
22.55
21.79
21.35
21.39
21.85
22.62
23.5
24.3
24.92
25.28
25.35
25.02
24.03
22.1
19.03
14.84
9.85
4.64
-0.22
-4.36
-7.82
-10.95
-14.36
-18.57
-23.88
-30.21
-37.05
-43.43
-48.14
-49.94
-48.0
-42.21
-33.32
-22.72
-12.05
-2.61
4.87
10.3
13.95
16.2
17.41
17.87
17.86
17.7
17.7
18.01
18.63
19.39
20.1
20.65
20.97
21.12
21.07
20.79
20.15
19.01
17.24
14.75
11.56
7.78
3.62
-0.62
-4.67
-8.39
-11.84
-15.3
-19.2
-23.83
-29.2
-34.78
-39.59
-42.43
-42.24
-38.5
-31.44
-21.99
-11.51
-1.33
7.58
14.71
19.98
23.56
25.65
26.46
26.2
25.13
23.53
21.71
19.92
18.39
17.25
16.55
16.23
16.1
15.91
15.38
14.35
12.76
10.66
8.16
5.37
2.4
-0.66
-3.73
-6.82
-9.97
-13.4
-17.37
-22.1
-27.59
-33.47
-38.94
-42.89
-44.2
-42.04
-36.27
-27.52
-17.01
-6.24
3.47
11.3
17.05
20.95
23.44
24.84
25.34
25.02
24.0
22.56
21.13
20.16
19.92
20.36
21.08
21.57
21.33
20.16
18.2
15.78
13.24
10.71
8.11
5.21
1.75
-2.38
-7.22
-12.73
-18.87
-25.46
-32.01
-37.64
-41.22
-41.72
-38.58
-32.07
-23.24
-13.54
-4.36
3.43
9.58
14.32
18.06
21.05
23.29
24.59
24.81
24.02
22.6
21.04
19.81
19.13
18.89
18.75
18.28
17.2
15.39
13.0
10.26
7.39
4.51
1.59
-1.49
-4.9
-8.78
-13.25
-18.34
-23.94
-29.71
-34.96
-38.76
-40.11
-38.25
-33.05
-25.07
-15.45
-5.54
3.51
11.08
17.05
21.63
25.04
27.38
28.65
28.84
28.11
26.75
25.19
23.78
22.68
21.93
21.39
20.87
20.16
19.07
17.48
15.37
12.8
9.9
6.77
3.41
-0.26
-4.36
-8.98
-14.14
-19.85
-26.06
-32.61
-39.06
-44.55
-47.96
-48.12
-44.4
-36.89
-26.58
-14.95
-3.58
6.41
14.44
20.48
24.79
27.65
29.33
30.01
29.92
29.31
28.46
27.6
26.82
26.12
25.4
24.57
23.6
22.53
21.37
20.04
18.36
16.1
13.08
9.32
5.06
0.67
-3.49
-7.2
-10.5
-13.65
-17.08
-21.25
-26.47
-32.65
-39.16
-44.83
-48.23
-48.12
-43.9
-35.96
-25.5
-14.18
-3.53
5.5
12.64
18.12
22.35
25.61
27.99
29.41
29.88
29.59
28.95
28.47
28.48
29.05
29.86
30.41
30.29
29.35
27.81
26.09
24.52
23.17
21.78
19.89
17.15
13.42
8.9
3.97
-0.92
-5.42
-9.4
-12.9
-16.1
-19.25
-22.67
-26.67
-31.53
-37.36
-43.87
-50.33
-55.48
-57.94
-56.64
-51.22
-42.28
-31.19
-19.57
-8.8
0.33
7.67
13.47
18.09
21.82
24.78
27.02
28.6
29.67
30.43
31.09
31.79
32.55
33.25
33.7
33.76
33.41
32.69
31.7
30.4
28.66
26.29
23.2
19.52
15.57
11.76
8.37
5.45
2.82
0.2
-2.6
-5.64
-8.84
-12.06
-15.22
-18.34
-21.56
-25.07
-29.09
-33.82
-39.37
-45.53
-51.73
-56.96
-59.92
-59.52
-55.21
-47.3
-36.92
-25.66
-15.0
-5.92
1.31
6.93
11.42
15.16
18.28
20.73
22.39
23.31
23.65
23.72
23.8
24.06
24.53
25.08
25.57
25.88
25.99
25.95
25.84
25.64
25.21
24.37
22.89
20.69
17.85
14.61
11.23
7.93
4.83
1.9
-0.95
-3.82
-6.72
-9.61
-12.35
-14.81
-16.93
-18.7
-20.26
-21.75
-23.36
-25.22
-27.4
-30.03
-33.3
-37.42
-42.43
-47.98
-53.17
-56.74
-57.4
-54.33
-47.57
-37.96
-26.86
-15.68
-5.49
3.14
10.06
15.29
18.94
21.14
22.11
22.2
21.87
21.6
21.72
22.36
23.4
24.6
25.71
26.59
27.24
27.76
28.18
28.43
28.31
27.54
25.97
23.61
20.64
17.32
13.94
10.66
7.53
4.54
1.6
-1.34
-4.29
-7.21
-10.02
-12.67
-15.14
-17.58
-20.26
-23.55
-27.73
-32.81
-38.37
-43.51
-47.07
-47.94
-45.45
-39.61
-31.13
-21.21
-11.17
-2.09
5.43
11.19
15.29
17.93
19.26
19.43
18.66
17.27
15.69
14.36
13.58
13.5
14.09
15.17
16.57
18.07
19.52
20.78
21.67
22.02
21.72
20.71
19.08
16.99
14.7
12.4
10.17
7.99
5.69
3.08
0.01
-3.47
-7.22
-10.97
-14.48
-17.61
-20.36
-22.95
-25.77
-29.27
-33.75
-39.15
-44.85
-49.78
-52.66
-52.41
-48.57
-41.43
-31.95
-21.41
-11.07
-1.87
5.64
11.32
15.31
17.97
19.76
21.08
22.2
23.2
24.04
24.66
25.08
25.36
25.53
25.61
25.54
25.25
24.76
24.08
23.21
22.08
20.53
18.41
15.74
12.7
9.63
6.81
4.38
2.23
0.06
-2.46
-5.47
-8.9
-12.43
-15.74
-18.61
-21.1
-23.47
-26.16
-29.58
-34.0
-39.39
-45.33
-50.95
-55.03
-56.33
-54.0
-47.93
-38.89
-28.26
-17.6
-8.07
-0.26
5.84
10.51
14.01
16.44
17.84
18.31
18.15
17.73
17.46
17.57
18.1
18.96
19.98
21.0
21.9
22.61
23.1
23.33
23.31
22.98
22.26
21.03
19.18
16.7
13.68
10.33
6.89
3.53
0.34
-2.71
-5.73
-8.86
-12.25
-16.03
-20.3
-25.19
-30.69
-36.57
-42.22
-46.71
-48.98
-48.19
-44.08
-37.07
-28.15
-18.53
-9.26
-1.01
5.86
11.16
14.75
16.51
16.59
15.38
13.57
11.88
10.81
10.49
10.76
11.33
12.0
12.7
13.46
14.36
15.39
16.43
17.31
17.75
17.49
16.27
13.99
10.76
6.91
2.91
-0.84
-4.14
-7.06
-9.93
-13.1
-16.93
-21.6
-27.11
-33.1
-38.86
-43.3
-45.15
-43.45
-37.84
-28.9
-17.96
-6.66
3.59
11.97
18.33
22.93
26.05
27.83
28.22
27.21
24.96
21.93
18.7
15.82
13.63
12.24
11.52
11.19
10.93
10.37
9.28
7.58
5.38
2.93
0.44
-2.0
-4.49
-7.27
-10.56
-14.54
-19.23
-24.63
-30.59
-36.71
-42.21
-45.97
-46.79
-43.82
-37.07
-27.42
-16.43
-5.74
3.39
10.42
15.42
18.78
20.93
22.13
22.52
22.21
21.35
20.22
19.12
18.28
17.86
17.87
18.12
18.34
18.19
17.42
15.95
13.88
11.46
8.92
6.39
3.81
0.95
-2.52
-6.86
-12.22
-18.55
-25.53
-32.52
-38.65
-42.83
-44.03
-41.57
-35.31
-25.85
-14.41
-2.52
8.43
17.45
24.23
28.93
31.96
33.73
34.46
34.21
33.04
31.12
28.79
26.42
24.33
22.64
21.28
20.09
18.89
17.56
15.98
14.06
11.74
9.02
6.03
2.94
-0.07
-2.97
-5.88
-9.1
-12.98
-17.81
-23.68
-30.33
-37.09
-42.91
-46.51
-46.75
-43.03
-35.48
-25.07
-13.25
-1.56
8.84
17.31
23.71
28.21
31.1
32.66
33.16
32.88
32.11
31.13
30.13
29.17
28.22
27.21
26.11
25.0
23.96
23.12
22.49
21.88
20.92
19.22
16.5
12.77
8.31
3.61
-0.85
-4.79
-8.23
-11.48
-15.05
-19.43
-24.94
-31.52
-38.65
-45.38
-50.44
-52.57
-50.88
-45.12
-35.85
-24.28
-11.99
-0.45
9.31
16.86
22.36
26.28
29.15
31.32
32.95
34.06
34.67
34.9
35.0
35.19
35.62
36.26
36.97
37.55
37.82
37.68
37.1
36.06
34.54
32.6
30.26
27.67
24.99
22.34
19.79
17.29
14.79
12.21
9.57
6.94
4.38
1.88
-0.68
-3.46
-6.58
-10.06
-13.82
-17.68
-21.46
-24.97
-28.05
-30.66
-32.91
-35.15
-37.93
-41.86
-47.34
-54.21
-61.64
-68.18
-72.15
-72.15
-67.58
-58.77
-46.97
-33.84
-21.03
-9.7
-0.42
6.76
12.1
15.95
18.65
20.5
21.78
22.76
23.67
24.63
25.67
26.77
27.85
28.81
29.6
30.18
30.52
30.55
30.16
29.23
27.65
25.41
22.65
19.55
16.33
13.08
9.74
6.22
2.45
-1.47
-5.31
-8.83
-11.87
-14.44
-16.73
-19.04
-21.63
-24.79
-28.72
-33.45
-38.67
-43.63
-47.18
-48.05
-45.27
-38.63
-28.82
-17.23
-5.48
5.04
13.56
19.92
24.42
27.44
29.32
30.23
30.29
29.72
28.85
28.03
27.59
27.63
28.06
28.6
28.95
28.88
28.3
27.26
25.83
24.06
21.91
19.31
16.18
12.54
8.48
4.19
-0.13
-4.28
-8.16
-11.73
-14.99
-17.98
-20.72
-23.27
-25.76
-28.41
-31.53
-35.46
-40.38
-46.12
-52.04
-57.03
-59.79
-59.19
-54.71
-46.57
-35.75
-23.65
-11.66
-0.9
8.01
14.94
20.06
23.68
26.14
27.68
28.52
28.83
28.75
28.44
28.06
27.76
27.6
27.6
27.67
27.73
27.68
27.47
27.02
26.27
25.1
23.43
21.22
18.53
15.52
12.31
8.93
5.33
1.42
-2.81
-7.27
-11.71
-15.88
-19.62
-22.91
-25.92
-28.89
-32.15
-36.04
-40.75
-46.17
-51.71
-56.29
-58.54
-57.27
-51.95
-43.0
-31.68
-19.65
-8.4
1.15
8.75
14.59
19.01
22.23
24.35
25.43
25.6
25.12
24.31
23.52
22.98
22.86
23.15
23.82
24.71
25.67
26.51
27.01
26.96
26.17
24.49
21.92
18.57
14.68
10.52
6.3
2.14
-1.99
-6.14
-10.31
-14.46
-18.45
-22.15
-25.51
-28.56
-31.48
-34.54
-38.04
-42.22
-47.07
-52.21
-56.8
-59.66
-59.68
-56.13
-49.03
-39.17
-27.92
-16.71
-6.69
1.61
8.18
13.29
17.26
20.19
22.07
22.87
22.75
22.07
21.39
21.18
21.7
22.85
24.26
25.47
26.16
26.26
25.89
25.28
24.58
23.77
22.71
21.13
18.81
15.67
11.8
7.47
3.07
-1.05
-4.64
-7.61
-10.14
-12.52
-15.16
-18.47
-22.73
-27.91
-33.6
-38.95
-42.77
-43.9
-41.52
-35.57
-26.69
-16.15
-5.34
4.56
12.84
19.31
24.03
27.21
28.94
29.29
28.4
26.64
24.55
22.76
21.71
21.55
22.04
22.75
23.22
23.25
22.88
22.34
21.8
21.24
20.37
18.81
16.22
12.5
7.81
2.6
-2.62
-7.36
-11.39
-14.75
-17.79
-20.99
-24.84
-29.63
-35.38
-41.72
-47.91
-52.93
-55.68
-55.24
-51.15
-43.65
-33.61
-22.36
-11.26
-1.37
6.78
13.07
17.71
20.94
22.98
23.97
24.11
23.62
22.8
21.9
21.11
20.56
20.31
20.37
20.73
21.28
21.76
21.82
21.1
19.3
16.34
12.39
7.85
3.11
-1.46
-5.65
-9.4
-12.79
-15.99
-19.3
-23.12
-27.84
-33.53
-39.72
-45.31
-48.8
-48.82
-44.66
-36.66
-26.1
-14.7
-4.03
4.98
12.06
17.45
21.5
24.47
26.49
27.66
28.17
28.3
28.34
28.43
28.49
28.29
27.55
26.14
24.19
22.03
20.06
18.5
17.27
15.99
14.21
11.57
8.06
3.95
-0.34
-4.44
-8.2
-11.7
-15.23
-19.17
-23.85
-29.42
-35.71
-42.01
-47.19
-49.91
-49.13
-44.46
-36.36
-25.99
-14.83
-4.19
5.05
12.4
17.78
21.26
23.08
23.57
23.1
22.05
20.72
19.34
18.09
17.16
16.73
16.85
17.44
18.25
18.96
19.22
18.79
17.48
15.25
12.18
8.5
4.58
0.79
-2.6
-5.58
-8.39
-11.4
-14.98
-19.37
-24.65
-30.64
-36.82
-42.34
-46.04
-46.76
-43.71
-36.81
-26.85
-15.21
-3.55
6.79
15.0
20.94
24.86
27.12
28.01
27.67
26.24
23.93
21.15
18.43
16.26
14.86
14.2
13.99
13.87
13.59
13.04
12.2
11.05
9.53
7.54
5.03
2.06
-1.3
-4.99
-9.02
-13.48
-18.52
-24.2
-30.41
-36.72
-42.34
-46.17
-47.09
-44.26
-37.61
-27.93
-16.64
-5.46
4.27
11.87
17.31
21.01
23.43
24.84
25.3
24.77
23.34
21.24
18.87
16.62
14.79
13.51
12.7
12.18
11.73
11.15
10.3
9.12
7.6
5.73
3.53
1.02
-1.76
-4.77
-7.98
-11.43
-15.26
-19.71
-24.96
-30.98
-37.28
-42.9
-46.58
-47.13
-43.88
-36.95
-27.2
-15.98
-4.69
5.58
14.2
20.99
25.95
29.23
30.97
31.43
30.98
30.1
29.2
28.56
28.2
27.94
27.53
26.81
25.78
24.6
23.46
22.5
21.65
20.72
19.42
17.55
15.07
12.17
9.13
6.26
3.71
1.37
-1.1
-4.18
-8.37
-13.9
-20.62
-27.9
-34.62
-39.45
-41.2
-39.21
-33.56
-25.16
-15.38
-5.59
3.2
10.58
16.6
21.56
25.63
28.8
30.92
31.89
31.78
30.87
29.58
28.32
27.34
26.68
26.17
25.54
24.54
23.08
21.29
19.45
17.77
16.25
14.6
12.36
9.12
4.84
-0.12
-5.16
-9.63
-13.19
-15.9
-18.13
-20.32
-22.91
-26.17
-30.3
-35.31
-40.97
-46.65
-51.3
-53.71
-52.86
-48.33
-40.51
-30.45
-19.51
-8.89
0.57
8.57
15.09
20.2
23.93
26.28
27.25
27.04
26.0
24.6
23.31
22.45
22.11
22.11
22.15
21.89
21.17
20.0
18.57
17.14
15.83
14.61
13.25
11.45
9.01
5.93
2.47
-0.94
-3.9
-6.21
-7.96
-9.47
-11.24
-13.7
-17.16
-21.72
-27.21
-33.21
-38.94
-43.39
-45.5
-44.5
-40.14
-32.87
-23.69
-13.85
-4.48
3.7
10.36
15.5
19.24
21.72
23.05
23.4
23.09
22.52
22.12
22.17
22.71
23.52
24.18
24.33
23.76
22.57
21.01
19.38
17.81
16.21
14.26
11.66
8.26
4.23
-0.08
-4.25
-7.96
-11.19
-14.17
-17.26
-20.86
-25.27
-30.58
-36.59
-42.7
-47.97
-51.23
-51.42
-47.96
-41.04
-31.58
-20.91
-10.38
-0.94
6.95
13.22
17.97
21.3
23.26
24.02
23.9
23.4
23.03
23.1
23.65
24.43
25.03
25.13
24.65
23.72
22.66
21.72
20.93
20.11
18.87
16.84
13.88
10.1
5.84
1.51
-2.58
-6.31
-9.78
-13.25
-17.06
-21.54
-26.87
-32.98
-39.34
-45.0
-48.74
-49.38
-46.23
-39.36
-29.67
-18.55
-7.53
2.26
10.26
16.45
21.11
24.5
26.74
27.82
27.75
26.73
25.22
23.72
22.64
22.04
21.68
21.14
20.09
18.45
16.46
14.49
12.79
11.33
9.79
7.68
4.67
0.72
-3.91
-8.78
-13.42
-17.53
-21.02
-23.99
-26.73
-29.58
-32.93
-37.08
-42.0
-47.26
-51.99
-55.03
-55.33
-52.3
-46.02
-37.23
-27.06
-16.68
-7.03
1.3
8.06
13.18
16.7
18.75
19.56
19.45
18.86
18.2
17.82
17.85
18.26
18.81
19.29
19.59
19.75
19.97
20.43
21.1
21.7
21.78
20.89
18.81
15.62
11.7
7.5
3.42
-0.35
-3.82
-7.15
-10.6
-14.46
-19.04
-24.44
-30.44
-36.32
-40.92
-42.97
-41.54
-36.37
-28.11
-18.04
-7.66
1.76
9.47
15.28
19.33
21.89
23.22
23.56
23.15
22.29
21.25
20.26
19.42
18.78
18.31
17.98
17.77
17.64
17.5
17.2
16.55
15.35
13.49
10.95
7.8
4.18
0.24
-3.85
-7.97
-12.06
-16.22
-20.69
-25.73
-31.44
-37.51
-43.13
-47.07
-48.07
-45.36
-38.9
-29.51
-18.53
-7.39
2.78
11.33
18.04
22.93
26.11
27.75
28.07
27.39
26.05
24.41
22.74
21.18
19.81
18.59
17.43
16.24
14.97
13.61
12.17
10.58
8.7
6.31
3.23
-0.49
-4.59
-8.6
-12.14
-15.06
-17.56
-20.17
-23.49
-27.92
-33.42
-39.35
-44.56
-47.71
-47.68
-43.94
-36.77
-27.09
-16.23
-5.48
4.19
12.22
18.45
22.93
25.86
27.44
27.98
27.81
27.25
26.61
26.07
25.73
25.55
25.42
25.18
24.69
23.91
22.9
21.76
20.57
19.27
17.59
15.22
11.9
7.61
2.62
-2.58
-7.52
-11.91
-15.73
-19.23
-22.79
-26.83
-31.62
-37.29
-43.6
-49.91
-55.21
-58.22
-57.85
-53.48
-45.36
-34.52
-22.46
-10.68
-0.23
8.48
15.5
21.1
25.44
28.49
30.18
30.53
29.84
28.66
27.5
26.76
26.5
26.5
26.39
25.88
24.87
23.46
21.95
20.58
19.46
18.45
17.25
15.47
12.92
9.65
5.94
2.19
-1.28
-4.38
-7.26
-10.17
-13.35
-16.93
-21.03
-25.73
-31.13
-37.12
-43.2
-48.43
-51.56
-51.47
-47.56
-40.03
-29.83
-18.36
-6.96
3.34
12.0
18.9
24.1
27.68
29.72
30.3
29.64
28.09
26.17
24.44
23.35
23.05
23.41
24.03
24.44
24.33
23.66
22.65
21.61
20.71
19.89
18.85
17.2
14.66
11.24
7.21
2.97
-1.08
-4.74
-8.0
-11.02
-13.98
-17.07
-20.49
-24.45
-29.23
-34.99
-41.55
-48.25
-53.89
-57.12
-56.82
-52.56
-44.78
-34.56
-23.23
-12.0
-1.71
7.19
14.49
20.15
24.13
26.51
27.51
27.46
26.84
26.15
25.84
26.22
27.33
28.98
30.8
32.39
33.52
34.16
34.48
34.59
34.48
33.9
32.57
30.37
27.44
24.17
21.02
18.27
15.84
13.44
10.78
7.77
4.61
1.68
-0.75
-2.64
-4.24
-5.95
-8.12
-10.92
-14.3
-18.08
-22.03
-25.95
-29.69
-33.19
-36.51
-39.89
-43.73
-48.46
-54.24
-60.74
-67.0
-71.62
-73.18
-70.75
-64.2
-54.3
-42.33
-29.7
-17.54
-6.57
2.87
10.64
16.67
20.96
23.65
24.98
25.4
25.39
25.37
25.63
26.26
27.24
28.39
29.52
30.48
31.19
31.66
31.93
31.96
31.65
30.83
29.35
27.21
24.58
21.79
19.15
16.82
14.78
12.77
10.48
7.64
4.18
0.22
-3.95
-8.04
-11.79
-15.14
-18.23
-21.39
-25.08
-29.72
-35.54
-42.36
-49.45
-55.63
-59.54
-60.04
-56.6
-49.48
-39.63
-28.35
-16.93
-6.36
2.78
10.24
15.97
20.09
22.74
24.14
24.55
24.27
23.64
23.0
22.66
22.81
23.47
24.54
25.77
26.98
27.99
28.7
28.99
28.69
27.65
25.8
23.27
20.29
17.12
13.89
10.58
7.09
3.36
-0.53
-4.34
-7.86
-10.96
-13.71
-16.29
-18.99
-22.09
-25.85
-30.39
-35.69
-41.34
-46.58
-50.3
-51.38
-49.07
-43.27
-34.68
-24.49
-14.08
-4.51
3.64
10.26
15.49
19.46
22.23
23.83
24.41
24.28
23.86
23.51
23.42
23.57
23.85
24.11
24.32
24.48
24.57
24.48
24.05
23.17
21.81
20.07
18.07
15.94
13.74
11.44
9.01
6.43
3.63
0.55
-2.89
-6.65
-10.65
-14.64
-18.36
-21.63
-24.53
-27.38
-30.71
-34.93
-40.21
-46.14
-51.79
-55.91
-57.25
-55.03
-49.16
-40.25
-29.45
-18.1
-7.38
1.89
9.38
15.1
19.32
22.32
24.35
25.53
25.96
25.81
25.36
24.93
24.84
25.23
26.0
26.9
27.68
28.17
28.33
28.19
27.74
26.91
25.59
23.77
21.6
19.31
17.12
15.05
12.9
10.34
7.07
3.07
-1.45
-6.06
-10.31
-13.92
-16.86
-19.42
-22.08
-25.42
-29.93
-35.88
-43.06
-50.7
-57.53
-62.05
-63.0
-59.74
-52.52
-42.34
-30.66
-18.92
-8.27
0.66
7.72
13.08
17.1
20.12
22.38
23.99
25.0
25.47
25.53
25.43
25.41
25.59
25.99
26.46
26.86
27.05
27.01
26.72
26.18
25.33
24.06
22.27
19.9
16.93
13.4
9.42
5.18
0.93
-3.11
-6.73
-9.9
-12.75
-15.57
-18.75
-22.7
-27.67
-33.59
-39.91
-45.59
-49.32
-49.91
-46.68
-39.77
-30.09
-19.01
-7.96
1.97
10.23
16.66
21.42
24.7
26.65
27.42
27.21
26.31
25.14
24.13
23.59
23.62
24.06
24.57
24.85
24.72
24.22
23.51
22.72
21.82
20.58
18.7
15.96
12.38
8.19
3.79
-0.43
-4.23
-7.59
-10.68
-13.78
-17.25
-21.39
-26.39
-32.16
-38.26
-43.8
-47.66
-48.75
-46.4
-40.56
-31.85
-21.36
-10.34
0.09
9.12
16.29
21.51
24.9
26.79
27.55
27.62
27.34
26.98
26.72
26.6
26.58
26.55
26.35
25.87
25.08
24.06
22.89
21.61
20.11
18.19
15.64
12.38
8.52
4.26
-0.14
-4.52
-8.85
-13.2
-17.74
-22.67
-28.19
-34.38
-41.01
-47.39
-52.39
-54.71
-53.29
-47.82
-38.86
-27.71
-15.94
-4.87
4.73
12.63
18.98
23.97
27.71
30.26
31.72
32.31
32.34
32.12
31.78
31.31
30.58
29.48
28.09
26.6
25.26
24.17
23.19
21.95
19.99
17.0
12.92
7.97
2.59
-2.75
-7.63
-11.84
-15.37
-18.5
-21.71
-25.6
-30.67
-36.99
-44.08
-50.8
-55.69
-57.34
-54.88
-48.28
-38.4
-26.67
-14.7
-3.73
5.5
12.82
18.43
22.63
25.63
27.58
28.57
28.74
28.4
27.86
27.37
26.99
26.56
25.82
24.62
22.99
21.17
19.46
17.97
16.59
14.91
12.55
9.35
5.49
1.45
-2.22
-5.19
-7.44
-9.32
-11.35
-14.1
-17.99
-23.21
-29.58
-36.43
-42.64
-46.82
-47.72
-44.63
-37.72
-28.01
-17.07
-6.39
2.95
10.51
16.33
20.67
23.74
25.62
26.35
26.05
25.01
23.61
22.2
21.0
20.06
19.3
18.58
17.82
16.99
16.11
15.15
14.05
12.65
10.79
8.35
5.38
2.04
-1.42
-4.81
-8.0
-11.03
-14.08
-17.47
-21.5
-26.31
-31.7
-37.0
-41.12
-42.88
-41.34
-36.24
-28.09
-18.03
-7.47
2.32
10.53
16.83
21.29
24.16
25.8
26.48
26.44
25.84
24.84
23.56
22.16
20.82
19.67
18.76
18.05
17.4
16.68
15.75
14.53
12.92
10.86
8.27
5.16
1.65
-2.06
-5.74
-9.29
-12.77
-16.41
-20.57
-25.57
-31.51
-38.08
-44.45
-49.39
-51.61
-50.2
-45.0
-36.7
-26.58
-16.03
-6.15
2.48
9.77
15.84
20.82
24.69
27.39
28.95
29.55
29.57
29.43
29.41
29.55
29.65
29.4
28.59
27.28
25.8
24.57
23.81
23.38
22.73
21.22
18.4
14.29
9.34
4.19
-0.62
-4.84
-8.58
-12.2
-16.16
-20.9
-26.7
-33.57
-41.06
-48.26
-53.83
-56.43
-55.12
-49.76
-41.07
-30.35
-19.05
-8.33
1.13
9.07
15.47
20.36
23.81
25.93
26.96
27.22
27.08
26.81
26.54
26.3
26.01
25.56
