0
25.96
22.68
19.65
16.8
13.88
10.57
6.65
2.17
-2.61
-7.28
-11.5
-15.16
-18.4
-21.52
-24.95
-29.13
-34.42
-40.99
-48.64
-56.69
-63.95
-68.92
-70.25
-67.1
-59.55
-48.54
-35.6
-22.35
-10.06
0.63
9.52
16.64
22.04
25.67
27.6
28.03
27.53
26.77
26.4
26.82
28.04
29.78
31.6
33.09
33.97
34.16
33.69
32.68
31.23
29.37
27.09
24.36
21.26
17.95
14.64
11.47
8.49
5.56
2.47
-0.95
-4.73
-8.74
-12.74
-16.51
-20.03
-23.47
-27.26
-31.91
-37.83
-45.03
-52.9
-60.25
-65.52
-67.24
-64.56
-57.52
-47.04
-34.58
-21.62
-9.36
1.53
10.72
18.06
23.38
26.59
27.75
27.23
25.73
24.06
22.97
22.9
23.85
25.5
27.35
28.92
29.95
30.38
30.31
29.79
28.76
27.05
24.52
21.23
17.49
13.81
10.63
8.16
6.22
4.35
2.02
-1.15
-5.25
-10.07
-15.16
-20.1
-24.57
-28.51
-32.12
-35.86
-40.23
-45.6
-52.02
-59.04
-65.73
-70.77
-72.78
-70.72
-64.19
-53.67
-40.44
-26.2
-12.59
-0.81
8.67
15.91
21.23
24.97
27.38
28.67
29.21
29.51
30.09
31.33
33.18
35.28
37.05
38.01
38.01
37.25
36.16
35.16
34.4
33.73
32.78
31.11
28.51
25.08
21.17
17.26
13.68
10.52
7.59
4.58
1.2
-2.62
-6.77
-11.0
-15.07
-18.86
-22.44
-26.1
-30.21
-35.21
-41.38
-48.72
-56.72
-64.42
-70.52
-73.68
-72.93
-67.9
-58.98
-47.22
-34.01
-20.69
-8.28
2.64
11.83
19.22
24.78
28.47
30.36
30.77
30.32
29.72
29.59
30.23
31.52
33.09
34.53
35.59
36.2
36.42
36.3
35.82
34.88
33.4
31.34
28.75
25.73
22.47
19.17
16.07
13.31
10.89
8.63
6.23
3.38
-0.07
-4.07
-8.4
-12.74
-16.88
-20.78
-24.55
-28.47
-32.86
-38.03
-44.13
-50.99
-58.06
-64.34
-68.61
-69.73
-66.97
-60.34
-50.52
-38.77
-26.48
-14.89
-4.79
3.47
9.87
14.54
17.61
19.25
19.72
19.46
19.01
18.92
19.53
20.85
22.64
24.49
26.12
27.41
28.36
28.99
29.27
29.0
28.01
26.21
23.68
20.7
17.59
14.68
12.14
9.92
7.78
5.36
2.37
-1.32
-5.56
-10.04
-14.36
-18.26
-21.71
-24.92
-28.32
-32.33
-37.32
-43.36
-50.19
-57.04
-62.77
-66.11
-65.96
-61.82
-53.9
-43.12
-30.78
-18.18
-6.36
4.04
12.66
19.35
24.11
27.04
28.42
28.68
28.35
27.95
27.92
28.51
29.72
31.3
32.87
34.02
34.56
34.5
34.04
33.4
32.59
31.42
29.58
26.86
23.32
19.33
15.37
11.84
8.91
6.44
4.05
1.32
-2.1
-6.27
-10.98
-15.82
-20.38
-24.47
-28.18
-31.9
-36.11
-41.25
-47.48
-54.7
-62.43
-69.91
-76.03
-79.56
-79.41
-74.98
-66.47
-54.87
-41.67
-28.33
-15.9
-4.9
4.56
12.43
18.6
22.92
25.38
26.34
26.49
26.68
27.58
29.44
32.05
34.86
37.28
38.93
39.73
39.89
39.68
39.31
38.74
37.75
36.03
33.43
30.04
26.24
22.5
19.17
16.35
13.85
11.26
8.21
4.46
0.04
-4.76
-9.58
-14.04
-17.99
-21.5
-24.9
-28.66
-33.34
-39.32
-46.68
-55.08
-63.61
-70.96
-75.61
-76.27
-72.27
-63.85
-52.03
-38.34
-24.32
-11.16
0.42
10.1
17.78
23.48
27.26
29.35
30.18
30.3
30.31
30.64
31.51
32.88
34.56
36.23
37.68
38.77
39.52
39.99
40.21
40.06
39.29
37.67
35.08
31.68
27.87
24.12
20.79
17.99
15.6
13.36
10.96
8.21
5.01
1.37
-2.64
-6.89
-11.28
-15.73
-20.27
-25.0
-30.11
-35.83
-42.36
-49.69
-57.43
-64.75
-70.44
-73.15
-71.83
-66.14
-56.54
-44.23
-30.75
-17.54
-5.6
4.53
12.66
18.72
22.69
24.68
25.0
24.27
23.28
22.82
23.42
25.17
27.78
30.72
33.4
35.45
36.71
37.24
37.18
36.62
35.54
33.86
31.55
28.71
25.61
22.58
19.84
17.36
14.83
11.79
7.9
3.13
-2.18
-7.45
-12.14
-16.03
-19.3
-22.47
-26.22
-31.08
-37.35
-44.99
-53.53
-62.08
-69.44
-74.19
-75.1
-71.48
-63.43
-51.9
-38.37
-24.42
-11.33
0.16
9.73
17.33
22.95
26.63
28.52
29.02
28.82
28.68
29.22
30.73
33.01
35.57
37.86
39.54
40.53
41.04
41.28
41.36
41.18
40.45
38.87
36.3
32.78
28.57
24.04
19.59
15.49
11.83
8.44
4.99
1.12
-3.34
-8.25
-13.2
-17.66
-21.32
-24.2
-26.77
-29.77
-33.9
-39.62
-46.88
-55.16
-63.42
-70.32
-74.42
-74.6
-70.32
-61.81
-50.01
-36.26
-21.92
-8.14
4.29
14.9
23.38
29.61
33.64
35.72
36.33
36.12
35.75
35.81
36.65
38.32
40.59
43.0
45.02
46.32
46.84
46.81
46.54
46.14
45.43
43.96
41.38
37.6
32.97
28.18
23.86
20.41
17.78
15.59
13.27
10.4
6.74
2.34
-2.5
-7.37
-11.89
-15.88
-19.47
-23.08
-27.33
-32.78
-39.71
-47.96
-56.82
-65.16
-71.54
-74.49
-72.98
-66.69
-56.26
-43.08
-28.89
-15.28
-3.31
6.61
14.48
20.42
24.51
26.87
27.77
27.8
27.64
27.95
29.07
30.95
33.23
35.47
37.34
38.69
39.55
40.06
40.32
40.33
39.91
38.83
36.84
33.87
30.1
25.96
21.95
18.44
15.54
13.01
10.42
7.42
3.87
-0.15
-4.36
-8.49
-12.4
-16.13
-19.87
-23.87
-28.4
-33.66
-39.75
-46.52
-53.44
-59.6
-63.8
-64.88
-62.12
-55.49
-45.7
-33.99
-21.67
-9.88
0.65
9.51
16.48
21.43
24.34
25.35
24.87
23.61
22.37
21.83
22.39
23.98
26.2
28.51
30.44
31.7
32.3
32.34
31.95
31.16
29.86
27.97
25.49
22.59
19.54
16.56
13.73
10.92
7.9
4.46
0.59
-3.55
-7.71
-11.7
-15.43
-19.05
-22.8
-27.04
-32.08
-38.16
-45.31
-53.17
-60.9
-67.2
-70.64
-70.04
-64.97
-55.92
-44.11
-31.12
-18.38
-6.82
3.09
11.18
17.38
21.64
23.99
24.7
24.35
23.71
23.5
24.14
25.66
27.76
29.98
31.88
33.2
33.87
33.94
33.53
32.74
31.65
30.25
28.49
26.3
23.64
20.57
17.2
13.7
10.17
6.64
3.06
-0.61
-4.34
-7.98
-11.42
-14.63
-17.81
-21.3
-25.53
-30.85
-37.36
-44.8
-52.47
-59.32
-64.06
-65.51
-63.01
-56.55
-46.88
-35.23
-22.99
-11.27
-0.81
8.1
15.35
20.98
25.04
27.62
28.93
29.39
29.48
29.7
30.39
31.61
33.19
34.79
36.11
36.95
37.33
37.31
36.91
36.09
34.73
32.75
30.2
27.23
24.08
20.95
17.99
15.27
12.77
10.39
7.92
5.18
2.07
-1.37
-4.94
-8.43
-11.71
-14.9
-18.34
-22.42
-27.46
-33.51
-40.29
-47.11
-53.01
-56.86
-57.62
-54.7
-48.15
-38.71
-27.64
-16.28
-5.71
3.49
11.13
17.22
21.76
24.69
26.05
26.1
25.41
24.69
24.56
25.34
26.92
28.93
30.89
32.4
33.26
33.45
32.99
31.96
30.35
28.21
25.55
22.51
19.29
16.1
13.09
10.27
7.53
4.67
1.54
-1.88
-5.47
-9.03
-12.4
-15.5
-18.47
-21.6
-25.28
-29.87
-35.5
-41.89
-48.3
-53.59
-56.5
-56.07
-51.93
-44.4
-34.43
-23.24
-12.06
-1.79
6.98
13.98
19.1
22.36
23.94
24.15
23.5
22.62
22.14
22.47
23.7
25.61
27.68
29.44
30.5
30.73
30.22
29.12
27.59
25.71
23.54
21.14
18.6
16.08
13.65
11.25
8.72
5.85
2.53
-1.22
-5.21
-9.16
-12.81
-16.01
-18.77
-21.27
-23.92
-27.22
-31.7
-37.64
-44.81
-52.31
-58.72
-62.42
-62.14
-57.43
-48.81
-37.59
-25.47
-13.9
-3.86
4.25
10.49
15.08
18.24
20.17
21.11
21.38
21.42
21.64
22.33
23.52
24.94
26.2
26.98
27.15
26.87
26.47
26.22
26.15
26.01
25.43
24.04
21.75
18.74
15.39
12.07
9.04
6.32
3.78
1.26
-1.37
-4.13
-6.98
-9.83
-12.68
-15.63
-18.85
-22.58
-27.04
-32.31
-38.34
-44.79
-51.1
-56.43
-59.81
-60.34
-57.47
-51.24
-42.31
-31.76
-20.84
-10.58
-1.61
5.8
11.58
15.76
18.35
19.46
19.35
18.54
17.66
17.27
17.72
19.02
20.9
22.95
24.81
26.17
26.92
27.01
26.44
25.27
23.52
21.28
18.67
15.91
13.22
10.8
8.69
6.75
4.72
2.32
-0.58
-3.89
-7.37
-10.74
-13.84
-16.75
-19.67
-22.89
-26.72
-31.4
-36.99
-43.3
-49.68
-55.07
-58.22
-58.04
-54.1
-46.78
-37.16
-26.62
-16.39
-7.25
0.48
6.74
11.53
14.84
16.69
17.27
17.0
16.44
16.18
16.62
17.84
19.61
21.47
22.97
23.82
24.0
23.63
22.92
21.95
20.7
19.11
17.17
14.98
12.69
10.37
7.97
5.3
2.22
-1.34
-5.27
-9.36
-13.38
-17.19
-20.71
-24.0
-27.26
-30.83
-35.17
-40.6
-47.15
-54.3
-60.99
-65.9
-67.81
-65.94
-60.19
-51.13
-39.84
-27.6
-15.66
-4.98
3.85
10.67
15.6
18.95
21.1
22.45
23.33
24.08
24.97
26.18
27.69
29.38
31.0
32.31
33.15
33.51
33.45
33.1
32.53
31.72
30.53
28.76
26.29
23.21
19.8
16.46
13.48
10.89
8.41
5.62
2.18
-1.91
-6.39
-10.82
-14.89
-18.57
-22.14
-26.07
-30.82
-36.74
-43.88
-51.97
-60.33
-67.9
-73.38
-75.58
-73.71
-67.68
-58.12
-46.24
-33.44
-20.93
-9.56
0.29
8.52
15.15
20.21
23.72
25.78
26.69
26.96
27.21
27.97
29.48
31.56
33.76
35.62
36.82
37.41
37.58
37.53
37.24
36.49
34.99
32.59
29.42
25.83
22.26
18.99
16.05
13.2
10.05
6.22
1.59
-3.68
-9.13
-14.19
-18.42
-21.76
-24.53
-27.33
-30.85
-35.56
-41.67
-48.99
-56.92
-64.41
-70.1
-72.55
-70.67
-64.12
-53.47
-40.12
-25.77
-11.93
0.41
10.85
19.34
25.93
30.66
33.58
34.93
35.22
35.07
35.07
35.63
36.81
38.45
40.23
41.78
42.84
43.28
43.07
42.28
41.01
39.29
37.08
34.31
30.94
27.07
22.92
18.78
14.82
11.02
7.22
3.17
-1.29
-6.12
-11.15
-16.12
-20.9
-25.48
-30.09
-35.14
-41.08
-48.24
-56.6
-65.66
-74.3
-81.05
-84.39
-83.19
-77.11
-66.65
-53.06
-37.92
-22.73
-8.59
3.89
14.45
23.05
29.69
34.38
37.24
38.56
38.9
38.93
39.27
40.25
41.82
43.63
45.21
46.24
46.59
46.39
45.8
44.85
43.39
41.17
37.95
33.7
28.67
23.26
17.9
12.83
8.08
3.39
-1.57
-7.08
-13.22
-19.88
-26.83
-33.83
-40.78
-47.7
-54.79
-62.3
-70.5
-79.64
-89.87
-101.14
-112.98
-124.4
-133.93
-139.89
-140.85
-136.04
-125.56
-110.27
-91.51
-70.59
-48.61
-26.32
-4.29
16.95
36.8
54.68
70.12
82.95
93.32
101.58
108.18
113.4
117.26
119.66
120.43
119.63
117.48
114.39
110.71
106.64
102.18
97.15
91.44
85.04
78.16
71.16
64.45
58.35
52.9
47.86
42.78
37.15
30.71
23.6
16.34
9.57
3.77
-0.98
-5.05
-9.08
-13.74
-19.52
-26.6
-34.75
-43.32
-51.26
-57.22
-59.85
-58.15
-51.84
-41.43
-28.13
-13.47
1.13
14.59
26.33
36.08
43.84
49.66
53.63
55.9
56.75
56.58
55.93
55.34
55.27
55.92
57.21
58.79
60.18
60.86
60.47
58.78
55.79
51.59
46.36
40.32
33.74
26.93
20.28
14.11
8.64
3.88
-0.39
-4.54
-8.85
-13.37
-17.89
-22.06
-25.63
-28.71
-31.8
-35.58
-40.64
-47.16
-54.77
-62.6
-69.49
-74.19
-75.64
-73.17
-66.75
-57.0
-45.15
-32.6
-20.62
-9.95
-0.8
6.96
13.39
18.38
21.65
23.06
22.84
21.64
20.31
19.58
19.8
20.94
22.72
24.82
26.95
29.0
30.79
32.09
32.59
31.94
29.93
26.55
22.11
17.15
12.32
8.07
4.51
1.31
-2.09
-6.21
-11.28
-17.15
-23.46
-29.78
-35.84
-41.49
-46.69
-51.47
-55.92
-60.34
-65.12
-70.73
-77.33
-84.54
-91.36
-96.32
-97.9
-95.0
-87.33
-75.53
-61.02
-45.58
-30.91
-18.15
-7.77
0.27
6.33
10.75
13.75
15.55
16.49
17.07
17.85
19.24
21.3
23.82
26.38
28.62
30.41
31.76
32.83
33.69
34.35
34.64
34.31
33.14
31.01
28.04
24.6
21.19
18.21
15.77
13.69
11.56
9.07
6.07
2.68
-0.85
-4.38
-7.86
-11.38
-15.03
-18.87
-23.01
-27.69
-33.13
-39.39
-46.03
-52.02
-55.9
-56.32
-52.53
-44.74
-34.0
-21.87
-9.87
0.92
10.0
17.24
22.73
26.52
28.65
29.24
28.62
27.37
26.14
25.46
25.59
26.4
27.61
28.86
29.91
30.69
31.17
31.34
31.07
30.19
28.54
26.09
22.96
19.41
15.75
12.31
9.29
6.71
4.38
1.98
-0.87
-4.4
-8.55
-13.05
-17.5
-21.58
-25.17
-28.46
-31.86
-35.86
-40.84
-46.86
-53.52
-59.95
-64.9
-67.05
-65.44
-59.8
-50.67
-39.28
-27.1
-15.42
-5.06
3.62
10.55
15.78
19.3
21.21
21.74
21.38
20.78
20.6
21.27
22.84
25.01
27.28
29.16
30.35
30.82
30.73
30.32
29.72
28.9
27.72
26.0
23.66
20.84
17.81
14.89
12.34
10.24
8.39
6.45
4.06
1.01
-2.66
-6.68
-10.67
-14.37
-17.7
-20.83
-24.04
-27.65
-31.9
-36.96
-42.81
-49.16
-55.37
-60.44
-63.2
-62.64
-58.34
-50.59
-40.41
-29.16
-18.1
-8.13
0.35
7.28
12.7
16.62
19.07
20.14
20.18
19.75
19.45
19.76
20.86
22.58
24.56
26.37
27.72
28.52
28.87
28.95
28.9
28.71
28.21
27.17
25.47
23.15
20.48
17.77
15.24
12.86
10.42
7.65
4.44
0.9
-2.68
-6.01
-8.94
-11.58
-14.18
-17.05
-20.42
-24.45
-29.25
-34.88
-41.16
-47.57
-53.19
-56.79
-57.2
-53.76
-46.54
-36.42
-24.75
-12.99
-2.27
6.75
13.82
18.96
22.25
23.8
23.85
22.81
21.29
20.01
19.56
20.18
21.73
23.77
25.83
27.58
28.89
29.78
30.24
30.2
29.48
27.97
25.64
22.71
19.46
16.17
13.05
10.09
7.23
4.31
1.22
-2.07
-5.49
-8.89
-12.11
-15.1
-17.98
-21.05
-24.71
-29.33
-35.13
-42.03
-49.54
-56.75
-62.41
-65.2
-64.1
-58.74
-49.56
-37.73
-24.8
-12.2
-0.93
8.58
16.3
22.4
26.98
30.03
31.61
31.9
31.41
30.79
30.71
31.52
33.2
35.33
37.39
38.93
39.76
39.98
39.76
39.27
38.49
37.25
35.34
32.62
29.23
25.45
21.7
18.27
15.21
12.31
9.2
5.58
1.43
-2.97
-7.2
-10.9
-14.02
-16.86
-19.94
-23.83
-28.87
-35.15
-42.37
-49.97
-57.02
-62.46
-65.17
-64.26
-59.38
-50.79
-39.46
-26.72
-14.0
-2.49
7.11
14.55
19.92
23.54
25.76
26.96
27.51
27.81
28.23
29.03
30.27
31.77
33.2
34.22
34.67
34.61
34.28
33.95
33.76
33.61
33.22
32.21
30.38
27.68
24.34
20.77
17.4
14.46
11.9
9.45
6.76
3.64
0.18
-3.32
-6.54
-9.41
-12.14
-15.13
-18.8
-23.36
-28.79
-34.88
-41.15
-46.91
-51.23
-53.03
-51.47
-46.27
-37.91
-27.51
-16.47
-5.98
3.21
10.8
16.7
20.91
23.37
24.14
23.46
21.78
19.7
17.82
16.62
16.37
17.09
18.55
20.34
22.0
23.16
23.63
23.41
22.56
21.1
19.01
16.25
12.9
9.22
5.57
2.23
-0.69
-3.32
-5.96
-8.86
-12.17
-15.86
-19.74
-23.57
-27.2
-30.6
-33.94
-37.52
-41.67
-46.64
-52.36
-58.41
-64.04
-68.24
-69.97
-68.4
-63.14
-54.38
-42.93
-30.0
-16.92
-4.82
5.57
13.95
20.28
24.61
27.09
28.01
27.82
27.18
26.71
26.82
27.57
28.72
29.92
30.88
31.47
31.71
31.66
31.35
30.75
29.83
28.54
26.82
24.66
22.08
19.2
16.21
13.32
10.62
8.07
5.48
2.6
-0.7
-4.37
-8.21
-11.91
-15.21
-18.03
-20.54
-23.18
-26.51
-31.02
-36.84
-43.67
-50.74
-56.92
-61.02
-62.01
-59.24
-52.59
-42.49
-29.92
-16.14
-2.44
10.11
20.9
29.76
36.77
42.1
45.88
48.23
49.42
49.94
50.41
51.39
53.17
55.65
58.4
60.85
62.51
63.19
63.0
62.26
61.29
60.21
58.87
56.92
54.02
50.08
45.34
40.25
35.22
30.43
25.72
20.72
15.04
8.48
1.16
-6.62
-14.42
-21.87
-28.74
-35.01
-40.93
-46.92
-53.53
-61.15
-69.88
-79.28
-88.41
-95.91
-100.36
-100.63
-96.17
-87.29
-75.04
-60.96
-46.65
-33.45
-22.16
-13.07
-6.27
-1.67
0.82
1.49
0.86
-0.26
-1.0
-0.65
1.02
3.78
7.07
10.22
12.76
14.41
15.19
15.18
14.47
13.11
11.02
8.19
4.65
0.63
-3.51
-7.34
-10.59
-13.26
-15.6
-18.02
-20.84
-24.19
-27.9
-31.68
-35.23
-38.43
-41.35
-44.31
-47.78
-52.27
-58.19
-65.58
-74.04
-82.54
-89.68
-93.92
-94.02
-89.46
-80.54
-68.31
-54.28
-39.94
-26.48
-14.54
-4.33
4.22
11.21
16.71
20.8
23.71
25.86
27.82
30.07
32.81
35.97
39.25
42.38
45.2
47.72
49.99
51.97
53.53
54.46
54.57
53.7
51.76
48.82
45.08
40.96
36.98
33.57
30.92
28.79
26.69
24.01
20.34
15.59
10.0
3.97
-2.07
-7.85
-13.25
-18.38
-23.52
-29.06
-35.42
-42.84
-51.24
-60.09
-68.36
-74.67
-77.51
-75.72
-68.82
-57.3
-42.54
-26.44
-10.8
3.12
14.73
24.02
31.17
36.29
39.47
40.87
41.0
40.63
40.62
41.57
43.62
46.39
49.26
51.57
52.93
53.29
52.92
52.25
51.66
51.29
50.98
50.32
48.9
46.51
43.27
39.56
35.8
32.24
28.9
25.63
22.24
18.67
14.88
10.88
6.66
2.22
-2.39
-7.05
-11.62
-16.09
-20.62
-25.57
-31.35
-38.27
-46.24
-54.74
-62.75
-68.86
-71.68
-70.16
-64.0
-53.76
-40.65
-26.24
-11.94
1.23
12.68
22.1
29.31
34.23
36.87
37.5
36.64
35.11
33.74
33.25
33.98
35.83
38.34
40.88
42.96
44.34
45.08
45.28
44.92
43.82
41.71
38.48
34.34
29.81
25.5
21.78
18.65
15.76
12.57
8.64
3.75
-1.97
-8.09
-14.05
-19.34
-23.77
-27.52
-31.22
-35.67
-41.59
-49.31
-58.53
-68.28
-77.02
-83.0
-84.64
-81.07
-72.35
-59.53
-44.32
-28.55
-13.79
-0.97
9.49
17.55
23.3
26.98
28.91
29.57
29.59
29.62
30.14
31.37
33.27
35.5
37.6
39.15
39.9
39.88
39.42
38.93
38.69
38.64
38.37
37.33
35.2
31.98
28.06
23.91
19.92
16.19
12.6
8.94
5.11
1.1
-2.98
-6.99
-10.89
-14.66
-18.5
-22.72
-27.74
-33.99
-41.71
-50.78
-60.65
-70.33
-78.51
-83.79
-85.01
-81.54
-73.49
-61.77
-47.81
-33.16
-19.1
-6.39
4.67
13.99
21.47
26.95
30.37
31.95
32.25
32.05
32.11
32.91
34.58
36.9
39.5
41.98
44.09
45.7
46.83
47.49
47.6
47.0
45.43
42.75
39.06
34.77
30.47
26.69
23.66
21.21
18.93
16.34
13.1
9.15
4.6
-0.26
-5.15
-9.82
-14.2
-18.38
-22.73
-27.73
-33.86
-41.31
-49.83
-58.63
-66.41
-71.69
-73.09
-69.73
-61.54
-49.29
-34.44
-18.71
-3.62
9.81
21.08
30.04
36.68
41.0
43.17
43.57
42.94
42.12
41.86
42.58
44.22
46.39
48.6
50.4
51.54
51.96
51.73
50.95
49.69
47.94
45.66
42.77
39.35
35.62
31.98
28.72
25.94
23.46
20.85
17.71
13.88
9.5
4.95
0.61
-3.3
-6.83
-10.29
-14.15
-18.91
-24.93
-32.29
-40.63
-49.1
-56.39
-60.95
-61.44
-57.12
-48.09
-35.37
-20.56
-5.42
8.57
20.46
29.85
36.66
40.9
42.6
41.82
38.86
34.39
29.33
24.67
21.15
19.06
18.27
18.47
19.33
20.7
22.57
24.82
27.22
29.31
30.6
30.74
29.67
27.62
25.05
22.46
20.23
18.51
17.16
15.84
14.07
11.45
7.71
2.93
-2.58
-8.31
-13.77
-18.61
-22.8
-26.7
-30.97
-36.34
-43.3
-51.68
-60.52
-68.24
-72.99
-73.39
-68.92
-60.11
-48.29
-35.11
-22.07
-10.22
-0.15
7.91
13.92
17.99
20.35
21.36
21.49
21.24
21.08
21.34
22.19
23.58
25.37
27.37
29.42
31.44
33.35
34.89
35.64
35.02
32.48
27.77
21.06
13.02
4.57
-3.33
-10.08
-15.46
-19.66
-23.1
-26.19
-29.18
-32.11
-34.87
-37.35
-39.48
-41.43
-43.59
-46.54
-50.85
-56.82
-64.23
-72.15
-79.11
-83.51
-84.07
-80.38
-72.91
-62.86
-51.62
-40.43
-30.08
-21.12
-13.92
-8.86
-6.17
-5.77
-7.13
-9.28
-11.14
-11.88
-11.13
-9.08
-6.24
-3.21
-0.39
2.09
4.35
6.56
8.81
10.95
12.64
13.48
13.2
11.76
9.45
6.74
4.0
1.45
-0.99
-3.58
-6.53
-9.94
-13.66
-17.45
-21.08
-24.49
-27.76
-31.14
-34.87
-39.16
-44.12
-49.72
-55.73
-61.62
-66.54
-69.4
-69.16
-65.15
-57.37
-46.49
-33.72
-20.39
-7.58
4.01
14.07
22.43
28.99
33.65
36.44
37.66
37.87
37.77
38.01
38.92
40.48
42.37
44.19
45.59
46.38
46.58
46.29
45.64
44.7
43.44
41.78
39.62
36.89
33.65
30.11
26.55
23.21
20.17
17.32
14.4
11.1
7.3
3.04
-1.48
-5.97
-10.24
-14.27
-18.24
-22.47
-27.39
-33.34
-40.49
-48.62
-57.03
-64.59
-69.9
-71.72
-69.31
-62.69
-52.69
-40.64
-28.02
-16.06
-5.56
3.14
9.97
14.97
18.21
19.9
20.41
20.34
20.36
20.96
22.29
24.14
26.05
27.65
28.79
29.57
30.2
30.78
31.19
31.17
30.41
28.72
26.18
23.03
19.65
16.33
13.2
10.15
6.95
3.33
-0.79
-5.24
-9.7
-13.87
-17.65
-21.18
-24.79
-28.84
-33.61
-39.28
-45.96
-53.59
-61.83
-69.87
-76.44
-80.07
-79.56
-74.4
-65.03
-52.7
-39.02
-25.47
-13.11
-2.42
6.47
13.66
19.22
23.17
25.63
26.85
27.37
27.81
28.74
30.45
32.88
35.67
38.38
40.7
42.53
43.94
44.97
45.52
45.32
44.04
41.45
37.63
32.94
27.94
23.19
18.97
15.26
11.72
7.88
3.4
-1.81
-7.55
-13.43
-19.13
-24.46
-29.47
-34.42
-39.7
-45.81
-53.18
-62.01
-71.95
-82.04
-90.68
-96.07
-96.74
-92.05
-82.43
-69.17
-53.94
-38.29
-23.31
-9.59
2.58
13.06
21.74
28.57
33.64
37.28
40.01
42.39
44.91
47.86
51.22
54.78
58.19
61.14
63.43
65.04
66.01
66.38
66.19
65.36
63.86
61.69
58.97
55.88
52.69
49.59
46.76
44.17
41.68
39.01
35.91
32.24
28.08
23.73
19.54
15.71
12.17
8.53
4.2
-1.42
-8.8
-18.18
-29.45
-42.14
-55.34
-67.73
-77.73
-83.85
-85.09
-81.23
-72.96
-61.59
-48.69
-35.64
-23.44
-12.69
-3.77
3.07
7.67
10.04
10.5
9.71
8.52
7.8
8.07
9.48
11.74
14.35
16.8
18.77
20.19
21.11
21.68
21.92
21.8
21.25
20.23
18.84
17.24
15.65
14.2
12.9
11.6
10.0
7.8
4.8
1.01
-3.33
-7.88
-12.29
-16.39
-20.29
-24.28
-28.84
-34.39
-41.26
-49.43
-58.41
-67.16
-74.16
-77.78
-76.68
-70.32
-59.18
-44.63
-28.53
-12.68
1.61
13.66
23.3
30.55
35.5
38.26
39.19
38.92
38.33
38.29
39.34
41.51
44.3
46.96
48.85
49.7
49.66
49.15
48.53
47.9
47.05
45.61
43.29
40.04
36.1
31.81
27.47
23.21
18.99
14.69
10.25
5.59
0.72
-4.36
-9.59
-14.9
-20.16
-25.33
-30.59
-36.34
-43.1
-51.29
-60.92
-71.4
-81.54
-89.76
-94.46
-94.45
-89.22
-79.16
-65.43
-49.64
-33.39
-17.9
-3.87
8.41
18.82
27.25
33.53
37.63
39.81
40.71
41.18
42.03
43.72
46.24
49.22
52.06
54.26
55.52
55.85
55.47
54.67
53.63
52.35
50.6
48.15
44.89
40.93
36.62
32.35
28.42
24.85
21.49
17.99
14.02
9.42
4.2
-1.34
-6.82
-11.84
-16.2
-20.04
-23.8
-28.17
-33.82
-41.18
-50.27
-60.58
-71.12
-80.53
-87.26
-89.88
-87.5
-79.96
-68.08
-53.31
-37.37
-21.77
-7.53
4.87
15.3
23.75
30.22
34.71
37.4
38.71
39.28
39.8
40.82
42.54
44.76
47.0
48.74
49.61
49.62
49.1
48.52
48.21
48.17
48.03
47.2
45.19
41.79
37.2
31.9
26.46
21.33
16.7
12.49
8.43
4.21
-0.39
-5.42
-10.78
-16.22
-21.51
-26.58
-31.55
-36.8
-42.8
-49.91
-58.24
-67.4
-76.59
-84.52
-89.79
-91.17
-87.94
-80.16
-68.69
-54.91
-40.36
-26.31
-13.57
-2.51
6.71
13.99
19.16
22.17
23.24
23.03
22.5
22.63
24.05
26.85
30.6
34.55
38.0
40.51
42.03
42.76
42.96
42.75
42.02
40.58
38.27
35.16
31.55
27.86
24.42
21.3
18.38
15.34
11.86
7.76
3.03
-2.21
-7.73
-13.25
-18.53
-23.46
-28.12
-32.84
-38.1
-44.42
-52.1
-61.07
-70.76
-80.01
-87.36
-91.26
-90.56
-84.81
-74.49
-60.85
-45.51
-29.97
-15.29
-2.0
9.72
19.71
27.73
33.55
37.13
38.81
39.34
39.69
40.68
42.77
45.89
49.61
53.26
56.22
58.14
58.99
59.02
58.58
57.93
57.08
55.78
53.69
50.61
46.67
42.27
37.95
34.12
30.89
28.02
25.07
21.6
17.35
12.32
6.8
1.16
-4.27
-9.35
-14.24
-19.31
-25.05
-31.88
-40.03
-49.39
-59.38
-68.98
-76.75
-81.13
-80.82
-75.3
-65.0
-51.28
-35.93
-20.59
-6.37
6.26
17.15
26.19
33.1
37.59
39.64
39.73
38.81
37.96
38.03
39.37
41.81
44.78
47.63
49.85
51.19
51.65
51.4
50.67
49.56
47.98
45.74
42.64
38.74
34.35
30.0
26.11
22.79
19.74
16.38
12.25
7.21
1.55
-4.15
-9.35
-13.77
-17.59
-21.29
-25.55
-30.96
-37.98
-46.71
-56.84
-67.56
-77.61
-85.37
-89.25
-88.11
-81.57
-70.21
-55.37
-38.86
-22.42
-7.47
5.16
15.13
22.4
27.16
29.71
30.51
30.23
29.7
29.67
30.64
32.66
35.38
38.26
40.84
42.84
44.2
44.92
44.94
44.15
42.48
40.05
37.12
34.08
31.18
28.45
25.66
22.38
18.24
12.97
6.56
-0.75
-8.53
-16.25
-23.46
-29.87
-35.55
-40.85
-46.43
-52.95
-60.86
-70.1
-79.96
-89.12
-95.88
-98.66
-96.48
-89.29
-78.07
-64.37
-49.92
-36.06
-23.47
-12.31
-2.49
6.05
13.18
18.69
22.53
24.92
26.45
27.84
29.71
32.31
35.5
38.91
42.05
44.56
46.32
47.34
47.69
47.41
46.42
44.61
41.99
38.76
35.35
32.23
29.69
27.68
25.8
23.43
20.08
15.56
10.03
3.91
-2.35
-8.47
-14.42
-20.39
-26.74
-33.96
-42.53
-52.83
-64.8
-77.74
-90.23
-100.34
-106.12
-106.23
-100.4
-89.59
-75.62
-60.58
-46.19
-33.39
-22.41
-13.05
-5.1
1.44
6.45
9.88
12.07
13.64
15.36
17.76
20.95
24.61
28.22
31.31
33.71
35.5
36.91
38.11
39.09
39.61
39.41
38.25
36.19
33.53
30.75
28.26
26.16
24.23
21.96
18.88
14.79
9.91
4.75
-0.17
-4.46
-8.12
-11.44
-14.95
-19.25
-24.9
-32.29
-41.43
-51.74
-62.01
-70.52
-75.48
-75.57
-70.34
-60.36
-47.02
-32.07
-17.15
-3.45
8.32
17.89
25.21
30.4
33.65
35.25
35.65
35.45
35.25
35.57
36.67
38.49
40.69
42.86
44.66
45.9
46.53
46.53
45.77
44.12
41.45
37.81
33.49
28.91
24.53
20.62
17.26
14.27
11.37
8.25
4.73
0.75
-3.56
-7.98
-12.3
-16.43
-20.54
-25.0
-30.41
-37.31
-45.92
-55.94
-66.3
-75.3
-81.0
-81.72
-76.69
-66.33
-52.16
-36.23
-20.51
-6.28
5.91
16.12
24.56
31.33
36.41
39.78
41.64
42.48
42.93
43.49
44.4
45.5
46.48
47.03
47.02
46.54
45.82
45.06
44.31
43.43
42.1
40.04
37.09
33.32
29.05
24.65
20.45
16.49
12.59
8.37
3.5
-2.19
-8.6
-15.45
-22.39
-29.26
-36.13
-43.32
-51.32
-60.57
-71.3
-83.4
-96.3
-109.0
-120.08
-127.94
-131.11
-128.64
-120.44
-107.38
-91.14
-73.72
-56.87
-41.73
-28.71
-17.79
-8.86
-1.85
3.27
6.71
9.06
11.21
14.08
18.24
23.68
29.82
35.84
40.98
44.86
47.57
49.48
51.0
52.35
53.39
53.71
52.83
50.41
46.59
41.92
37.19
33.1
29.96
27.52
25.17
22.24
18.33
13.47
8.01
2.41
-3.01
-8.24
-13.54
-19.37
-26.19
-34.34
-43.94
-54.82
-66.33
-77.38
-86.48
-92.02
-92.7
-87.94
-78.11
-64.45
-48.66
-32.44
-17.04
-3.14
9.07
19.58
28.35
35.28
40.29
43.53
45.49
46.82
48.19
49.99
52.22
54.58
56.69
58.34
59.51
60.28
60.65
60.42
59.28
56.93
53.37
48.87
44.0
39.29
35.05
31.22
27.48
23.38
18.55
12.86
6.43
-0.4
-7.23
-13.74
-19.8
-25.6
-31.6
-38.4
-46.58
-56.39
-67.45
-78.67
-88.31
-94.39
-95.26
-90.16
-79.52
-64.83
-48.07
-31.12
-15.23
-0.93
11.7
22.61
31.64
38.44
42.84
45.09
45.96
46.49
47.62
49.83
52.95
56.32
59.13
60.81
61.27
60.82
60.0
59.21
58.51
57.54
55.78
52.81
48.57
43.43
38.0
32.88
28.44
24.67
21.2
17.54
13.24
8.0
1.87
-4.9
-11.91
-18.79
-25.33
-31.59
-37.85
-44.57
-52.26
-61.26
-71.6
-82.78
-93.63
-102.47
-107.37
-106.77
-100.02
-87.65
-71.21
-52.77
-34.19
-16.77
-1.13
12.5
23.94
32.99
39.44
43.39
45.38
46.31
47.24
48.95
51.69
55.19
58.82
61.87
63.91
64.86
64.94
64.47
63.63
62.31
60.2
56.96
52.47
46.93
40.74
34.34
27.94
21.51
14.72
7.2
-1.31
-10.86
-21.22
-31.94
-42.45
-52.25
-61.06
-68.93
-76.21
-83.46
-91.25
-100.02
-110.01
-121.2
-133.21
-145.21
-155.79
-163.21
-165.73
-162.23
-152.63
-137.99
-120.11
-100.92
-81.86
-63.72
-46.73
-30.91
-16.41
-3.52
7.43
16.39
23.68
29.91
35.81
41.89
48.27
54.69
60.64
65.61
69.32
71.79
73.21
73.8
73.64
72.62
70.59
67.54
63.68
59.41
55.16
51.14
47.34
43.53
39.44
34.9
29.97
24.82
19.72
14.88
10.36
6.0
1.44
-3.86
-10.38
-18.4
-27.68
-37.44
-46.37
-52.97
-55.83
-54.04
-47.41
-36.53
-22.58
-7.08
8.49
22.94
35.56
46.0
54.2
60.25
64.3
66.64
67.7
68.06
68.32
68.94
70.11
71.76
73.62
75.43
76.92
77.98
78.52
78.52
77.93
76.7
74.79
72.18
68.87
64.94
60.55
55.89
51.13
46.34
41.42
36.22
30.58
24.48
18.15
11.95
6.24
1.16
-3.47
-8.11
-13.38
-19.84
-27.76
-36.98
-46.87
-56.36
-64.06
-68.57
-68.73
-63.98
-54.61
-41.72
-26.95
-12.0
1.81
13.79
23.8
32.01
38.56
43.45
46.66
48.3
48.76
48.66
48.63
49.03
49.88
50.89
51.7
52.08
52.0
51.56
50.88
49.95
48.69
46.92
44.49
41.35
37.55
33.26
28.71
24.21
19.98
16.09
12.36
8.46
4.05
-1.02
-6.61
-12.32
-17.67
-22.32
-26.25
-29.76
-33.42
-37.86
-43.6
-50.84
-59.35
-68.39
-76.72
-82.88
-85.45
-83.51
-76.94
-66.42
-53.32
-39.21
-25.54
-13.29
-2.92
5.48
12.01
16.77
19.86
21.5
22.1
22.26
22.63
23.66
25.46
27.78
30.15
32.14
33.54
34.36
34.74
34.77
34.35
33.31
31.48
28.85
25.57
21.99
18.41
15.05
11.95
8.95
5.81
2.28
-1.73
-6.17
-10.78
-15.31
-19.53
-23.45
-27.27
-31.37
-36.19
-42.08
-49.17
-57.24
-65.57
-72.97
-77.95
-79.15
-75.78
-67.99
-56.83
-43.95
-31.03
-19.25
-9.16
-0.72
6.23
11.74
15.68
17.89
18.5
18.01
17.25
17.01
17.8
19.65
22.21
24.97
27.45
29.43
30.9
31.94
32.53
32.55
31.76
29.98
27.27
23.94
20.51
17.45
14.94
12.81
10.57
