0
7.01
2.28
-2.66
-7.67
-12.76
-18.1
-23.98
-30.67
-38.31
-46.71
-55.18
-62.45
-66.9
-66.91
-61.47
-50.63
-35.61
-18.51
-1.69
12.97
24.38
32.32
37.13
39.28
39.23
37.36
34.1
30.1
26.12
22.89
20.92
20.32
20.82
21.89
22.89
23.23
22.48
20.48
17.26
13.02
8.04
2.59
-3.12
-8.95
-14.83
-20.76
-26.87
-33.44
-40.82
-49.3
-58.75
-68.4
-76.73
-81.75
-81.56
-75.06
-62.4
-45.11
-25.6
-6.47
10.22
23.36
32.82
39.03
42.58
43.97
43.55
41.7
38.99
36.18
34.01
32.96
33.09
34.01
35.14
35.93
36.09
35.5
34.15
31.93
28.69
24.23
18.56
11.93
4.85
-2.14
-8.55
-14.25
-19.47
-24.75
-30.77
-38.07
-46.69
-56.01
-64.67
-70.81
-72.67
-69.06
-59.83
-45.96
-29.24
-11.84
4.34
17.97
28.4
35.57
39.77
41.43
41.12
39.4
36.94
34.45
32.55
31.66
31.88
32.93
34.32
35.53
36.19
36.16
35.48
34.23
32.34
29.61
25.77
20.73
14.64
7.99
1.35
-4.76
-10.16
-15.07
-20.0
-25.61
-32.45
-40.67
-49.9
-59.07
-66.57
-70.56
-69.45
-62.47
-50.02
-33.67
-15.7
1.52
16.19
27.41
35.11
39.75
41.94
42.17
40.79
38.16
34.79
31.34
28.54
26.95
26.78
27.81
29.49
31.12
32.05
31.85
30.31
27.47
23.48
18.57
13.03
7.15
1.2
-4.65
-10.32
-15.94
-21.77
-28.26
-35.66
-43.85
-52.05
-58.81
-62.3
-60.89
-53.78
-41.39
-25.33
-7.91
8.48
22.0
31.73
37.59
40.05
39.81
37.56
33.93
29.58
25.21
21.55
19.2
18.45
19.15
20.76
22.58
23.86
24.1
22.97
20.37
16.38
11.23
5.34
-0.79
-6.71
-12.19
-17.26
-22.3
-27.79
-34.27
-42.06
-51.09
-60.76
-69.81
-76.44
-78.76
-75.37
-65.92
-51.39
-33.81
-15.66
0.93
14.62
24.96
32.17
36.64
38.82
39.1
37.89
35.7
33.09
30.56
28.5
27.1
26.4
26.31
26.66
27.15
27.39
27.01
25.66
23.12
19.36
14.54
9.02
3.24
-2.38
-7.56
-12.31
-16.92
-21.91
-27.89
-35.29
-44.09
-53.57
-62.31
-68.38
-69.85
-65.5
-55.25
-40.33
-22.9
-5.39
10.25
22.87
32.12
38.18
41.39
42.12
40.83
38.16
34.94
32.04
30.12
29.44
29.84
30.89
32.08
33.05
33.57
33.56
32.96
31.69
29.59
26.48
22.29
17.07
11.06
4.63
-1.83
-8.03
-13.88
-19.54
-25.38
-31.85
-39.31
-47.68
-56.31
-63.91
-68.79
-69.32
-64.49
-54.38
-40.18
-23.88
-7.65
6.77
18.36
26.9
32.58
35.81
36.92
36.26
34.25
31.44
28.52
26.09
24.61
24.21
24.75
25.91
27.3
28.53
29.25
29.08
27.71
24.96
20.79
15.47
9.43
3.25
-2.55
-7.7
-12.21
-16.35
-20.64
-25.6
-31.58
-38.47
-45.64
-51.81
-55.33
-54.67
-48.89
-38.17
-23.78
-7.83
7.44
20.2
29.45
35.08
37.54
37.52
35.59
32.25
27.93
23.21
18.8
15.43
13.62
13.44
14.49
16.03
17.19
17.31
16.04
13.42
9.77
5.49
0.94
-3.65
-8.24
-12.89
-17.8
-23.17
-29.22
-36.1
-43.77
-51.81
-59.3
-64.85
-66.88
-64.08
-55.94
-43.07
-27.13
-10.37
5.02
17.55
26.54
32.11
34.76
35.08
33.55
30.65
26.9
22.98
19.59
17.33
16.53
17.13
18.69
20.54
21.93
22.2
20.94
18.08
13.89
8.84
3.42
-2.06
-7.48
-12.96
-18.69
-24.86
-31.71
-39.38
-47.82
-56.58
-64.62
-70.37
-72.12
-68.57
-59.45
-45.68
-29.19
-12.3
3.0
15.45
24.67
30.9
34.62
36.28
36.22
34.75
32.3
29.48
27.03
25.55
25.36
26.27
27.72
28.98
29.4
28.67
26.76
23.89
20.29
16.14
11.52
6.46
1.01
-4.71
-10.6
-16.65
-22.99
-29.86
-37.45
-45.67
-53.82
-60.63
-64.45
-63.75
-57.72
-46.68
-32.1
-16.13
-0.91
12.01
21.97
29.03
33.59
36.05
36.64
35.55
33.13
29.97
26.86
24.54
23.52
23.86
25.23
27.03
28.59
29.4
29.09
27.56
24.83
21.08
16.55
11.51
6.23
0.96
-4.13
-9.08
-14.17
-19.85
-26.6
-34.53
-43.16
-51.23
-56.94
-58.49
-54.73
-45.65
-32.4
-17.0
-1.67
11.8
22.35
29.72
34.16
36.14
36.09
34.41
31.45
27.73
23.96
20.89
19.16
19.04
20.29
22.25
24.03
24.85
24.25
22.2
18.98
15.0
10.62
6.06
1.38
-3.52
-8.72
-14.39
-20.69
-27.75
-35.58
-43.8
-51.63
-57.73
-60.55
-58.74
-51.75
-40.04
-25.12
-9.07
6.09
18.87
28.59
35.22
39.07
40.55
40.06
38.01
34.96
31.62
28.65
26.61
25.71
25.81
26.55
27.44
27.99
27.79
26.56
24.16
20.58
15.98
10.59
4.76
-1.2
-7.01
-12.51
-17.72
-22.86
-28.38
-34.76
-42.24
-50.5
-58.49
-64.58
-66.98
-64.35
-56.34
-43.72
-28.19
-11.79
3.6
16.69
26.92
34.24
38.95
41.41
42.06
41.33
39.75
37.9
36.37
35.57
35.63
36.35
37.31
38.04
38.25
37.89
37.04
35.79
34.03
31.48
27.82
22.95
17.08
10.74
4.52
-1.15
-6.16
-10.73
-15.36
-20.58
-26.88
-34.52
-43.31
-52.48
-60.66
-66.15
-67.32
-63.2
-53.83
-40.34
-24.56
-8.52
6.12
18.28
27.56
33.96
37.71
39.09
38.44
36.23
33.13
29.94
27.45
26.16
26.16
27.14
28.54
29.82
30.61
30.77
30.25
29.0
26.85
23.63
19.29
14.0
8.22
2.47
-2.79
-7.37
-11.36
-15.14
-19.19
-24.04
-30.01
-37.08
-44.75
-51.96
-57.26
-59.17
-56.58
-49.19
-37.67
-23.52
-8.62
5.22
16.71
25.21
30.68
33.43
33.92
32.62
29.99
26.54
22.89
19.65
17.36
16.35
16.61
17.85
19.48
20.86
21.44
20.86
18.99
15.94
11.93
7.27
2.26
-2.84
-7.8
-12.51
-16.92
-21.19
-25.65
-30.74
-36.8
-43.79
-51.03
-57.23
-60.69
-59.93
-54.18
-43.76
-30.06
-15.06
-0.78
11.33
20.6
26.99
30.82
32.51
32.43
30.93
28.5
25.78
23.42
21.9
21.4
21.72
22.43
23.1
23.46
23.43
23.02
22.22
20.84
18.6
15.24
10.64
4.96
-1.42
-7.98
-14.2
-19.77
-24.65
-29.15
-33.83
-39.36
-46.15
-54.09
-62.34
-69.44
-73.59
-73.19
-67.42
-56.6
-42.06
-25.84
-10.03
3.82
14.99
23.42
29.48
33.51
35.7
36.13
35.03
32.92
30.63
29.01
28.64
29.57
31.32
33.11
34.19
34.11
32.79
30.5
27.65
24.51
21.2
17.58
13.44
8.65
3.25
-2.47
-8.08
-13.2
-17.59
-21.27
-24.49
-27.68
-31.35
-36.0
-41.99
-49.39
-57.79
-66.17
-72.98
-76.43
-75.09
-68.32
-56.6
-41.43
-24.85
-8.83
5.14
16.35
24.68
30.36
33.72
35.02
34.51
32.6
29.93
27.31
25.56
25.2
26.24
28.2
30.32
31.86
32.39
31.9
30.63
28.86
26.76
24.23
21.08
17.12
12.31
6.82
1.03
-4.62
-9.71
-14.01
-17.55
-20.6
-23.64
-27.15
-31.58
-37.12
-43.75
-51.09
-58.31
-64.15
-67.12
-65.87
-59.67
-48.8
-34.56
-18.94
-4.01
8.68
18.34
24.96
28.93
30.66
30.5
28.75
25.87
22.56
19.69
17.97
17.71
18.72
20.45
22.2
23.48
24.08
23.98
23.21
21.64
19.08
15.39
10.58
4.95
-1.02
-6.81
-12.07
-16.76
-21.13
-25.68
-31.03
-37.66
-45.67
-54.65
-63.46
-70.49
-73.94
-72.47
-65.58
-53.9
-39.03
-22.97
-7.57
5.95
17.02
25.59
31.72
35.43
36.73
35.82
33.28
30.0
26.98
24.99
24.32
24.79
25.87
27.0
27.74
27.87
27.37
26.24
24.42
21.75
18.01
13.1
7.09
0.3
-6.74
-13.39
-19.22
-24.05
-28.11
-32.04
-36.62
-42.59
-50.32
-59.52
-69.11
-77.34
-82.19
-81.94
-75.74
-63.96
-48.1
-30.29
-12.67
3.17
16.43
26.94
34.85
40.3
43.34
44.05
42.76
40.18
37.28
35.0
33.95
34.24
35.48
37.05
38.37
39.08
39.13
38.64
37.68
36.2
33.92
30.49
25.65
19.45
12.24
4.61
-2.71
-9.19
-14.65
-19.27
-23.62
-28.46
-34.52
-42.18
-51.3
-60.97
-69.65
-75.41
-76.52
-71.93
-61.61
-46.65
-28.92
-10.6
6.34
20.47
31.11
38.19
42.05
43.24
42.37
40.08
37.08
34.11
31.83
30.74
30.93
32.1
33.64
34.98
35.73
35.84
35.44
34.6
33.2
30.9
27.36
22.43
16.32
9.57
2.86
-3.27
-8.59
-13.3
-17.94
-23.25
-29.86
-38.04
-47.4
-56.81
-64.57
-68.81
-68.0
-61.45
-49.63
-33.99
-16.63
0.22
14.76
25.89
33.3
37.24
38.29
37.07
34.2
30.32
26.06
22.16
19.28
17.85
17.92
19.17
21.02
22.78
23.89
23.97
22.83
20.39
16.7
11.87
6.15
-0.08
-6.4
-12.45
-18.11
-23.56
-29.24
-35.74
-43.44
-52.24
-61.32
-69.12
-73.66
-73.11
-66.43
-53.83
-36.77
-17.59
1.14
17.35
29.79
38.1
42.57
43.79
42.47
39.31
35.03
30.38
26.06
22.59
20.28
19.17
19.07
19.68
20.61
21.46
21.79
21.21
19.41
16.27
11.84
6.37
0.19
-6.33
-12.91
-19.38
-25.82
-32.47
-39.78
-48.16
-57.75
-67.99
-77.55
-84.38
-86.31
-81.81
-70.54
-53.69
-33.57
-13.02
5.5
20.43
31.25
38.18
41.85
42.93
42.04
39.76
36.79
33.84
31.58
30.47
30.57
31.63
33.14
34.58
35.58
35.9
35.46
34.08
31.56
27.67
22.3
15.69
8.37
1.03
-5.79
-11.9
-17.59
-23.52
-30.44
-38.84
-48.63
-58.95
-68.21
-74.4
-75.6
-70.59
-59.36
-43.15
-24.2
-5.04
12.13
25.94
35.93
42.3
45.56
46.25
44.93
42.22
38.89
35.81
33.72
33.0
33.59
35.04
36.74
38.16
38.93
38.84
37.74
35.46
31.9
27.03
21.07
14.38
7.46
0.71
-5.61
-11.51
-17.25
-23.33
-30.33
-38.68
-48.32
-58.44
-67.42
-73.19
-73.82
-68.21
-56.55
-40.3
-21.79
-3.51
12.53
25.15
33.97
39.17
41.16
40.4
37.37
32.71
27.27
22.07
18.11
16.08
16.22
18.18
21.19
24.28
26.57
27.42
26.54
24.0
20.13
15.39
10.18
4.79
-0.72
-6.46
-12.62
-19.45
-27.19
-35.96
-45.55
-55.26
-63.74
-69.13
-69.59
-63.89
-52.04
-35.47
-16.6
1.77
17.41
29.1
36.64
40.55
41.55
40.22
37.04
32.55
27.5
22.85
19.5
18.04
18.45
20.14
22.16
23.54
23.57
21.98
18.91
14.76
10.02
4.99
-0.23
-5.81
-12.06
-19.26
-27.63
-37.18
-47.71
-58.64
-68.88
-76.84
-80.69
-78.82
-70.53
-56.4
-38.22
-18.53
0.25
16.34
28.96
38.08
44.07
47.31
48.12
46.78
43.75
39.71
35.51
31.97
29.64
28.74
29.03
30.01
30.97
31.28
30.47
28.31
24.86
20.34
15.1
9.43
3.57
-2.43
-8.68
-15.41
-22.96
-31.61
-41.4
-51.86
-61.87
-69.72
-73.47
-71.55
-63.35
-49.51
-31.87
-12.94
4.88
19.84
31.2
39.0
43.73
46.0
46.26
44.91
42.36
39.19
36.05
33.6
32.29
32.24
33.22
34.72
36.13
36.86
36.46
34.67
31.46
26.98
21.54
15.5
9.15
2.71
-3.75
-10.28
-17.06
-24.38
-32.52
-41.5
-50.83
-59.32
-65.17
-66.52
-62.07
-51.64
-36.41
-18.59
-0.73
15.0
27.29
35.76
40.68
42.6
42.06
39.51
35.4
30.33
25.09
20.64
17.83
17.07
18.26
20.72
23.43
25.41
25.99
24.96
22.52
19.07
14.98
10.46
5.54
0.18
-5.68
-12.08
-19.1
-26.82
-35.21
-43.97
-52.19
-58.45
-61.05
-58.54
-50.37
-37.21
-20.81
-3.51
12.48
25.62
35.26
41.47
44.67
45.3
43.72
40.3
35.53
30.17
25.13
21.3
19.27
19.1
20.29
21.96
23.08
22.88
21.01
17.61
13.06
7.82
2.19
-3.71
-9.88
-16.43
-23.52
-31.31
-40.0
-49.55
-59.5
-68.73
-75.57
-78.18
-75.11
-65.91
-51.37
-33.36
-14.29
3.58
18.66
30.21
38.27
43.25
45.6
45.72
43.95
40.78
36.92
33.22
30.47
29.09
29.07
29.99
31.23
32.22
32.54
31.94
30.27
27.41
23.34
18.17
12.15
5.68
-0.9
-7.33
-13.62
-20.03
-26.95
-34.76
-43.64
-53.22
-62.49
-69.78
-73.15
-71.01
-62.68
-48.79
-31.14
-12.14
5.87
21.22
33.16
41.64
46.98
49.59
49.8
48.04
44.9
41.21
37.89
35.65
34.84
35.27
36.31
37.24
37.48
36.82
35.39
33.41
31.01
28.06
24.21
19.11
12.69
5.31
-2.34
-9.46
-15.46
-20.2
-24.01
-27.58
-31.73
-37.14
-44.15
-52.49
-61.2
-68.7
-73.09
-72.65
-66.44
-54.7
-38.8
-20.93
-3.41
11.93
24.04
32.65
37.96
40.33
40.22
38.13
34.77
31.07
27.96
26.12
25.81
26.8
28.47
30.15
31.31
31.71
31.33
30.24
28.43
25.81
22.22
17.59
12.06
5.99
-0.13
-5.88
-11.05
-15.75
-20.37
-25.44
-31.46
-38.65
-46.69
-54.61
-60.85
-63.66
-61.59
-54.08
-41.76
-26.3
-9.94
5.16
17.45
26.25
31.54
33.76
33.51
31.44
28.17
24.4
20.79
17.92
16.24
15.87
16.72
18.41
20.4
22.1
22.98
22.69
21.04
18.01
13.69
8.31
2.18
-4.27
-10.61
-16.5
-21.86
-26.93
-32.23
-38.41
-45.92
-54.75
-64.16
-72.7
-78.52
-79.75
-75.19
-64.69
-49.38
-31.38
-13.15
3.22
16.49
26.4
33.29
37.67
39.89
40.18
38.77
36.2
33.31
31.01
29.85
29.89
30.66
31.45
31.69
31.2
30.16
28.9
27.54
25.98
23.74
20.28
15.26
8.77
1.36
-6.09
-12.79
-18.27
-22.62
-26.42
-30.49
-35.66
-42.42
-50.75
-59.92
-68.54
-74.71
-76.52
-72.63
-62.83
-48.19
-30.77
-12.95
3.27
16.75
27.16
34.72
39.72
42.36
42.79
41.27
38.43
35.2
32.55
31.22
31.44
32.89
34.84
36.46
37.14
36.69
35.33
33.49
31.48
29.3
26.61
22.91
17.83
11.41
4.21
-2.99
-9.45
-14.82
-19.27
-23.33
-27.68
-32.86
-39.18
-46.62
-54.84
-63.1
-70.16
-74.47
-74.48
-69.19
-58.61
-43.86
-26.91
-9.96
5.13
17.23
25.92
31.3
33.73
33.68
31.7
28.49
24.85
21.57
19.24
18.18
18.37
19.54
21.29
23.21
24.92
26.07
26.38
25.57
23.47
20.02
15.33
9.68
3.49
-2.76
-8.68
-14.05
-18.97
-23.76
-28.96
-35.05
-42.27
-50.34
-58.27
-64.5
-67.16
-64.75
-56.58
-43.19
-26.31
-8.33
8.37
22.02
31.82
37.77
40.45
40.54
38.67
35.4
31.34
27.15
23.46
20.75
19.23
18.76
19.04
19.71
20.47
21.06
21.21
20.54
18.68
15.3
10.34
4.03
-3.15
-10.61
-17.87
-24.66
-31.01
-37.26
-43.92
-51.47
-60.09
-69.38
-78.23
-84.86
-87.33
-84.09
-74.66
-59.86
-41.65
-22.49
-4.58
10.58
22.46
31.13
36.96
40.25
41.26
40.33
38.06
35.3
32.97
31.69
31.59
32.31
33.27
33.98
34.24
34.08
33.61
32.78
31.32
28.8
24.86
19.44
12.83
5.59
-1.65
-8.37
-14.38
-19.79
-24.99
-30.57
-37.12
-44.99
-54.03
-63.39
-71.51
-76.47
-76.47
-70.5
-58.74
-42.58
-24.25
-6.11
10.01
23.06
32.83
39.53
43.52
45.05
44.38
42.0
38.65
35.3
32.83
31.74
31.98
33.05
34.28
35.1
35.34
35.07
34.52
33.79
32.69
30.75
27.48
22.52
15.96
8.31
0.43
-6.84
-12.93
-17.81
-21.99
-26.32
-31.69
-38.64
-47.15
-56.49
-65.26
-71.69
-73.97
-70.83
-61.88
-47.89
-30.69
-12.64
3.94
17.43
27.11
33.1
35.97
36.38
34.85
31.79
27.68
23.21
19.27
16.64
15.79
16.69
18.83
21.45
23.83
25.39
25.78
24.88
22.65
19.17
14.6
9.19
3.21
-3.08
-9.47
-15.9
-22.42
-29.25
-36.64
-44.67
-52.92
-60.38
-65.47
-66.43
-62.0
-51.88
-37.03
-19.44
-1.49
14.65
27.5
36.49
41.72
43.66
42.93
40.11
35.75
30.55
25.27
20.72
17.6
16.32
16.79
18.51
20.67
22.34
22.8
21.61
18.74
14.41
9.03
3.04
-3.21
-9.51
-15.82
-22.28
-29.13
-36.65
-45.12
-54.58
-64.65
-74.28
-81.78
-85.16
-82.68
-73.53
-58.31
-38.93
-18.1
1.48
17.87
30.17
38.4
43.13
45.03
44.75
42.9
40.09
37.03
34.32
32.4
31.39
31.15
31.42
31.89
32.3
32.39
31.87
30.45
27.92
24.22
19.46
13.91
7.9
1.7
-4.53
-10.76
-17.11
-23.84
-31.3
-39.72
-49.03
-58.57
-66.98
-72.42
-73.06
-67.69
-56.27
-40.06
-21.24
-2.3
14.62
28.16
37.87
43.93
46.86
47.25
45.7
42.86
39.47
36.33
34.13
33.19
33.45
34.44
35.52
36.16
36.11
35.35
34.02
32.14
29.5
25.76
20.66
14.23
6.92
-0.59
-7.62
-13.78
-19.12
-24.12
-29.51
-35.98
-43.84
-52.76
-61.6
-68.62
-71.84
-69.69
-61.6
-48.24
-31.4
-13.41
3.51
17.8
28.7
36.14
40.37
41.77
40.72
37.7
33.35
28.49
24.02
20.69
18.99
18.94
20.18
22.03
23.74
24.64
24.35
22.77
20.04
16.41
12.08
7.21
1.9
-3.76
-9.63
-15.67
-21.93
-28.69
-36.28
-44.81
-53.81
-62.02
-67.57
-68.54
-63.67
-52.9
-37.58
-19.94
-2.5
12.78
24.79
33.24
38.33
40.44
39.88
37.05
32.6
27.43
22.6
19.06
17.32
17.39
18.84
21.02
23.17
24.63
24.83
23.37
20.14
15.32
9.4
2.98
-3.45
-9.67
-15.83
-22.28
-29.47
-37.77
-47.31
-57.81
-68.4
-77.61
-83.56
-84.36
-78.82
-66.92
-49.99
-30.36
-10.65
6.9
20.93
31.07
37.61
41.18
42.47
42.08
40.56
38.38
36.05
33.97
32.48
31.76
31.8
32.44
33.39
34.25
34.6
34.06
32.32
29.25
24.79
19.11
12.48
5.32
-1.92
-8.89
-15.41
-21.53
-27.58
-34.06
-41.4
-49.67
-58.35
-66.2
-71.44
-72.29
-67.55
-57.08
-42.02
-24.36
-6.38
10.01
23.64
34.1
41.44
45.83
47.49
46.7
43.99
40.25
36.52
33.75
32.47
32.68
33.91
35.48
36.78
37.48
37.47
36.82
35.61
33.82
31.22
27.57
22.66
16.53
9.57
2.42
-4.2
-9.83
-14.46
-18.57
-22.95
-28.46
-35.61
-44.43
-54.26
-63.88
-71.57
-75.47
-74.09
-66.77
-54.0
-37.41
-19.28
-1.95
12.89
24.36
32.35
37.15
39.14
38.73
36.42
32.94
29.23
26.25
24.68
24.69
25.97
27.85
29.65
30.89
31.39
31.14
30.21
28.53
25.91
22.11
16.97
10.65
3.59
-3.57
-10.17
-15.86
-20.7
-25.22
-30.18
-36.22
-43.55
-51.65
-59.29
-64.73
-66.23
-62.52
-53.35
-39.54
-22.88
-5.6
10.19
22.98
32.03
37.34
39.34
38.69
36.11
32.36
28.23
24.53
21.9
20.69
20.87
22.06
23.7
25.21
26.07
25.91
24.48
21.67
17.52
12.3
6.39
0.21
-5.9
-11.81
-17.59
-23.46
-29.73
-36.76
-44.77
-53.74
-63.15
-71.84
-78.15
-80.32
-77.04
-67.95
-53.88
-36.59
-18.31
-1.09
13.6
25.03
33.03
37.79
39.65
39.06
36.6
33.05
29.35
26.43
24.89
24.88
26.05
27.71
29.2
30.1
30.28
29.81
28.71
26.82
23.88
19.63
14.08
7.5
0.45
-6.53
-12.99
-18.78
-24.05
-29.21
-34.89
-41.68
-49.92
-59.33
-68.79
-76.43
-80.12
-78.19
-70.01
-56.34
-39.03
-20.42
-2.65
12.8
25.29
34.74
41.36
45.37
46.95
46.4
44.23
41.25
38.4
36.49
35.93
36.67
38.21
39.83
40.95
41.31
40.9
39.88
38.31
36.04
32.76
28.19
22.33
15.44
8.09
0.89
-5.68
-11.39
-16.38
-21.07
-26.08
-32.09
-39.54
-48.39
-57.91
-66.69
-72.88
-74.75
-71.12
-61.87
-47.9
-30.97
-13.16
3.6
17.92
29.03
36.76
41.29
42.98
42.24
39.61
35.84
31.9
28.87
27.55
28.22
30.46
33.36
35.94
37.51
37.88
37.26
35.9
33.9
31.06
27.1
21.86
15.49
8.5
1.51
-4.95
-10.57
-15.4
-19.81
-24.4
-29.84
-36.65
-44.84
-53.75
-61.94
-67.52
-68.64
-64.16
-54.05
-39.46
-22.43
-5.21
10.3
22.93
32.21
38.21
41.21
41.54
39.58
35.92
31.36
26.85
23.32
21.32
20.99
21.99
23.73
25.61
27.1
27.82
27.46
25.79
22.66
18.14
12.53
6.3
-0.02
-6.08
-11.74
-17.09
-22.41
-28.08
-34.58
-42.25
-51.1
-60.47
-68.9
-74.43
-75.07
-69.59
-58.07
-41.92
-23.5
-5.26
10.87
23.8
33.23
39.29
42.21
42.32
40.07
36.16
31.57
27.31
24.2
22.59
22.34
22.93
23.77
24.39
24.56
24.29
23.55
22.2
19.91
16.35
11.37
5.2
-1.56
-8.19
-14.12
-19.22
-23.82
-28.59
-34.27
-41.42
-50.18
-60.1
-70.02
-78.22
-82.65
-81.56
-74.09
-60.66
-42.95
-23.45
-4.68
11.49
24.12
33.1
38.8
41.69
42.19
40.79
38.16
35.15
32.64
31.23
31.07
31.85
33.03
34.09
34.75
35.0
34.9
34.48
33.52
31.62
28.35
23.51
17.25
10.1
2.79
-3.97
-9.76
-14.64
-19.06
-23.75
-29.45
-36.61
-45.21
-54.58
-63.39
-69.87
-72.17
-68.9
-59.63
-45.17
-27.4
-8.75
8.48
22.6
32.82
39.12
41.92
41.87
39.66
36.05
31.85
27.91
24.95
23.41
23.35
24.48
26.27
28.15
29.66
30.51
30.6
29.86
28.24
25.63
21.89
16.96
11.0
4.43
-2.21
-8.43
-13.95
-18.9
-23.79
-29.31
-36.05
-44.12
-52.93
-61.11
-66.76
-68.04
-63.69
-53.63
-39.04
-22.03
-5.05
9.87
21.5
29.48
34.0
35.54
34.57
31.6
27.24
22.29
17.63
14.06
12.09
11.83
13.01
15.09
17.39
19.22
20.0
19.32
17.13
13.62
9.19
4.29
-0.78
-5.9
-11.1
-16.54
-22.47
-29.12
-36.71
-45.26
-54.33
-62.85
-69.22
-71.58
-68.49
-59.5
-45.44
-28.18
-10.14
6.45
20.03
29.93
36.2
39.3
39.8
38.25
35.11
30.9
26.28
21.98
18.74
17.1
17.18
18.62
20.66
22.38
23.01
22.11
19.63
15.89
11.27
6.15
0.78
-4.76
-10.45
-16.34
-22.51
-29.13
-36.47
-44.75
-53.89
-63.26
-71.51
-76.77
-77.12
-71.3
-59.28
-42.38
-23.0
-3.86
12.8
25.71
34.72
40.36
43.4
44.51
44.13
42.63
40.43
38.08
36.08
34.71
33.93
33.43
32.85
31.99
30.8
29.3
27.43
24.91
21.46
16.9
11.33
5.13
-1.18
-7.23
-12.84
-18.15
-23.46
-29.22
-35.81
-43.48
-52.07
-60.88
-68.58
-73.4
-73.67
-68.38
-57.6
-42.6
-25.46
-8.45
6.54
18.44
26.92
32.25
34.9
35.36
34.11
31.67
28.67
25.87
24.01
23.61
24.76
27.13
30.07
32.84
34.86
35.78
35.47
33.92
31.14
27.16
22.12
16.27
10.04
3.89
-1.85
-7.06
-11.94
-16.98
-22.77
-29.76
-37.93
-46.51
-54.03
-58.56
-58.32
-52.38
-41.08
-25.99
-9.45
6.21
19.29
29.0
35.34
38.69
39.51
38.12
34.88
30.33
25.25
20.61
17.3
15.86
16.32
18.2
20.71
22.94
24.14
23.82
21.86
18.42
13.83
8.49
2.72
-3.24
-9.26
-15.39
-21.79
-28.77
-36.58
-45.25
-54.3
-62.61
-68.51
-70.25
-66.57
-57.21
-43.07
-26.03
-8.37
7.85
21.21
31.1
37.52
40.83
41.5
39.95
36.65
32.19
27.33
22.92
19.76
18.31
18.57
20.04
21.91
23.26
23.36
21.78
18.51
13.81
8.16
2.06
-4.06
-9.9
-15.42
-20.79
-26.42
-32.82
-40.44
-49.41
-59.33
-69.14
-77.2
-81.63
-80.78
-73.82
-61.03
-43.92
-24.75
-5.93
10.6
23.76
33.34
39.68
43.31
44.71
44.32
42.59
40.14
37.69
35.91
35.15
35.37
36.19
37.15
37.87
38.2
38.12
37.59
36.39
34.17
30.56
25.46
19.1
12.06
5.03
-1.45
-7.17
-12.35
-17.48
-23.21
-30.12
-38.49
-48.1
-58.05
-66.76
-72.27
-72.76
-67.22
-55.82
-39.99
-21.97
-4.1
11.79
24.71
34.44
41.2
45.3
46.99
46.57
44.46
41.38
38.26
35.97
35.03
35.46
36.81
38.4
39.59
40.05
39.78
38.99
37.77
35.97
33.19
29.01
23.28
16.32
8.87
1.77
-4.37
-9.46
-13.9
-18.39
-23.65
-30.14
-37.96
-46.77
-55.73
-63.52
-68.42
-68.77
-63.48
-52.57
-37.29
-19.85
-2.74
11.99
23.2
30.66
34.78
36.2
35.47
33.1
29.55
25.44
21.46
18.34
16.56
16.34
17.48
19.48
21.69
23.53
24.54
24.48
23.25
20.84
17.29
12.72
7.33
1.47
-4.47
-10.19
-15.53
-20.72
-26.22
-32.58
-40.13
-48.61
-56.94
-63.39
-66.01
-63.22
-54.5
-40.6
-23.42
-5.43
11.06
24.39
33.89
39.64
42.18
42.16
40.2
36.88
32.83
28.74
25.29
22.98
21.98
22.1
22.89
23.81
24.4
24.3
23.32
21.29
18.13
13.87
8.68
2.83
-3.37
-9.61
-15.75
-21.77
-27.85
-34.27
-41.44
-49.61
-58.66
-67.78
-75.41
-79.6
-78.56
-71.43
-58.67
-41.95
-23.65
-6.04
9.24
21.35
30.19
36.0
39.15
40.05
39.22
37.3
35.01
33.03
31.79
31.39
31.69
32.38
33.14
33.75
34.08
34.08
33.57
32.31
29.95
26.18
20.94
14.48
7.37
0.25
-6.34
-12.23
-17.6
-22.95
-28.92
-36.04
-44.47
-53.75
-62.78
-69.85
-73.1
-71.05
-63.17
-50.08
-33.48
-15.57
1.54
16.3
27.93
36.27
41.48
43.88
43.82
41.81
38.54
34.89
31.78
29.93
29.6
30.52
31.96
33.09
33.28
32.37
30.66
28.61
26.45
24.03
20.84
16.4
10.61
3.84
-3.13
-9.52
-14.87
-19.22
-22.92
-26.54
-30.59
-35.46
-41.36
-48.14
-55.2
-61.31
-64.88
-64.28
-58.5
-47.52
-32.48
-15.35
1.59
16.36
27.73
35.25
39.17
40.08
38.66
35.5
31.23
26.52
22.14
18.85
17.19
17.31
18.88
21.29
23.83
25.92
27.15
27.27
26.12
23.6
19.71
14.67
8.87
2.82
-2.98
-8.22
-12.89
-17.26
-21.87
-27.35
-34.12
-42.1
-50.48
-57.75
-62.04
-61.66
-55.7
-44.46
-29.34
-12.52
3.73
17.61
28.06
34.81
38.07
38.37
36.27
32.43
27.63
22.75
18.62
15.8
14.44
14.28
14.84
15.57
16.12
16.27
15.87
14.72
12.56
9.16
4.52
-1.11
-7.2
-13.22
-18.86
-24.17
-29.57
-35.67
-43.01
-51.82
-61.68
-71.6
-79.92
-84.8
-84.57
-78.34
-66.31
-49.81
-31.04
-12.34
4.28
17.66
27.4
33.7
36.99
37.76
36.52
33.92
30.72
27.72
25.48
24.26
23.98
24.34
25.04
25.88
26.7
27.31
27.43
26.66
24.66
21.21
16.4
10.45
3.83
-3.01
-9.6
-15.69
-21.28
-26.74
-32.7
-39.77
-48.1
-57.12
-65.4
-70.97
-71.96
-67.19
-56.64
-41.54
-23.93
-6.08
10.1
23.36
33.18
39.57
42.82
43.39
41.83
38.83
35.17
31.66
28.96
27.47
27.19
27.84
28.96
30.08
30.88
31.17
30.89
29.9
27.96
24.79
20.17
14.16
7.16
-0.14
-7.0
-12.94
-17.89
-22.27
-26.83
-32.37
-39.41
-47.94
-57.2
-65.75
-71.7
-73.25
-69.15
-59.21
-44.44
-26.74
-8.44
8.3
21.99
31.9
38.0
40.68
40.52
38.23
34.49
30.13
25.95
22.72
20.97
20.86
22.18
24.4
26.89
29.11
30.72
31.52
31.37
30.16
27.77
24.13
19.37
13.82
7.9
2.05
-3.5
-8.83
-14.31
-20.52
-27.9
-36.45
-45.45
-53.41
-58.31
-58.33
-52.47
-41.01
-25.58
-8.62
7.38
20.62
30.2
36.11
38.8
38.78
36.45
32.13
26.24
19.51
12.95
7.67
4.5
3.79
5.17
7.73
10.33
11.94
11.99
10.39
7.38
3.29
-1.59
-7.09
-13.03
-19.26
-25.58
-31.92
-38.45
-45.48
-53.24
-61.49
-69.29
-75.07
-76.97
-73.53
-64.29
-50.03
-32.6
-14.37
2.45
16.32
26.61
33.39
37.1
38.24
37.19
34.37
30.25
25.59
21.25
18.07
16.58
16.83
18.37
20.41
22.02
22.43
21.19
18.26
13.92
8.69
3.11
-2.4
-7.69
-12.86
-18.19
-24.0
-30.58
-38.08
-46.49
-55.46
-64.17
-71.27
-75.05
-73.92
-66.99
-54.51
-38.0
-19.78
-2.29
12.62
24.04
31.95
36.8
39.16
39.5
38.2
35.76
32.79
30.0
27.97
27.0
27.05
27.89
29.15
30.48
31.61
32.23
32.05
30.76
28.14
24.14
18.91
12.81
6.32
-0.1
-6.13
-11.7
-17.11
-22.83
-29.42
-37.18
-45.86
-54.51
-61.57
-65.21
-63.91
-57.0
-44.87
-28.96
-11.33
5.98
21.36
33.89
43.26
49.46
52.59
52.82
50.51
46.37
41.48
37.07
34.13
33.13
33.85
35.56
37.39
38.67
39.13
38.76
37.64
35.72
32.79
28.65
23.26
16.89
10.02
3.21
-3.13
-8.89
-14.23
-19.5
-25.14
-31.55
-38.95
-47.23
-55.74
-63.3
-68.31
-69.15
-64.78
-55.18
-41.46
-25.55
-9.6
4.62
16.1
24.55
30.12
33.05
33.53
31.79
28.23
23.62
18.96
15.25
13.22
13.14
14.73
17.38
20.32
22.79
24.24
24.35
23.06
20.5
16.96
12.73
8.1
3.3
-1.52
-6.26
-10.92
-15.74
-21.16
-27.7
-35.63
-44.56
-53.3
-59.9
-62.29
-59.03
-49.87
-35.98
-19.57
-3.14
11.28
22.55
30.42
35.22
37.47
37.56
35.81
32.63
28.59
24.49
21.15
19.17
18.73
19.56
21.07
22.55
23.36
23.09
21.57
18.83
15.08
10.62
5.72
0.57
-4.78
-10.4
-16.42
-22.99
-30.28
-38.41
-47.29
-56.56
-65.32
-72.14
-75.35
-73.54
-66.02
-53.28
-36.82
-18.82
-1.47
13.59
25.5
34.1
39.68
42.68
43.52
42.61
40.42
37.58
34.83
32.79
31.83
31.91
32.66
33.51
33.95
33.59
32.28
29.99
26.74
22.55
17.53
11.84
5.79
-0.3
-6.16
-11.72
-17.18
-22.98
-29.63
-37.59
-46.9
-57.05
-66.78
-74.32
-77.72
-75.59
-67.48
-54.18
-37.45
-19.51
-2.41
12.47
24.5
33.56
39.8
43.41
44.61
43.82
41.74
39.34
37.52
36.89
37.48
38.86
40.31
41.24
41.35
40.71
39.54
38.01
36.08
33.5
29.96
25.25
19.41
12.73
5.68
-1.22
-7.58
-13.28
-18.46
-23.55
-29.15
-35.74
-43.57
-52.38
-61.31
-68.93
-73.51
-73.44
-67.77
-56.59
-41.12
-23.41
-5.72
10.07
22.88
32.39
38.76
42.3
43.34
42.23
39.56
36.19
33.13
31.2
30.77
31.66
33.24
34.8
35.83
36.18
35.97
35.39
34.43
32.85
30.22
26.21
20.73
14.14
7.11
0.36
-5.55
-10.49
-14.75
-18.94
-23.79
-29.88
-37.34
-45.68
-53.73
-59.8
-62.04
-59.09
-50.56
-37.3
-21.19
-4.55
10.6
22.99
32.22
38.43
41.92
42.89
41.53
38.19
33.57
28.65
24.36
21.36
19.81
19.47
19.84
20.38
20.6
20.13
18.68
16.1
12.45
7.93
2.84
-2.56
-8.06
-13.68
-19.46
-25.6
-32.32
-39.87
-48.4
-57.75
-67.31
-75.91
-81.97
-83.87
-80.45
-71.43
-57.61
-40.73
-23.0
-6.52
7.25
17.64
24.76
29.1
31.29
31.81
31.02
29.29
27.12
25.09
23.76
23.49
24.29
25.85
27.69
29.24
30.06
29.78
28.19
25.18
20.77
15.17
8.71
1.85
-4.94
-11.28
-17.04
-22.35
-27.7
-33.71
-40.96
-49.62
-59.08
-67.97
-74.35
-76.26
-72.41
-62.63
-47.98
-30.42
-12.2
4.71
19.01
30.06
37.82
42.5
44.48
44.25
42.44
39.84
37.31
35.53
34.84
35.13
35.92
36.6
36.7
36.04
34.78
33.16
31.31
29.1
26.23
22.36
17.35
11.35
4.77
-1.88
-8.17
-13.83
-18.89
-23.67
-28.7
-34.67
-42.06
-50.92
-60.51
-69.31
-75.27
-76.42
-71.53
-60.61
-44.96
-26.74
-8.36
8.21
21.8
32.04
39.08
43.31
45.09
44.75
42.73
39.72
36.64
34.45
33.82
34.88
37.15
39.77
41.79
42.6
42.07
40.47
38.25
35.71
32.82
29.26
24.64
18.74
11.76
4.24
-3.08
-9.55
-14.89
-19.26
-23.27
-27.71
-33.28
-40.32
