0
-10.97
-17.94
-24.9
-31.23
-36.52
-40.82
-44.6
-48.64
-53.81
-60.76
-69.72
-80.18
-90.81
-99.63
-104.38
-103.2
-95.2
-80.85
-61.78
-40.37
-18.99
0.52
17.07
30.3
40.21
46.99
50.83
52.0
51.02
48.65
45.87
43.67
42.75
43.4
45.46
48.41
51.66
54.67
57.13
58.91
60.0
60.38
59.96
58.63
56.2
52.61
47.84
42.05
35.56
28.79
22.18
16.08
10.61
5.66
0.88
-4.15
-9.71
-15.86
-22.34
-28.7
-34.5
-39.48
-43.77
-47.79
-52.18
-57.63
-64.65
-73.42
-83.58
-94.05
-103.11
-108.65
-108.68
-101.93
-88.3
-69.02
-46.33
-22.85
-0.92
17.84
32.72
43.67
51.05
55.34
56.99
56.48
54.39
51.45
48.51
46.34
45.54
46.31
48.49
51.63
55.12
58.38
60.98
62.66
63.34
63.02
61.77
59.62
56.6
52.71
48.01
42.59
36.64
30.43
24.27
18.41
12.98
7.95
3.14
-1.72
-6.87
-12.41
-18.27
-24.23
-29.96
-35.22
-39.91
-44.17
-48.36
-53.01
-58.71
-65.91
-74.72
-84.69
-94.63
-102.63
-106.46
-104.18
-94.8
-78.7
-57.66
-34.34
-11.49
8.75
25.23
37.66
46.31
51.62
54.0
53.87
51.78
48.52
45.0
42.09
40.41
40.23
41.47
43.8
46.79
49.99
53.02
55.63
57.61
58.86
59.21
58.46
56.35
52.7
47.52
41.15
34.2
27.41
21.34
16.16
11.64
7.24
2.44
-3.02
-9.07
-15.3
-21.24
-26.48
-30.88
-34.58
-37.94
-41.47
-45.75
-51.32
-58.52
-67.32
-77.09
-86.53
-93.76
-96.76
-93.84
-84.26
-68.53
-48.4
-26.39
-5.11
13.39
27.95
38.37
44.99
48.4
49.1
47.57
44.32
40.17
36.09
33.09
31.9
32.64
34.9
37.92
40.92
43.42
45.32
46.75
47.85
48.59
48.68
47.67
45.2
41.12
35.64
29.27
22.66
16.38
10.76
5.78
1.12
-3.68
-8.94
-14.72
-20.79
-26.79
-32.36
-37.35
-41.84
-46.06
-50.34
-55.14
-60.94
-68.18
-76.97
-86.76
-96.12
-102.92
-104.87
-100.3
-88.8
-71.43
-50.4
-28.39
-7.8
9.73
23.47
33.39
39.87
43.35
44.27
43.14
40.51
37.17
33.94
31.6
30.69
31.33
33.26
36.02
39.04
41.91
44.37
46.31
47.65
48.23
47.9
46.46
43.82
40.02
35.23
29.77
24.02
18.34
13.0
8.09
3.44
-1.22
-6.22
-11.78
-17.88
-24.22
-30.38
-35.98
-40.82
-44.99
-48.89
-53.06
-58.14
-64.66
-72.88
-82.47
-92.37
-100.79
-105.5
-104.51
-96.7
-82.36
-63.14
-41.58
-20.31
-1.4
14.06
25.81
34.14
39.5
42.3
42.88
41.64
39.15
36.17
33.5
31.83
31.54
32.62
34.74
37.4
40.1
42.54
44.6
46.31
47.65
48.44
48.36
47.03
44.23
40.01
34.74
28.96
23.24
17.94
13.13
8.63
4.07
-0.86
-6.35
-12.38
-18.72
-24.96
-30.73
-35.81
-40.22
-44.31
-48.66
-53.94
-60.78
-69.42
-79.58
-90.19
-99.47
-105.2
-105.31
-98.58
-85.11
-66.33
-44.66
-22.69
-2.6
14.27
27.44
36.94
43.12
46.42
47.35
46.53
44.64
42.39
40.42
39.23
39.12
40.12
42.07
44.55
47.1
49.29
50.92
52.0
52.66
52.92
52.58
51.24
48.5
44.17
38.45
31.92
25.33
19.33
14.23
9.91
5.95
1.8
-2.95
-8.44
-14.47
-20.64
-26.52
-31.81
-36.47
-40.69
-44.87
-49.5
-55.12
-62.14
-70.69
-80.41
-90.18
-98.19
-102.26
-100.46
-91.79
-76.7
-56.98
-35.24
-14.11
4.41
19.32
30.43
37.98
42.36
43.94
43.16
40.7
37.52
34.67
33.04
33.07
34.69
37.39
40.5
43.46
45.99
48.01
49.53
50.44
50.47
49.24
46.46
42.15
36.67
30.6
24.49
18.66
13.05
7.38
1.37
-5.03
-11.58
-17.85
-23.44
-28.2
-32.29
-36.14
-40.38
-45.65
-52.48
-61.1
-71.2
-81.75
-90.97
-96.66
-96.81
-90.26
-77.16
-58.97
-38.08
-17.06
2.01
17.85
30.07
38.84
44.64
47.97
49.3
49.05
47.72
45.9
44.2
43.18
43.2
44.31
46.29
48.75
51.31
53.67
55.65
57.15
57.99
57.88
56.49
53.54
48.98
43.09
36.43
29.7
23.51
18.14
13.48
9.03
4.18
-1.57
-8.26
-15.51
-22.61
-28.87
-33.94
-38.0
-41.71
-45.99
-51.76
-59.52
-69.19
-79.9
-90.04
-97.51
-100.15
-96.39
-85.8
-69.29
-48.93
-27.33
-6.85
10.91
25.3
36.31
44.24
49.35
51.85
52.07
50.62
48.4
46.41
45.41
45.71
47.17
49.32
51.67
53.93
55.96
57.77
59.35
60.52
60.95
60.19
57.89
53.91
48.39
41.84
34.89
28.18
22.06
16.48
11.08
5.37
-0.93
-7.72
-14.58
-20.92
-26.37
-30.97
-35.14
-39.63
-45.16
-52.3
-61.16
-71.3
-81.58
-90.24
-95.21
-94.66
-87.63
-74.51
-56.93
-37.33
-18.19
-1.36
12.27
22.64
30.1
35.08
37.85
38.61
37.62
35.43
32.81
30.61
29.5
29.8
31.37
33.77
36.4
38.76
40.54
41.58
41.82
41.16
39.5
36.8
33.14
28.78
24.03
19.14
14.22
9.23
4.11
-1.12
-6.31
-11.25
-15.78
-19.92
-23.91
-28.19
-33.22
-39.37
-46.8
-55.23
-63.89
-71.43
-76.15
-76.44
-71.25
-60.56
-45.52
-28.11
-10.55
5.34
18.52
28.72
36.13
41.05
43.68
44.18
42.87
40.37
37.52
35.18
33.93
33.94
34.92
36.41
37.97
39.32
40.46
41.43
42.2
42.52
41.97
40.1
36.65
31.77
25.96
20.01
14.57
9.93
5.85
1.7
-3.18
-9.07
-15.75
-22.54
-28.66
-33.6
-37.4
-40.58
-43.95
-48.36
-54.41
-62.26
-71.46
-80.84
-88.65
-92.86
-91.75
-84.53
-71.65
-54.72
-35.98
-17.65
-1.38
11.97
22.21
29.56
34.39
37.03
37.87
37.38
36.11
34.76
33.97
34.18
35.44
37.46
39.7
41.63
42.98
43.81
44.36
44.84
45.16
44.92
43.6
40.87
36.76
31.68
26.3
21.25
16.85
13.04
9.43
5.49
0.81
-4.68
-10.72
-16.78
-22.3
-26.98
-30.9
-34.52
-38.5
-43.52
-50.08
-58.26
-67.68
-77.32
-85.63
-90.71
-90.83
-84.99
-73.39
-57.44
-39.39
-21.63
-5.92
6.86
16.69
23.96
29.05
32.1
33.2
32.53
30.62
28.26
26.3
25.28
25.39
26.46
28.14
30.17
32.35
34.55
36.57
38.09
38.71
38.09
36.09
32.83
28.67
24.09
19.5
15.19
11.19
7.3
3.2
-1.37
-6.5
-12.02
-17.54
-22.63
-27.0
-30.65
-33.94
-37.43
-41.75
-47.4
-54.48
-62.47
-70.18
-75.94
-77.92
-74.79
-66.21
-52.99
-36.92
-20.13
-4.46
8.94
19.61
27.55
32.87
35.65
36.0
34.28
31.18
27.65
24.65
22.9
22.67
23.83
25.94
28.49
31.03
33.3
35.19
36.66
37.63
37.91
37.21
35.24
31.94
27.48
22.32
16.97
11.83
7.03
2.38
-2.42
-7.69
-13.52
-19.77
-26.08
-32.04
-37.31
-41.76
-45.59
-49.3
-53.59
-59.22
-66.7
-76.03
-86.44
-96.41
-103.81
-106.47
-102.8
-92.4
-76.24
-56.47
-35.77
-16.57
-0.44
12.09
21.3
27.86
32.36
35.17
36.48
36.53
35.74
34.74
34.14
34.36
35.46
37.22
39.25
41.22
43.03
44.71
46.35
47.89
49.04
49.35
48.34
45.72
41.55
36.3
30.69
25.4
20.86
17.02
13.36
9.2
3.96
-2.5
-9.84
-17.4
-24.48
-30.65
-35.82
-40.26
-44.49
-49.18
-55.05
-62.66
-72.14
-82.8
-93.02
-100.43
-102.57
-97.75
-85.7
-67.78
-46.49
-24.68
-4.71
12.03
25.1
34.71
41.26
45.21
46.9
46.76
45.34
43.37
41.61
40.71
41.05
42.64
45.16
48.09
50.91
53.29
55.11
56.43
57.3
57.64
57.27
55.9
53.31
49.46
44.53
38.91
33.05
27.32
21.88
16.59
11.11
5.08
-1.67
-8.95
-16.3
-23.12
-29.0
-33.85
-38.01
-42.03
-46.63
-52.43
-59.87
-69.02
-79.32
-89.48
-97.53
-101.24
-98.84
-89.63
-74.32
-54.88
-33.89
-13.76
3.81
18.01
28.73
36.2
40.71
42.49
41.83
39.16
35.2
30.85
27.08
24.71
24.17
25.43
28.04
31.3
34.52
37.16
38.98
39.89
39.92
39.09
37.38
34.76
31.21
26.77
21.55
15.73
9.53
3.23
-2.95
-8.88
-14.58
-20.19
-25.91
-31.93
-38.46
-45.68
-53.75
-62.5
-71.22
-78.52
-82.53
-81.4
-74.03
-60.61
-42.62
-22.41
-2.48
15.25
29.68
40.51
47.85
51.98
53.19
51.85
48.56
44.19
39.73
36.05
33.73
32.92
33.41
34.82
36.8
39.08
41.48
43.79
45.67
46.64
46.21
44.07
40.24
35.12
29.3
23.39
17.73
12.31
6.81
0.83
-5.87
-13.24
-20.92
-28.36
-35.09
-40.86
-45.79
-50.33
-55.24
-61.32
-69.17
-78.78
-89.24
-98.68
-104.69
-104.95
-98.05
-84.06
-64.54
-42.04
-19.36
1.23
18.41
31.74
41.42
47.89
51.58
52.89
52.24
50.23
47.65
45.28
43.79
43.45
44.14
45.46
46.98
48.47
49.93
51.48
53.12
54.57
55.29
54.73
52.51
48.66
43.6
37.96
32.33
27.04
22.06
17.08
11.66
5.51
-1.39
-8.71
-15.94
-22.59
-28.41
-33.51
-38.32
-43.51
-49.73
-57.46
-66.75
-76.98
-86.75
-93.97
-96.43
-92.45
-81.58
-64.9
-44.71
-23.77
-4.48
11.73
24.4
33.73
40.16
44.01
45.5
44.95
42.88
40.02
37.16
34.93
33.65
33.37
33.98
35.29
37.13
39.32
41.57
43.5
44.67
44.69
43.31
40.57
36.73
32.17
27.25
22.19
16.98
11.52
5.73
-0.33
-6.42
-12.26
-17.66
-22.65
-27.51
-32.61
-38.35
-44.96
-52.39
-60.22
-67.6
-73.29
-75.78
-73.73
-66.36
-53.9
-37.6
-19.47
-1.68
13.98
26.5
35.59
41.48
44.54
45.15
43.68
40.6
36.6
32.46
28.98
26.77
26.11
26.94
28.93
31.56
34.23
36.37
37.51
37.42
36.05
33.63
30.45
26.81
22.89
18.74
14.27
9.37
3.95
-2.02
-8.4
-14.91
-21.23
-27.06
-32.29
-37.01
-41.6
-46.6
-52.56
-59.86
-68.48
-77.8
-86.5
-92.72
-94.46
-90.24
-79.64
-63.61
-44.22
-24.07
-5.49
10.05
22.0
30.6
36.34
39.67
40.92
40.37
38.48
35.94
33.57
32.07
31.85
32.86
34.79
37.16
39.54
41.7
43.51
44.88
45.64
45.5
44.16
41.45
37.46
32.57
27.32
22.15
17.26
12.5
7.56
2.12
-3.92
-10.33
-16.67
-22.49
-27.52
-31.83
-35.79
-40.01
-45.17
-51.81
-60.1
-69.6
-79.14
-86.89
-90.78
-89.14
-81.26
-67.76
-50.38
-31.48
-13.27
2.72
15.8
25.97
33.49
38.61
41.46
42.23
41.28
39.19
36.69
34.47
33.0
32.47
32.77
33.72
35.09
36.72
38.5
40.25
41.71
42.52
42.25
40.57
37.38
32.92
27.65
22.13
16.8
11.82
7.04
2.16
-3.05
-8.6
-14.26
-19.68
-24.6
-28.96
-33.0
-37.18
-42.02
-47.96
-55.12
-63.17
-71.19
-77.71
-81.06
-79.74
-72.99
-61.12
-45.4
-27.8
-10.38
5.2
17.98
27.6
34.16
37.94
39.27
38.52
36.13
32.74
29.14
26.11
24.28
23.96
25.05
27.18
29.84
32.56
34.98
36.87
38.01
38.18
37.15
34.81
31.23
26.71
21.69
16.55
11.41
6.17
0.56
-5.6
-12.27
-19.14
-25.75
-31.71
-36.9
-41.5
-46.04
-51.21
-57.66
-65.68
-74.95
-84.35
-92.1
-96.13
-94.7
-87.04
-73.65
-56.15
-36.81
-17.81
-0.75
13.54
24.88
33.42
39.36
42.88
44.2
43.68
41.94
39.71
37.79
36.73
36.76
37.78
39.46
41.39
43.29
45.07
46.69
48.09
48.99
48.97
47.62
44.75
40.5
35.38
30.01
24.87
20.13
15.64
11.0
5.83
-0.04
-6.53
-13.3
-19.87
-25.86
-31.04
-35.52
-39.75
-44.39
-50.18
-57.63
-66.78
-76.95
-86.68
-93.97
-96.71
-93.33
-83.34
-67.61
-48.09
-27.34
-7.69
9.25
22.81
33.08
40.48
45.39
48.06
48.69
47.6
45.44
43.07
41.34
40.79
41.51
43.14
45.11
46.96
48.5
49.84
51.17
52.5
53.55
53.75
52.49
49.45
44.78
39.03
33.01
27.41
22.55
18.3
14.18
9.6
4.2
-2.03
-8.74
-15.35
-21.38
-26.59
-31.1
-35.28
-39.66
-44.78
-51.07
-58.74
-67.55
-76.65
-84.52
-89.22
-88.93
-82.59
-70.36
-53.72
-34.94
-16.44
-0.06
13.21
23.24
30.26
34.66
36.69
36.6
34.79
31.92
28.83
26.35
25.09
25.23
26.61
28.79
31.34
33.92
36.32
38.37
39.87
40.55
40.11
38.4
35.45
31.52
26.98
22.12
17.06
11.75
6.06
-0.05
-6.4
-12.7
-18.61
-23.93
-28.67
-33.07
-37.55
-42.6
-48.71
-56.1
-64.57
-73.28
-80.71
-84.94
-84.25
-77.67
-65.44
-48.99
-30.5
-12.22
4.11
17.53
27.84
35.23
40.07
42.65
43.24
42.18
39.99
37.38
35.1
33.78
33.7
34.76
36.55
38.56
40.44
42.1
43.66
45.2
46.55
47.25
46.67
44.35
40.23
34.75
28.63
22.64
17.24
12.5
8.1
3.56
-1.52
-7.29
-13.6
-20.08
-26.3
-31.88
-36.71
-40.93
-44.91
-49.18
-54.33
-60.8
-68.67
-77.4
-85.7
-91.68
-93.36
-89.28
-79.09
-63.77
-45.32
-26.13
-8.29
6.94
19.15
28.46
35.24
39.74
42.16
42.77
42.01
40.51
38.99
38.04
37.99
38.83
40.25
41.85
43.28
44.39
45.23
45.99
46.8
47.59
48.01
47.57
45.78
42.42
37.65
32.0
26.16
20.68
15.8
11.4
7.12
2.58
-2.43
-7.87
-13.51
-19.03
-24.19
-28.86
-33.12
-37.18
-41.42
-46.28
-52.2
-59.45
-67.89
-76.78
-84.77
-90.08
-91.01
-86.42
-76.15
-61.2
-43.46
-25.15
-8.28
5.88
16.81
24.63
29.71
32.42
33.03
31.8
29.13
25.74
22.5
20.25
19.55
20.47
22.67
25.56
28.59
31.3
33.44
34.84
35.38
34.96
33.5
31.07
27.79
23.88
19.55
14.92
10.05
4.94
-0.41
-5.95
-11.56
-17.09
-22.37
-27.37
-32.25
-37.39
-43.3
-50.32
-58.36
-66.64
-73.78
-78.0
-77.72
-72.01
-60.95
-45.71
-28.15
-10.38
5.79
19.21
29.44
36.59
40.99
43.05
43.09
41.48
38.7
35.44
32.45
30.36
29.46
29.67
30.65
32.04
33.59
35.21
36.86
38.35
39.36
39.44
38.23
35.62
31.82
27.21
22.24
17.18
12.14
7.01
1.59
-4.28
-10.67
-17.45
-24.31
-30.88
-36.83
-42.1
-46.9
-51.8
-57.51
-64.6
-73.17
-82.55
-91.26
-97.28
-98.6
-93.83
-82.76
-66.44
-46.9
-26.55
-7.5
8.83
21.86
31.62
38.42
42.62
44.56
44.64
43.39
41.51
39.71
38.56
38.34
38.97
40.19
41.69
43.29
44.91
46.54
48.08
49.31
49.82
49.23
47.28
43.94
39.48
34.36
29.05
23.9
18.93
13.9
8.42
2.2
-4.74
-12.02
-19.07
-25.34
-30.6
-35.01
-39.09
-43.58
-49.17
-56.38
-65.19
-74.94
-84.19
-90.94
-93.1
-89.18
-78.85
-63.15
-44.12
-24.22
-5.56
10.52
23.52
33.45
40.53
44.99
47.03
46.94
45.24
42.66
40.01
38.04
37.21
37.64
39.11
41.2
43.44
45.48
47.12
48.24
48.75
48.45
47.13
44.64
41.01
36.53
31.65
26.82
22.25
17.89
13.41
8.43
2.7
-3.75
-10.57
-17.28
-23.36
-28.56
-32.92
-36.88
-41.07
-46.22
-52.83
-61.01
-70.17
-79.03
-85.75
-88.35
-85.29
-76.04
-61.29
-42.87
-23.13
-4.35
11.88
24.78
34.3
40.71
44.35
45.47
44.4
41.68
38.1
34.6
32.01
30.85
31.17
32.63
34.68
36.81
38.63
39.97
40.77
40.99
40.56
39.38
37.32
34.36
30.49
25.78
20.3
14.1
7.3
0.07
-7.28
-14.35
-20.77
-26.32
-31.07
-35.36
-39.83
-45.17
-52.0
-60.48
-70.1
-79.6
-87.1
-90.55
-88.34
-79.81
-65.48
-47.02
-26.71
-6.93
10.49
24.47
34.8
41.76
45.91
47.76
47.73
46.2
43.65
40.69
38.03
36.21
35.49
35.79
36.82
38.24
39.85
41.56
43.24
44.67
45.44
45.14
43.46
40.31
35.87
30.56
24.85
19.13
13.58
8.17
2.65
-3.23
-9.58
-16.23
-22.8
-28.86
-34.18
-38.85
-43.36
-48.34
-54.4
-61.78
-70.23
-78.82
-86.05
-90.1
-89.3
-82.68
-70.34
-53.55
-34.38
-15.11
2.39
17.02
28.41
36.75
42.38
45.66
46.88
46.36
44.55
42.06
39.55
37.64
36.74
36.94
38.06
39.72
41.5
43.1
44.4
45.41
46.07
46.19
45.42
43.4
40.04
35.58
30.57
25.58
20.94
16.57
12.13
7.23
1.67
-4.39
-10.52
-16.31
-21.46
-26.01
-30.23
-34.57
-39.5
-45.49
-52.83
-61.46
-70.75
-79.45
-85.75
-87.81
-84.29
-74.91
-60.58
-43.16
-24.86
-7.69
7.02
18.65
27.12
32.63
35.46
35.96
34.55
31.81
28.43
25.15
22.67
21.46
21.72
23.29
25.78
28.62
31.31
33.46
34.87
35.46
35.2
34.06
32.05
29.23
25.71
21.62
17.07
12.06
6.6
0.75
-5.33
-11.31
-16.9
-21.87
-26.18
-30.01
-33.73
-37.84
-42.84
-49.03
-56.26
-63.75
-70.1
-73.58
-72.63
-66.42
-55.18
-40.18
-23.32
-6.64
8.22
20.27
29.12
34.87
37.78
38.22
36.6
33.42
29.37
25.19
21.65
19.33
18.53
19.18
20.94
23.27
25.64
27.64
29.02
29.63
29.38
28.21
26.09
23.02
19.1
14.43
9.19
3.54
-2.36
-8.37
-14.33
-20.08
-25.53
-30.72
-35.79
-41.04
-46.83
-53.52
-61.31
-70.06
-79.04
-86.95
-92.01
-92.48
-87.21
-76.12
-60.32
-41.77
-22.77
-5.25
9.52
21.01
29.26
34.58
37.38
38.11
37.26
35.4
33.16
31.11
29.71
29.22
29.67
30.9
32.65
34.65
36.66
38.44
39.74
40.28
39.78
38.08
35.2
31.41
27.05
22.41
17.6
12.55
7.14
1.25
-5.06
-11.59
-18.06
-24.24
-29.98
-35.28
-40.32
-45.44
-51.12
-57.87
-65.97
-75.14
-84.3
-91.64
-95.02
-92.74
-84.1
-69.77
-51.54
-31.72
-12.51
4.57
18.76
29.88
38.05
43.47
46.38
47.13
46.23
44.36
42.26
40.57
39.77
40.01
41.17
42.93
44.92
46.88
48.73
50.46
52.0
53.07
53.25
52.08
49.36
45.23
40.21
34.88
29.67
24.64
19.55
14.0
7.68
0.6
-6.92
-14.39
-21.27
-27.27
-32.37
-36.93
-41.55
-46.93
-53.67
-62.0
-71.58
-81.33
-89.5
-94.04
-93.17
-85.92
-72.56
-54.6
-34.36
-14.31
3.55
18.11
29.04
36.65
41.4
43.76
44.11
42.82
40.42
37.57
35.0
33.34
32.91
33.74
35.49
37.66
39.72
41.29
42.2
42.43
42.05
41.1
39.5
37.09
33.65
29.08
23.45
17.13
10.6
4.35
-1.28
-6.29
-10.91
-15.44
-20.19
-25.35
-31.08
-37.53
-44.84
-52.92
-61.21
-68.52
-73.16
-73.44
-68.2
-57.33
-41.85
-23.68
-5.03
12.15
26.56
37.63
45.29
49.79
51.43
50.64
47.93
44.03
39.79
36.09
33.6
32.61
33.02
34.41
36.24
38.06
39.55
40.51
40.79
40.23
38.69
36.12
32.63
28.49
24.01
19.4
14.69
9.68
4.13
-2.14
-9.08
-16.35
-23.45
-29.86
-35.27
-39.74
-43.73
-48.01
-53.43
-60.63
-69.59
-79.46
-88.54
-94.63
-95.69
-90.46
-78.93
-62.36
-42.88
-22.81
-4.09
12.07
25.13
35.04
41.93
46.0
47.54
47.02
45.14
42.68
40.4
38.84
38.2
38.38
39.11
40.13
41.3
42.6
44.03
45.51
46.78
47.4
46.87
44.82
41.15
36.13
30.32
24.36
18.74
13.64
8.87
4.04
-1.24
-7.15
-13.54
-20.01
-26.06
-31.31
-35.67
-39.4
-43.03
-47.25
-52.68
-59.64
-67.84
-76.28
-83.26
-86.77
-85.1
-77.4
-64.07
-46.7
-27.53
-8.79
7.87
21.64
32.39
40.31
45.65
48.53
49.13
47.83
45.31
42.44
40.07
38.76
38.66
39.52
40.91
42.39
43.68
44.69
45.47
46.04
46.28
45.94
44.64
42.1
38.22
33.28
27.77
22.3
17.31
12.94
8.97
4.96
0.44
-4.85
-10.85
-17.23
-23.52
-29.24
-34.08
-38.05
-41.46
-44.9
-49.09
-54.65
-61.83
-70.29
-78.97
-86.24
-90.24
-89.35
-82.74
-70.66
-54.41
-36.03
-17.72
-1.32
12.01
21.9
28.47
32.13
33.34
32.55
30.25
27.06
23.74
21.01
19.46
19.34
20.55
22.72
25.34
27.97
30.25
31.94
32.89
32.95
32.06
30.22
27.53
24.19
20.37
16.17
11.62
6.66
1.27
-4.46
-10.34
-16.15
-21.69
-26.89
-31.84
-36.82
-42.21
-48.37
-55.5
-63.36
-71.12
-77.4
-80.54
-79.1
-72.31
-60.48
-44.88
-27.42
-10.08
5.54
18.46
28.36
35.28
39.4
41.0
40.43
38.21
35.05
31.81
29.26
27.89
27.83
28.85
30.52
32.45
34.36
36.16
37.79
39.16
39.99
39.9
38.51
35.63
31.38
26.16
20.62
15.31
10.46
5.94
1.26
-4.07
-10.32
-17.3
-24.39
-30.9
-36.31
-40.63
-44.37
-48.36
-53.49
-60.35
-68.98
-78.72
-88.21
-95.58
-98.83
-96.41
-87.75
-73.46
-55.26
-35.4
-16.07
1.13
15.34
26.36
34.34
39.56
42.37
43.19
42.55
41.05
39.28
37.77
36.92
36.94
37.85
39.45
41.39
43.34
45.05
46.45
47.59
48.47
48.89
48.46
46.71
43.38
38.58
32.83
26.81
21.14
16.09
11.52
7.03
2.2
-3.21
-9.14
-15.29
-21.23
-26.62
-31.31
-35.49
-39.58
-44.22
-50.01
-57.35
-66.16
-75.74
-84.75
-91.38
-93.8
-90.67
-81.57
-67.16
-49.1
-29.53
-10.51
6.42
20.47
31.43
39.47
44.84
47.79
48.55
47.48
45.18
42.4
39.94
38.43
38.2
39.18
41.03
43.29
45.55
47.56
49.21
50.44
51.15
51.09
49.97
47.54
43.79
38.93
33.46
27.94
22.77
18.04
13.48
8.66
3.22
-2.94
-9.51
-15.94
-21.68
-26.43
-30.31
-33.77
-37.45
-41.98
-47.85
-55.25
-63.96
-73.25
-81.78
-87.8
-89.56
-85.78
-76.2
-61.67
-44.01
-25.38
-7.76
7.45
19.59
28.56
34.53
37.8
38.68
37.54
34.88
31.37
27.79
24.93
23.4
23.51
25.16
27.95
31.26
34.45
37.02
38.66
39.22
38.68
37.11
34.64
31.46
27.69
23.42
18.63
13.25
7.3
0.94
-5.54
-11.81
-17.6
-22.83
-27.68
-32.51
-37.82
-44.09
-51.65
-60.41
-69.7
-78.18
-84.01
-85.36
-80.94
-70.57
-55.3
-37.06
-18.15
-0.52
14.57
26.6
35.55
41.61
45.03
46.06
45.09
42.69
39.59
36.58
34.26
32.98
32.79
33.53
34.94
36.8
38.92
41.18
43.35
45.09
45.95
45.45
43.34
39.64
34.73
29.18
23.56
18.22
13.21
8.31
3.15
-2.54
-8.81
-15.45
-21.99
-27.95
-32.96
-37.05
-40.68
-44.64
-49.83
-56.9
-65.9
-76.12
-86.08
-93.81
-97.35
-95.2
-86.82
-72.78
-54.66
-34.67
-15.03
2.47
16.87
27.91
35.9
41.28
44.44
45.66
45.23
43.58
41.36
39.32
38.06
37.9
38.82
40.49
42.53
44.61
46.53
48.19
49.51
50.35
50.54
49.88
48.23
45.48
41.68
36.98
31.71
26.22
20.86
15.8
11.01
6.3
1.37
-3.95
-9.67
-15.53
-21.15
-26.14
-30.29
-33.74
-36.96
-40.68
-45.67
-52.48
-61.2
-71.22
-81.31
-89.74
-94.6
-94.32
-88.04
-75.92
-59.12
-39.57
-19.51
-0.93
14.8
27.02
35.79
41.46
44.56
45.48
44.61
42.4
39.47
36.6
34.48
33.57
33.89
35.11
36.79
38.59
40.41
42.31
44.29
46.12
47.36
47.45
45.98
42.83
38.24
32.71
26.84
21.17
16.05
11.58
7.58
3.7
-0.46
-5.16
-10.42
-15.99
-21.48
-26.48
-30.75
-34.35
-37.62
-41.2
-45.8
-52.01
-59.94
-68.98
-77.73
-84.23
-86.5
-83.14
-73.83
-59.46
-41.86
-23.2
-5.44
10.01
22.42
31.57
37.51
40.46
40.82
39.15
36.22
32.85
29.83
27.67
26.59
26.53
27.28
28.6
30.32
32.34
34.54
36.71
38.51
39.48
39.21
37.49
34.38
30.24
25.53
20.71
15.99
11.38
6.71
1.75
-3.63
-9.39
-15.35
-21.23
-26.78
-31.86
-36.5
-41.0
-45.81
-51.51
-58.45
-66.53
-74.94
-82.18
-86.39
-85.88
-79.69
-67.96
-51.96
-33.71
-15.35
1.3
15.17
25.9
33.61
38.64
41.32
41.9
40.71
38.2
35.05
32.04
29.84
28.89
29.2
30.52
32.49
34.8
37.24
39.67
41.87
43.52
44.23
43.66
41.62
38.19
33.66
28.48
23.14
18.04
13.38
9.12
4.97
0.52
-4.55
-10.29
-16.45
-22.54
-28.07
-32.76
-36.65
-40.13
-43.75
-48.16
-53.89
-61.19
-69.81
-78.8
-86.54
-91.09
-90.66
-84.33
-72.32
-56.05
-37.64
-19.28
-2.67
11.23
22.12
30.12
35.46
38.4
39.23
38.34
36.32
33.89
31.78
30.58
30.62
31.86
33.97
36.45
38.85
40.88
42.44
43.59
44.38
44.8
44.67
43.74
41.77
38.66
34.5
29.61
24.44
19.4
14.76
10.52
6.42
2.08
-2.79
-8.23
-13.96
-19.53
-24.5
-28.73
-32.38
-35.9
-39.88
-44.83
-51.1
-58.76
-67.46
-76.37
-84.11
-88.96
-89.28
-84.02
-73.16
-57.82
-39.93
-21.68
-4.93
9.15
20.09
27.92
32.91
35.41
35.83
34.67
32.55
30.13
27.98
26.48
25.82
26.0
26.94
28.52
30.59
32.94
35.27
37.2
38.36
38.41
37.23
34.87
31.55
27.64
23.48
19.31
15.19
11.06
6.74
2.09
-2.93
-8.17
-13.35
-18.13
-22.32
-25.94
-29.28
-32.89
-37.39
-43.3
-50.75
-59.27
-67.65
-74.17
-77.0
-74.75
-66.96
-54.28
-38.3
-21.08
-4.54
9.97
21.73
30.59
36.64
40.05
40.98
39.69
36.71
32.84
29.0
26.06
24.56
24.61
25.94
28.07
30.51
32.92
35.08
36.83
37.99
38.29
37.48
35.41
32.15
28.0
23.36
18.65
14.08
9.64
5.15
0.3
-5.07
-11.0
-17.27
-23.54
-29.45
-34.76
-39.48
-43.94
-48.75
-54.6
-61.94
-70.64
-79.74
-87.56
-92.05
-91.41
-84.73
-72.31
-55.6
-36.69
-17.77
-0.53
14.03
25.57
34.14
39.98
43.33
44.49
43.87
42.02
39.63
37.4
35.87
35.34
35.8
37.03
38.74
40.64
42.58
44.48
46.22
47.57
48.23
47.85
46.16
43.12
38.92
33.97
28.69
23.44
18.29
13.11
7.6
1.48
-5.28
-12.34
-19.17
-25.18
-30.06
-33.89
-37.26
-40.98
-45.85
-52.4
-60.6
-69.83
-78.85
-85.97
-89.43
-87.76
-80.3
-67.4
-50.41
-31.32
-12.24
5.1
19.68
31.15
39.63
45.42
48.85
50.17
49.73
48.0
45.67
43.47
42.05
41.73
42.45
43.87
45.56
47.19
48.67
50.08
51.49
52.82
53.73
53.73
52.36
49.43
45.12
39.89
34.34
28.96
24.0
19.36
14.77
9.88
4.45
-1.55
-7.91
-14.23
-20.1
-25.21
-29.54
-33.38
-37.24
-41.73
-47.36
-54.36
-62.54
-71.19
-79.13
-84.82
-86.63
-83.36
-74.62
-61.05
-44.23
-26.23
-9.02
6.01
18.21
27.5
34.11
38.23
40.0
39.63
37.55
34.45
31.17
28.49
26.93
26.69
27.61
29.36
31.53
33.78
35.83
37.51
38.67
39.12
38.68
37.17
34.61
31.2
27.36
23.48
19.76
16.05
11.98
7.15
1.45
-4.85
-11.17
-16.83
-21.42
-24.91
-27.63
-30.2
-33.33
-37.65
-43.5
-50.83
-58.88
-66.27
-71.2
-71.98
-67.55
-57.87
-44.0
-27.75
-11.1
4.22
17.09
26.98
33.83
37.8
39.19
38.43
36.06
32.75
29.27
26.28
24.29
23.54
23.97
25.3
27.16
29.18
31.09
32.74
34.03
34.85
35.0
34.26
32.42
29.45
25.52
20.96
16.23
11.71
7.55
3.65
-0.34
-4.79
-9.95
-15.72
-21.75
-27.47
-32.38
-36.3
-39.4
-42.21
-45.41
-49.68
-55.41
-62.6
-70.66
-78.36
-84.02
-85.89
-82.67
-73.99
-60.61
-44.22
-26.9
-10.52
3.7
15.24
24.07
30.41
34.47
36.47
36.71
35.58
33.6
31.4
29.5
28.32
28.07
28.76
30.16
31.94
33.77
35.45
36.88
38.06
38.9
39.18
38.57
36.75
33.64
29.44
24.62
19.65
14.93
10.61
6.62
2.8
-1.06
-5.13
-9.49
-14.17
-19.1
-24.06
-28.77
-32.97
-36.59
-39.81
-43.12
-47.16
-52.5
-59.38
-67.48
-75.83
-82.87
-86.82
-86.15
-80.11
-69.0
-54.15
-37.5
-21.03
-6.24
6.09
15.84
23.26
28.64
32.13
33.82
33.87
32.64
30.75
28.96
27.95
28.14
29.58
32.03
35.03
38.12
40.94
43.31
45.12
46.29
46.66
46.08
44.42
41.73
38.2
34.15
29.96
25.82
21.8
17.83
13.75
9.48
5.01
0.36
-4.41
-9.26
-14.15
-18.94
-23.47
-27.54
-31.12
-34.38
-37.77
-41.84
-47.13
-53.91
-62.02
-70.74
-78.86
-84.8
-87.02
-84.36
-76.46
-63.92
-48.19
-31.2
-14.8
-0.4
11.27
20.09
26.24
30.02
31.69
31.54
29.96
27.53
24.91
22.79
21.65
21.7
22.85
24.83
27.3
29.95
32.57
35.04
37.17
38.7
39.3
38.63
36.52
33.08
28.72
24.0
19.39
15.12
11.11
7.07
2.69
-2.17
-7.4
-12.7
-17.75
-22.3
-26.34
-30.11
-34.02
-38.63
-44.4
-51.54
-59.71
-67.98
-74.81
-78.46
-77.45
-71.08
-59.68
-44.54
-27.51
-10.47
5.04
18.12
28.33
35.61
40.08
41.95
41.61
39.57
36.53
33.28
30.54
28.91
28.61
29.58
31.44
33.76
36.13
38.36
40.43
42.31
43.87
44.76
44.52
42.77
39.42
34.75
29.37
23.94
18.93
14.44
10.21
5.79
0.74
-5.09
-11.54
-18.17
-24.45
-29.96
-34.56
-38.45
-42.11
-46.18
-51.33
-58.02
-66.33
-75.7
-84.89
-92.07
-95.33
-93.11
-84.81
-71.02
-53.36
-33.98
-15.02
1.96
16.1
27.19
35.35
40.84
43.95
45.02
44.5
42.98
41.07
39.37
38.29
38.05
38.7
40.12
42.1
44.37
46.66
48.78
50.59
51.98
52.79
52.75
51.56
48.94
44.89
39.7
33.97
28.3
23.1
18.39
13.91
9.25
4.15
-1.39
-7.14
-12.78
-18.04
-22.82
-27.15
-31.19
-35.2
-39.53
-44.65
-51.02
-58.9
-68.03
-77.5
-85.75
-90.85
-91.06
-85.34
-73.72
-57.31
-38.08
-18.25
0.2
15.91
28.27
37.32
43.44
47.08
48.67
48.6
47.25
45.1
42.73
40.77
39.71
39.81
41.02
43.05
45.48
47.89
49.98
51.57
52.59
53.02
52.81
51.85
50.0
47.11
43.19
38.44
33.23
28.04
23.22
18.89
14.84
10.7
6.05
0.73
-5.15
-11.22
-17.05
-22.3
-26.85
-30.8
-34.41
-38.08
-42.35
-47.77
-54.76
-63.29
-72.62
-81.21
-86.99
-87.98
-82.95
-71.92
-56.19
-37.91
-19.42
-2.6
11.42
22.26
29.96
34.77
36.97
36.9
35.05
32.06
28.67
25.56
23.22
21.91
21.63
22.27
23.64
25.6
27.98
30.58
33.1
35.15
36.33
36.29
34.85
32.11
28.4
24.11
19.64
15.14
10.55
5.68
0.36
-5.39
-11.26
-16.83
-21.69
-25.71
-29.15
-32.56
-36.64
-41.91
-48.52
-56.08
-63.63
-69.77
-72.94
-71.79
-65.57
-54.45
-39.57
-22.73
-6.01
8.89
20.9
29.72
35.55
38.8
39.85
39.0
36.6
33.1
29.15
25.49
22.7
21.08
20.64
21.2
22.55
24.51
26.93
29.56
32.02
33.79
34.37
33.37
30.76
26.82
22.09
17.17
12.5
8.24
4.19
-0.07
-4.94
-10.58
-16.78
-23.04
-28.77
-33.61
-37.54
-40.95
-44.46
-48.75
-54.32
-61.33
-69.42
-77.61
-84.34
-87.82
-86.45
-79.45
-67.18
-51.1
-33.31
-15.95
-0.56
12.06
21.79
28.81
33.36
35.65
35.93
34.59
32.25
29.69
27.62
26.53
26.57
27.58
29.19
31.0
32.71
34.21
35.52
36.71
37.7
38.28
38.08
36.76
34.19
30.57
26.28
21.79
17.37
13.01
8.49
3.52
-2.05
-8.08
-14.19
-19.91
-24.9
-29.04
-32.58
-35.99
-39.91
-44.99
-51.65
-59.86
-69.0
-77.75
-84.35
-86.98
-84.32
-75.98
-62.67
-46.01
-28.02
-10.63
4.75
17.36
27.02
33.89
38.28
40.53
41.0
40.12
38.38
36.36
34.57
33.42
33.11
33.59
34.67
36.08
37.63
39.23
40.83
42.37
43.64
44.24
