0
10.78
10.99
10.97
10.8
10.62
10.45
10.27
10.02
9.57
8.89
8.0
7.04
6.11
5.23
4.3
3.15
1.71
0.07
-1.53
-2.81
-3.66
-4.14
-4.49
-4.95
-5.69
-6.77
-8.16
-9.79
-11.57
-13.37
-15.01
-16.22
-16.71
-16.26
-14.76
-12.29
-9.1
-5.58
-2.13
0.87
3.2
4.81
5.84
6.49
6.93
7.23
7.38
7.3
6.97
6.52
6.07
5.75
5.63
5.65
5.73
5.81
5.87
6.04
6.41
7.02
7.76
8.44
8.85
8.85
8.47
7.88
7.27
6.8
6.53
6.33
6.06
5.61
4.9
3.96
2.88
1.72
0.53
-0.66
-1.85
-3.01
-4.11
-5.13
-6.06
-6.93
-7.85
-8.94
-10.35
-12.17
-14.39
-16.84
-19.17
-20.92
-21.65
-21.05
-19.08
-15.94
-12.08
-8.02
-4.24
-0.98
1.67
3.84
5.63
7.06
8.04
8.42
8.19
7.49
6.67
6.15
6.19
6.83
7.84
8.9
9.76
10.33
10.72
11.06
11.43
11.8
12.06
12.07
11.76
11.1
10.16
9.06
7.97
7.01
6.29
5.83
5.55
5.26
4.79
4.0
2.88
1.55
0.21
-0.98
-1.88
-2.51
-2.99
-3.52
-4.25
-5.24
-6.4
-7.6
-8.66
-9.59
-10.49
-11.56
-12.97
-14.65
-16.35
-17.67
-18.23
-17.78
-16.3
-13.98
-11.16
-8.18
-5.37
-2.92
-0.88
0.79
2.15
3.24
4.05
4.52
4.67
4.62
4.63
4.97
5.88
7.38
9.3
11.32
13.07
14.28
14.81
14.72
14.15
13.31
12.35
11.39
10.52
9.77
9.16
8.64
8.12
7.45
6.55
5.36
3.94
2.44
0.99
-0.33
-1.53
-2.64
-3.65
-4.49
-5.06
-5.3
-5.3
-5.28
-5.51
-6.22
-7.52
-9.37
-11.64
-14.11
-16.53
-18.55
-19.79
-19.87
-18.58
-15.94
-12.25
-8.04
-3.88
-0.26
2.54
4.44
5.63
6.35
6.86
7.29
7.67
7.92
8.01
7.94
7.83
7.82
7.99
8.3
8.67
8.99
9.22
9.38
9.53
9.69
9.89
10.06
10.15
10.02
9.56
8.66
7.31
5.68
3.99
2.54
1.45
0.69
0.11
-0.44
-1.02
-1.56
-1.98
-2.29
-2.59
-3.02
-3.62
-4.31
-5.0
-5.61
-6.22
-7.0
-8.17
-9.86
-12.06
-14.55
-17.0
-18.92
-19.77
-19.15
-16.89
-13.28
-8.92
-4.67
-1.26
0.94
1.99
2.29
2.34
2.51
2.95
3.58
4.2
4.63
4.87
5.06
5.39
6.02
6.92
7.94
8.88
9.58
10.0
10.23
10.39
10.51
10.55
10.41
10.02
9.44
8.79
8.17
7.67
7.3
7.0
6.74
6.42
5.93
5.14
3.97
2.42
0.62
-1.19
-2.82
-4.14
-5.17
-5.98
-6.69
-7.44
-8.31
-9.41
-10.8
-12.49
-14.45
-16.6
-18.73
-20.52
-21.63
-21.68
-20.43
-17.89
-14.36
-10.36
-6.5
-3.22
-0.73
1.0
2.18
2.99
3.53
3.82
3.92
3.9
3.9
4.05
4.41
4.98
5.66
6.37
7.05
7.69
8.27
8.81
9.28
9.64
9.85
9.86
9.62
9.13
8.43
7.67
7.04
6.66
6.53
6.49
6.36
5.98
5.31
4.41
3.39
2.35
1.3
0.21
-0.92
-2.06
-3.12
-4.02
-4.76
-5.49
-6.42
-7.8
-9.73
-12.1
-14.55
-16.57
-17.63
-17.33
-15.59
-12.65
-8.98
-5.19
-1.83
0.73
2.39
3.26
3.64
3.85
4.12
4.55
5.1
5.73
6.35
6.96
7.57
8.19
8.8
9.36
9.85
10.24
10.51
10.6
10.43
9.92
9.07
7.92
6.6
5.22
3.86
2.6
1.49
0.59
-0.06
-0.4
-0.48
-0.4
-0.27
-0.26
-0.41
-0.77
-1.3
-1.97
-2.75
-3.65
-4.65
-5.67
-6.71
-7.81
-9.13
-10.83
-12.99
-15.45
-17.82
-19.54
-20.16
-19.42
-17.42
-14.48
-11.1
-7.74
-4.77
-2.42
-0.74
0.38
1.13
1.72
2.31
2.99
3.76
4.66
5.74
7.03
8.51
10.01
11.32
12.28
12.8
12.95
12.85
12.62
12.31
11.94
11.44
10.79
9.95
8.92
7.77
6.62
5.62
4.89
4.41
4.03
3.54
2.84
1.96
1.05
0.26
-0.36
-0.96
-1.69
-2.64
-3.71
-4.7
-5.42
-5.82
-6.03
-6.29
-6.87
-7.93
-9.5
-11.48
-13.55
-15.36
-16.51
-16.73
-15.93
-14.27
-12.07
-9.65
-7.28
-5.12
-3.19
-1.53
-0.2
0.69
1.09
1.04
0.72
0.41
0.46
1.06
2.27
3.92
5.72
7.4
8.81
9.91
10.77
11.44
11.91
12.1
12.01
11.66
11.16
10.61
10.02
9.37
8.65
7.92
7.29
6.86
6.7
6.71
6.73
6.6
6.23
5.55
4.57
3.3
1.78
0.12
-1.51
-2.97
-4.24
-5.44
-6.81
-8.56
-10.73
-13.14
-15.46
-17.27
-18.24
-18.2
-17.15
-15.22
-12.67
-9.77
-6.78
-3.93
-1.35
0.84
2.52
3.63
4.1
4.02
3.62
3.24
3.24
3.85
5.09
6.81
8.78
10.75
12.54
14.0
15.01
15.49
15.38
14.71
13.59
12.21
10.78
9.5
8.47
7.7
7.15
6.68
6.15
5.47
4.65
3.75
2.86
2.04
1.26
0.4
-0.64
-1.91
-3.37
-4.91
-6.43
-7.82
-9.02
-10.09
-11.14
-12.36
-13.91
-15.85
-17.98
-19.93
-21.16
-21.22
-19.91
-17.36
-13.98
-10.34
-6.96
-4.17
-2.13
-0.8
-0.01
0.42
0.68
0.91
1.2
1.56
2.02
2.57
3.28
4.22
5.41
6.76
8.15
9.41
10.45
11.28
11.92
12.4
12.74
12.86
12.76
12.44
11.92
11.23
10.4
9.4
8.31
7.21
6.2
5.36
4.7
4.12
3.51
2.79
1.94
0.99
-0.03
-1.12
-2.28
-3.45
-4.53
-5.37
-5.92
-6.27
-6.6
-7.19
-8.26
-9.86
-11.86
-13.96
-15.77
-16.91
-17.1
-16.21
-14.31
-11.65
-8.63
-5.63
-2.97
-0.8
0.91
2.23
3.29
4.13
4.73
5.04
5.03
4.8
4.53
4.49
4.84
5.65
6.83
8.11
9.28
10.11
10.53
10.54
10.23
9.76
9.22
8.72
8.29
7.93
7.59
7.2
6.71
6.07
5.27
4.28
3.12
1.83
0.48
-0.8
-1.95
-2.96
-3.89
-4.8
-5.75
-6.68
-7.5
-8.04
-8.26
-8.24
-8.2
-8.42
-9.13
-10.38
-12.06
-13.83
-15.24
-15.91
-15.56
-14.17
-11.94
-9.24
-6.42
-3.79
-1.48
0.45
1.97
3.03
3.63
3.87
3.88
3.88
4.04
4.45
5.1
5.97
7.0
8.18
9.43
10.64
11.68
12.47
13.0
13.28
13.34
13.16
12.68
11.86
10.78
9.62
8.61
7.87
7.34
6.8
6.02
4.87
3.37
1.75
0.19
-1.15
-2.21
-3.03
-3.66
-4.17
-4.63
-5.1
-5.66
-6.34
-7.19
-8.14
-9.13
-10.13
-11.21
-12.47
-14.02
-15.8
-17.61
-19.08
-19.81
-19.53
-18.15
-15.84
-12.93
-9.78
-6.7
-3.91
-1.52
0.39
1.76
2.54
2.8
2.71
2.51
2.5
2.87
3.66
4.77
6.02
7.24
8.39
9.46
10.41
11.22
11.75
11.92
11.66
11.07
10.25
9.33
8.37
7.37
6.29
5.15
4.01
2.97
2.14
1.55
1.14
0.8
0.4
-0.16
-0.88
-1.72
-2.57
-3.39
-4.15
-4.9
-5.67
-6.48
-7.28
-8.03
-8.74
-9.45
-10.29
-11.35
-12.7
-14.28
-15.95
-17.38
-18.2
-18.1
-16.86
-14.51
-11.29
-7.58
-3.82
-0.37
2.51
4.7
6.17
7.04
7.47
7.68
7.83
8.03
8.3
8.62
9.01
9.53
10.24
11.09
11.95
12.64
12.97
12.86
12.38
11.67
10.93
10.31
9.86
9.52
9.14
8.55
7.62
6.32
4.75
3.11
1.62
0.37
-0.65
-1.49
-2.27
-3.04
-3.81
-4.55
-5.22
-5.83
-6.35
-6.75
-7.05
-7.28
-7.51
-7.87
-8.48
-9.44
-10.74
-12.32
-13.94
-15.26
-15.83
-15.31
-13.59
-10.9
-7.73
-4.66
-2.12
-0.26
1.0
1.83
2.32
2.5
2.33
1.89
1.38
1.02
1.02
1.42
2.15
3.04
4.01
5.05
6.16
7.36
8.52
9.47
9.98
9.9
9.22
8.11
6.89
5.88
5.27
5.03
4.93
4.67
4.02
2.98
1.79
0.77
0.15
0.0
0.14
0.32
0.25
-0.2
-1.0
-2.01
-3.03
-3.85
-4.41
-4.74
-5.03
-5.53
-6.43
-7.82
-9.65
-11.71
-13.75
-15.44
-16.48
-16.61
-15.7
-13.8
-11.14
-8.11
-5.09
-2.46
-0.44
0.88
1.55
1.74
1.71
1.71
1.88
2.26
2.74
3.2
3.6
3.93
4.27
4.63
5.0
5.37
5.75
6.25
6.94
7.76
8.52
8.96
8.9
8.35
7.5
6.65
6.03
5.68
5.52
5.39
5.19
4.89
4.56
4.2
3.81
3.36
2.78
2.03
1.11
0.04
-1.16
-2.44
-3.75
-5.02
-6.17
-7.18
-8.05
-8.93
-9.99
-11.43
-13.32
-15.52
-17.68
-19.29
-19.85
-19.07
-16.95
-13.82
-10.2
-6.65
-3.57
-1.17
0.6
1.87
2.81
3.51
4.01
4.28
4.33
4.23
4.12
4.18
4.55
5.26
6.22
7.27
8.26
9.08
9.75
10.29
10.75
11.07
11.17
10.94
10.36
9.52
8.65
7.93
7.44
7.16
6.92
6.56
6.01
5.22
4.22
3.04
1.71
0.25
-1.3
-2.85
-4.31
-5.58
-6.64
-7.48
-8.2
-8.97
-9.97
-11.35
-13.11
-15.05
-16.83
-18.03
-18.26
-17.37
-15.39
-12.59
-9.32
-6.01
-3.03
-0.61
1.11
2.2
2.85
3.26
3.63
4.06
4.54
5.04
5.54
5.99
6.41
6.78
7.1
7.38
7.7
8.09
8.55
9.08
9.56
9.89
9.97
9.69
9.03
8.04
6.88
5.78
4.94
4.49
4.34
4.29
4.1
3.66
3.01
2.3
1.67
1.15
0.64
-0.0
-0.85
-1.88
-2.98
-4.05
-5.05
-6.03
-7.08
-8.28
-9.66
-11.23
-13.02
-14.96
-16.93
-18.67
-19.82
-20.04
-19.12
-17.08
-14.12
-10.62
-6.97
-3.62
-0.91
0.95
1.93
2.17
2.01
1.79
1.81
2.17
2.81
3.6
4.37
5.07
5.73
6.44
7.3
8.32
9.44
10.51
11.35
11.81
11.83
11.44
10.71
9.76
8.7
7.62
6.62
5.8
5.25
5.01
5.04
5.22
5.38
5.43
5.34
5.12
4.89
4.67
4.38
3.93
3.18
2.06
0.61
-1.06
-2.82
-4.59
-6.34
-8.1
-9.9
-11.79
-13.77
-15.82
-17.85
-19.65
-20.9
-21.25
-20.41
-18.34
-15.29
-11.71
-8.18
-5.12
-2.75
-1.05
0.16
1.09
1.89
2.65
3.4
4.15
4.93
5.72
6.51
7.22
7.83
8.33
8.77
9.25
9.84
10.54
11.26
11.83
12.12
12.03
11.6
10.89
10.03
9.09
8.14
7.24
6.46
5.89
5.55
5.39
5.22
4.8
3.92
2.52
0.76
-1.1
-2.74
-3.96
-4.76
-5.29
-5.79
-6.41
-7.25
-8.33
-9.7
-11.38
-13.32
-15.35
-17.08
-18.05
-17.87
-16.42
-13.84
-10.58
-7.11
-3.86
-1.06
1.2
2.93
4.22
5.15
5.88
6.55
7.2
7.83
8.36
8.76
9.08
9.43
9.91
10.53
11.19
11.73
12.03
12.09
12.01
11.94
11.96
12.01
11.96
11.64
11.01
10.13
9.2
8.35
7.68
7.11
6.52
5.76
4.84
3.8
2.75
1.69
0.54
-0.83
-2.46
-4.22
-5.85
-7.12
-7.95
-8.46
-8.95
-9.7
-10.93
-12.69
-14.88
-17.26
-19.52
-21.29
-22.2
-22.02
-20.69
-18.44
-15.63
-12.66
-9.82
-7.28
-5.08
-3.17
-1.5
-0.05
1.19
2.23
3.11
3.89
4.66
5.53
6.51
7.57
8.61
9.5
10.16
10.62
10.93
11.18
11.34
11.34
11.01
10.31
9.3
8.19
7.21
6.55
6.29
6.34
6.58
6.83
6.97
6.89
6.51
5.75
4.59
3.07
1.3
-0.52
-2.22
-3.63
-4.67
-5.33
-5.73
-6.05
-6.48
-7.23
-8.41
-10.06
-12.12
-14.43
-16.76
-18.72
-19.92
-19.97
-18.66
-16.02
-12.4
-8.36
-4.52
-1.36
0.93
2.45
3.48
4.31
5.08
5.77
6.25
6.38
6.1
5.54
4.95
4.59
4.67
5.25
6.22
7.36
8.48
9.42
10.17
10.76
11.17
11.34
11.15
10.55
9.59
8.46
7.44
6.73
6.39
6.3
6.24
6.03
5.5
4.64
3.47
2.07
0.57
-0.88
-2.14
-3.12
-3.84
-4.43
-5.03
-5.83
-6.89
-8.2
-9.67
-11.21
-12.71
-14.06
-15.17
-15.83
-15.74
-14.63
-12.37
-9.14
-5.43
-1.93
0.77
2.44
3.24
3.6
3.93
4.38
4.85
5.15
5.19
5.12
5.24
5.82
6.91
8.32
9.72
10.81
11.5
11.88
12.1
12.32
12.55
12.65
12.42
11.68
10.37
8.61
6.67
4.82
3.24
1.96
0.88
-0.08
-0.93
-1.59
-2.0
-2.23
-2.46
-2.91
-3.74
-4.83
-5.96
-6.88
-7.44
-7.72
-7.9
-8.28
-9.09
-10.52
-12.54
-14.92
-17.16
-18.67
-18.85
-17.47
-14.66
-10.91
-6.9
-3.25
-0.36
1.6
2.7
3.08
2.95
2.53
2.05
1.68
1.51
1.53
1.72
2.04
2.43
2.92
3.52
4.25
5.11
6.12
7.26
8.44
9.58
10.53
11.18
11.44
11.31
10.83
10.14
9.4
8.75
8.23
7.78
7.27
6.62
5.81
4.94
4.15
3.45
2.75
1.84
0.61
-0.94
-2.63
-4.23
-5.58
-6.66
-7.55
-8.29
-8.95
-9.62
-10.48
-11.72
-13.47
-15.58
-17.59
-18.83
-18.75
-17.11
-14.13
-10.39
-6.53
-3.08
-0.34
1.64
2.96
3.86
4.52
5.15
5.8
6.43
6.91
7.12
7.05
6.8
6.54
6.4
6.43
6.55
6.7
6.85
7.06
7.39
7.79
8.16
8.34
8.22
7.77
7.13
6.53
6.14
6.05
6.23
6.48
6.62
6.52
6.21
5.77
5.29
4.78
4.12
3.14
1.7
-0.15
-2.24
-4.33
-6.24
-7.94
-9.5
-11.03
-12.65
-14.31
-15.97
-17.46
-18.59
-19.17
-19.01
-17.95
-15.94
-13.12
-9.74
-6.19
-2.81
0.12
2.48
4.25
5.42
6.06
6.26
6.12
5.82
5.58
5.59
5.97
6.71
7.66
8.65
9.44
9.95
10.2
10.31
10.43
10.67
10.99
11.26
11.28
10.89
10.03
8.77
7.28
5.78
4.42
3.34
2.57
2.05
1.67
1.3
0.87
0.31
-0.4
-1.23
-2.15
-3.1
-4.05
-4.99
-5.94
-7.03
-8.38
-10.08
-12.13
-14.39
-16.57
-18.33
-19.36
-19.41
-18.32
-16.12
-12.97
-9.21
-5.33
-1.84
0.85
2.61
3.6
4.1
4.42
4.72
5.0
5.17
5.22
5.21
5.35
5.78
6.57
7.61
8.73
9.7
10.39
10.78
10.89
10.76
10.44
9.92
9.17
8.2
7.08
5.88
4.72
3.67
2.74
1.85
0.98
0.08
-0.8
-1.62
-2.38
-3.09
-3.83
-4.62
-5.42
-6.11
-6.62
-7.01
-7.39
-7.93
-8.76
-9.91
-11.33
-12.95
-14.71
-16.49
-18.08
-19.1
-19.14
-17.87
-15.23
-11.56
-7.37
-3.28
0.24
3.0
5.03
6.52
7.69
8.63
9.37
9.82
9.9
9.63
9.13
8.61
8.31
8.31
8.61
9.07
9.54
9.92
10.23
10.5
10.73
10.86
10.77
10.38
9.71
8.85
7.94
7.07
6.24
5.33
4.24
2.86
1.21
-0.61
-2.44
-4.08
-5.32
-6.12
-6.52
-6.65
-6.69
-6.7
-6.68
-6.55
-6.3
-5.99
-5.87
-6.21
-7.17
-8.75
-10.67
-12.52
-13.85
-14.31
-13.7
-12.0
-9.43
-6.29
-2.98
0.09
2.61
4.38
5.36
5.65
5.44
4.99
4.53
4.25
4.24
4.5
4.97
5.57
6.25
6.97
7.74
8.47
9.06
9.44
9.6
9.59
9.54
9.5
9.44
9.19
8.61
7.66
6.45
5.18
4.03
3.11
2.38
1.75
1.1
0.35
-0.55
-1.63
-2.85
-4.11
-5.27
-6.21
-6.89
-7.37
-7.82
-8.44
-9.38
-10.71
-12.34
-14.06
-15.61
-16.66
-16.94
-16.21
-14.44
-11.75
-8.47
-5.06
-1.99
0.32
1.75
2.44
2.7
2.9
3.25
3.75
4.24
4.55
4.67
4.75
4.98
5.58
6.51
7.69
8.89
9.96
10.77
11.26
11.42
11.23
10.74
10.03
9.21
8.34
7.47
6.59
5.66
4.67
3.65
2.64
1.71
0.89
0.19
-0.38
-0.8
-1.08
-1.26
-1.44
-1.73
-2.24
-2.97
-3.93
-5.0
-6.12
-7.21
-8.29
-9.43
-10.72
-12.16
-13.63
-14.86
-15.5
-15.21
-13.8
-11.38
-8.27
-4.92
-1.77
0.89
2.91
4.31
5.15
5.53
5.57
5.36
4.97
4.44
3.85
3.26
2.81
2.56
2.55
2.69
2.81
2.81
2.7
2.58
2.59
2.81
3.15
3.46
3.59
3.51
3.32
3.14
3.1
3.25
3.57
4.01
4.48
4.87
5.04
4.9
4.44
3.79
3.13
2.58
2.12
1.61
0.86
-0.24
-1.65
-3.21
-4.76
-6.24
-7.75
-9.37
-11.07
-12.61
-13.6
-13.65
-12.58
-10.49
-7.77
-4.96
-2.53
-0.78
0.27
0.78
0.99
1.13
1.27
1.38
1.36
1.17
0.85
0.58
0.49
0.7
1.19
1.87
2.64
3.43
4.22
5.01
5.77
6.43
6.9
7.12
7.09
6.88
6.53
6.14
5.75
5.4
5.14
4.98
4.88
4.77
4.53
4.0
3.13
1.92
0.48
-1.03
-2.42
-3.56
-4.41
-4.99
-5.47
-6.12
-7.22
-8.99
-11.47
-14.33
-17.02
-18.81
-19.08
-17.66
-14.82
-11.22
-7.62
-4.61
-2.38
-0.83
0.27
1.15
1.85
2.33
2.57
2.65
2.74
3.07
3.75
4.73
5.85
6.93
7.83
8.55
9.13
9.65
10.16
10.57
10.78
10.58
9.89
8.68
7.1
5.38
3.74
2.41
1.46
0.97
0.87
1.15
1.64
2.15
2.45
2.31
1.6
0.39
-1.16
-2.8
-4.35
-5.73
-6.97
-8.14
-9.28
-10.41
-11.54
-12.7
-13.95
-15.31
-16.64
-17.65
-17.91
-17.08
-14.93
-11.64
-7.61
-3.47
0.2
3.0
4.82
5.76
6.03
5.9
5.55
5.13
4.72
4.37
4.08
3.89
3.85
3.98
4.33
4.92
5.68
6.49
7.21
7.72
7.93
7.89
7.63
7.24
6.74
6.13
5.39
4.49
3.44
2.27
1.1
0.07
-0.66
-1.02
-1.06
-0.87
-0.62
-0.44
-0.39
-0.47
-0.68
-1.01
-1.45
-2.0
-2.64
-3.34
-4.11
-5.05
-6.25
-7.77
-9.5
-11.22
-12.62
-13.43
-13.5
-12.76
-11.28
-9.1
-6.44
-3.54
-0.74
1.62
3.34
4.38
4.86
4.92
4.68
4.19
3.57
3.0
2.73
3.01
3.89
5.21
6.7
8.07
9.08
9.71
9.98
9.99
9.84
9.53
9.1
8.52
7.78
6.89
5.92
4.95
4.08
3.39
2.82
2.28
1.66
0.89
-0.03
-1.05
-2.1
-3.16
-4.18
-5.19
-6.2
-7.19
-8.18
-9.21
-10.33
-11.62
-13.13
-14.77
-16.35
-17.53
-17.96
-17.37
-15.68
-12.98
-9.61
-6.0
-2.55
0.36
2.52
3.87
4.48
4.56
4.34
4.06
3.86
3.83
3.93
4.14
4.48
4.97
5.68
6.62
7.7
8.74
9.55
9.91
9.72
9.02
7.95
6.71
5.52
4.48
3.65
2.96
2.3
1.61
0.86
0.09
-0.56
-1.03
-1.23
-1.21
-1.05
-0.92
-0.86
-0.9
-0.98
-1.04
-1.03
-1.02
-1.14
-1.46
-2.05
-2.9
-3.96
-5.24
-6.74
-8.44
-10.21
-11.77
-12.74
-12.8
-11.8
-9.86
-7.39
-4.87
-2.76
-1.28
-0.44
-0.07
0.03
0.02
-0.06
-0.26
-0.58
-0.95
-1.26
-1.34
-1.05
-0.41
0.54
1.63
2.7
3.64
4.34
4.77
4.94
4.89
4.72
4.49
4.25
4.01
3.75
3.43
3.08
2.74
2.47
2.32
2.26
2.22
2.14
2.02
1.89
1.86
1.97
2.24
2.55
2.75
2.68
2.27
1.55
0.58
-0.58
-1.98
-3.65
-5.58
-7.63
-9.53
-10.89
-11.43
-10.99
-9.6
-7.52
-5.06
-2.56
-0.34
1.41
2.57
3.15
3.27
3.09
2.79
2.48
2.23
2.11
2.19
2.59
3.4
4.6
6.07
7.56
8.82
9.66
10.01
9.9
9.44
8.74
7.84
6.82
5.74
4.65
3.64
2.76
2.04
1.45
1.0
0.64
0.39
0.26
0.2
0.15
-0.01
-0.4
-1.1
-2.05
-3.13
-4.21
-5.25
-6.35
-7.6
-9.1
-10.82
-12.64
-14.37
-15.86
-16.98
-17.56
-17.49
-16.57
-14.8
-12.33
-9.52
-6.79
-4.5
-2.78
-1.53
-0.6
0.19
0.9
1.52
2.09
2.72
3.53
4.56
5.75
6.89
7.82
8.41
8.75
8.92
9.03
9.12
9.18
9.2
9.17
9.11
9.02
8.83
8.51
8.04
7.47
6.89
6.33
5.75
5.11
4.35
3.46
2.47
1.42
0.31
-0.87
-2.09
-3.29
-4.36
-5.29
-6.08
-6.8
-7.52
-8.21
-8.87
-9.49
-10.17
-11.07
-12.28
-13.65
-14.8
-15.21
-14.45
-12.43
-9.45
-6.15
-3.17
-0.98
0.3
0.88
1.1
1.32
1.74
2.42
3.25
4.11
4.92
5.66
6.27
6.73
7.0
7.06
6.97
6.86
6.84
7.04
7.38
7.7
7.81
7.56
6.92
5.96
4.87
3.81
2.94
2.35
2.12
2.21
2.57
3.06
3.52
3.82
3.91
3.76
3.41
2.86
2.14
1.21
0.11
-1.06
-2.16
-3.07
-3.74
-4.3
-4.98
-5.97
-7.35
-8.94
-10.38
-11.31
-11.46
-10.75
-9.3
-7.32
-5.08
-2.83
-0.81
0.79
1.87
2.46
2.65
2.61
2.46
2.3
2.27
2.43
2.93
3.85
5.19
6.78
8.39
9.72
10.52
10.65
10.11
9.03
7.68
6.32
5.17
4.26
3.47
2.62
1.62
0.55
-0.37
-0.94
-1.12
-1.09
-1.11
-1.35
-1.82
-2.34
-2.77
-3.1
-3.4
-3.85
-4.45
-5.12
-5.74
-6.29
-6.83
-7.58
-8.67
-10.11
-11.72
-13.13
-13.97
-13.93
-12.86
-10.81
-8.06
-5.0
-2.1
0.27
1.96
3.06
3.72
4.11
4.31
4.3
4.13
3.9
3.81
4.01
4.52
5.18
5.76
6.14
6.29
6.3
6.3
6.37
6.51
6.69
6.85
6.95
6.91
6.64
6.08
5.26
4.37
3.67
3.31
3.32
3.52
3.68
3.56
3.09
2.31
1.33
0.24
-0.91
-2.11
-3.28
-4.35
-5.19
-5.71
-5.94
-6.05
-6.25
-6.79
-7.8
-9.26
-11.0
-12.68
-13.94
-14.46
-14.05
-12.65
-10.37
-7.47
-4.37
-1.51
0.69
1.97
2.35
2.08
1.58
1.25
1.29
1.71
2.36
3.03
3.61
4.08
4.46
4.82
5.15
5.45
5.72
5.98
6.25
6.53
6.81
6.95
6.86
6.51
5.94
5.25
4.6
4.08
3.74
3.53
3.35
3.1
2.72
2.22
1.65
1.02
0.34
-0.43
-1.28
-2.14
-2.89
-3.41
-3.72
-3.94
-4.3
-5.0
-6.14
-7.63
-9.24
-10.68
-11.73
-12.16
-11.92
-10.99
-9.46
-7.5
-5.43
-3.54
-2.04
-0.99
-0.28
0.34
1.03
1.88
2.83
3.7
4.38
4.87
5.29
5.82
6.61
7.65
8.79
9.8
10.54
10.89
10.85
10.43
9.68
8.63
7.38
6.06
4.8
3.67
2.71
1.85
1.02
0.22
-0.58
-1.31
-1.88
-2.23
-2.3
-2.16
-1.92
-1.75
-1.81
-2.2
-2.9
-3.83
-4.87
-5.98
-7.16
-8.42
-9.81
-11.31
-12.85
-14.35
-15.65
-16.58
-16.86
-16.2
-14.43
-11.57
-7.95
-4.08
-0.52
2.29
4.19
5.23
5.63
5.66
5.59
5.63
5.91
6.43
7.1
7.81
8.38
8.76
8.93
8.92
8.75
8.38
7.73
6.75
5.51
4.13
2.83
1.74
1.0
0.65
0.68
1.05
1.67
2.42
3.11
3.62
3.85
3.75
3.36
2.77
2.09
1.43
0.83
0.28
-0.31
-1.07
-2.15
-3.54
-5.17
-6.83
-8.37
-9.68
-10.83
-11.83
-12.77
-13.58
-14.16
-14.43
-14.28
-13.64
-12.44
-10.61
-8.13
-5.13
-1.9
1.14
3.61
5.29
6.21
6.54
6.48
6.23
5.83
5.35
4.87
4.54
4.54
4.91
5.59
6.39
7.11
7.63
7.96
8.19
8.38
8.52
8.52
8.24
7.66
6.87
6.02
5.28
4.75
4.41
4.17
3.97
3.74
3.46
3.19
2.94
2.69
2.41
2.02
1.44
0.64
-0.37
-1.54
-2.8
-4.09
-5.37
-6.63
-7.83
-8.94
-9.96
-10.99
-12.14
-13.5
-14.95
-16.18
-16.73
-16.21
-14.49
-11.79
-8.59
-5.39
-2.59
-0.36
1.32
2.54
3.42
4.06
4.52
4.86
5.1
5.28
5.46
5.6
5.7
5.69
5.51
5.1
4.55
3.95
3.49
3.32
3.45
3.79
4.14
4.25
4.05
3.6
3.13
2.9
3.02
3.4
3.82
4.02
3.91
3.57
3.21
2.95
2.76
2.46
1.81
0.71
-0.7
-2.2
-3.54
-4.59
-5.36
-5.88
-6.23
-6.48
-6.76
-7.25
-8.17
-9.58
-11.37
-13.22
-14.7
-15.49
-15.38
-14.38
-12.65
-10.41
-7.91
-5.37
-3.0
-0.95
0.73
2.09
3.24
4.23
5.07
5.73
6.15
6.36
6.45
6.57
6.84
7.31
7.92
8.5
8.88
8.92
8.61
7.99
7.22
6.42
5.65
4.9
4.13
3.36
2.64
2.05
1.65
1.47
1.42
1.46
1.56
1.73
1.96
2.13
2.11
1.74
0.96
-0.14
-1.37
-2.55
-3.56
-4.47
-5.4
-6.56
-8.1
-10.01
-12.24
-14.54
-16.64
-18.26
-19.15
-19.19
-18.36
-16.81
-14.71
-12.33
-9.91
-7.71
-5.87
-4.5
-3.56
-2.95
-2.57
-2.34
-2.15
-1.97
-1.65
-1.04
-0.05
1.32
2.89
4.42
5.68
6.54
7.01
7.22
7.25
7.22
7.16
7.13
7.19
7.32
7.49
7.57
7.49
7.2
6.76
6.28
5.86
5.55
5.34
5.13
4.81
4.28
3.5
2.47
1.3
0.1
-1.01
-1.97
-2.8
-3.56
-4.34
-5.24
-6.29
-7.47
-8.69
-9.79
-10.49
-10.49
-9.58
-7.75
-5.24
-2.49
0.03
2.01
3.35
4.18
4.73
5.13
5.45
5.62
5.62
5.52
5.46
5.64
6.21
7.2
8.48
9.84
11.04
11.94
12.44
12.54
12.25
11.59
10.6
9.32
7.91
6.55
5.46
4.74
4.41
4.37
4.49
4.66
4.82
4.92
4.91
4.72
4.31
3.71
2.93
2.03
1.01
-0.2
-1.62
-3.29
-5.13
-6.96
-8.6
-9.93
-10.94
-11.71
-12.39
-13.06
-13.79
-14.53
-15.1
-15.29
-14.86
-13.69
-11.79
-9.38
-6.76
-4.24
-2.07
-0.35
0.96
2.01
2.91
3.79
4.68
5.54
6.29
6.88
7.32
7.68
8.09
8.59
9.15
9.67
10.04
10.23
10.24
10.09
9.73
9.05
7.95
6.4
4.55
2.65
0.97
-0.34
-1.21
-1.78
-2.19
-2.64
-3.19
-3.85
-4.5
-4.94
-4.99
-4.6
-3.88
-3.13
-2.65
-2.67
-3.23
-4.21
-5.48
-6.96
-8.63
-10.43
-12.16
-13.48
-13.96
-13.34
-11.62
-9.04
-6.07
-3.15
-0.57
1.57
3.32
4.73
5.82
6.5
6.69
6.35
5.58
4.61
3.73
3.18
3.05
3.32
3.82
4.39
4.92
5.39
5.82
6.24
6.64
6.97
7.2
7.26
7.16
6.87
6.41
5.78
5.07
4.37
3.76
3.24
2.73
2.09
1.24
0.16
-1.02
-2.15
-3.1
-3.86
-4.45
-4.96
-5.43
-5.86
-6.24
-6.67
-7.29
-8.26
-9.62
-11.24
-12.8
-13.94
-14.34
-13.87
-12.6
-10.73
-8.53
-6.28
-4.16
-2.31
-0.8
0.34
1.07
1.36
1.29
0.98
0.66
0.55
0.84
1.55
2.58
3.76
4.92
6.01
7.04
7.99
8.8
9.33
9.51
9.4
9.18
9.05
9.06
9.11
8.99
8.55
7.72
6.61
5.38
4.17
3.07
2.14
1.39
0.86
0.51
0.26
-0.06
-0.56
-1.27
-2.11
-2.96
-3.7
-4.3
-4.76
-5.12
-5.44
-5.88
-6.59
-7.75
-9.41
-11.47
-13.57
-15.28
-16.17
-15.97
-14.63
-12.36
-9.48
-6.39
-3.43
-0.79
1.41
3.13
4.36
5.13
5.46
5.43
5.2
4.97
4.89
5.08
5.54
6.21
6.99
7.77
8.42
8.8
8.91
8.73
8.39
8.05
7.81
7.67
7.54
7.25
6.68
5.8
4.71
3.52
2.4
1.48
0.81
0.38
0.11
-0.17
-0.57
-1.17
-1.93
-2.69
-3.32
-3.77
-4.12
-4.51
-5.17
-6.2
-7.63
-9.37
-11.18
-12.78
-13.8
-13.96
-13.11
-11.36
-8.96
-6.27
-3.59
-1.06
1.22
3.16
4.65
5.58
5.93
5.82
5.54
5.32
5.36
5.64
6.1
6.65
7.27
7.94
8.65
9.32
9.81
10.0
9.79
9.2
8.28
7.17
5.98
4.93
4.18
3.8
3.7
3.69
3.52
3.01
2.06
0.8
-0.59
-1.94
-3.08
-3.89
-4.29
-4.29
-3.99
-3.57
-3.25
-3.22
-3.56
-4.29
-5.34
-6.7
-8.35
-10.23
-12.24
-14.16
-15.68
-16.57
-16.58
-15.66
-13.86
-11.37
-8.46
-5.5
-2.84
-0.75
0.65
1.44
1.8
1.94
2.03
2.08
2.07
2.0
1.94
2.05
2.54
3.49
4.87
6.45
7.84
8.74
8.95
8.49
7.6
6.6
5.78
5.28
5.07
4.95
4.76
4.38
3.88
3.39
3.05
2.93
2.97
3.08
3.13
3.08
2.96
2.84
2.75
2.66
2.4
1.78
0.71
-0.78
-2.55
-4.36
-6.07
-7.7
-9.37
-11.27
-13.4
-15.56
-17.37
-18.36
-18.18
-16.76
-14.31
-11.21
-7.93
-4.83
-2.13
0.13
1.97
3.38
4.31
4.66
4.42
3.69
2.79
2.06
1.85
2.35
3.54
5.17
6.95
8.59
9.84
10.58
10.79
10.55
10.01
9.31
8.55
7.7
6.69
5.46
4.07
2.69
1.56
0.84
0.5
0.39
0.22
-0.16
-0.74
-1.36
-1.81
-1.94
-1.8
-1.55
-1.38
-1.53
-2.12
-3.22
-4.86
-7.03
-9.59
-12.27
-14.69
-16.32
-16.78
-15.85
-13.63
-10.51
-7.08
-3.91
-1.43
0.22
1.11
1.5
1.63
1.66
1.72
1.86
2.14
2.6
3.23
3.97
4.69
5.29
5.73
6.05
6.37
6.78
7.31
7.87
8.35
8.59
8.48
8.0
7.19
6.15
4.99
3.91
3.04
2.46
2.18
2.08
2.0
1.75
1.22
0.38
-0.72
-1.91
-3.08
-4.09
-4.91
-5.52
-5.93
-6.2
-6.42
-6.76
-7.38
-8.5
-10.24
-12.52
-15.08
-17.43
-18.97
-19.17
-17.74
-14.75
-10.61
-5.96
-1.48
2.23
4.85
6.33
6.87
6.8
6.51
6.29
6.27
6.5
6.9
7.39
7.92
8.47
8.93
9.24
9.35
9.27
9.1
8.98
8.97
9.06
9.13
9.08
8.85
8.45
7.91
7.28
6.59
5.88
5.25
4.77
4.42
4.13
3.7
3.04
2.15
1.13
0.19
-0.61
-1.29
-1.98
-2.8
-3.8
-4.92
-6.07
-7.26
-8.55
-10.09
-12.02
-14.3
-16.7
-18.74
-19.92
-19.85
-18.38
-15.73
-12.32
-8.66
-5.13
-1.97
0.68
2.78
4.27
5.12
5.43
5.41
5.37
5.58
6.18
7.16
8.35
9.56
10.62
11.45
12.03
12.46
12.83
13.19
13.5
13.69
13.62
13.2
12.43
11.36
10.12
8.79
7.46
6.18
5.04
4.15
3.54
3.17
2.89
2.58
2.09
1.39
0.48
-0.62
-1.91
-3.4
-5.05
-6.74
-8.36
-9.92
-11.55
-13.46
-15.71
-18.12
-20.22
-21.43
-21.28
-19.61
-16.57
-12.58
-8.18
-3.94
-0.34
2.31
3.96
4.75
5.0
4.96
4.76
4.38
3.8
3.17
2.77
2.98
3.96
5.63
7.62
9.48
10.97
12.01
12.66
13.02
13.1
12.86
12.33
11.55
10.68
9.87
9.2
8.65
8.09
7.43
6.58
5.6
4.63
3.88
3.5
3.5
3.67
3.7
3.29
2.29
0.76
-1.03
-2.81
-4.41
-5.8
-7.08
-8.39
-9.88
-11.61
-13.59
-15.68
-17.6
-18.91
-19.09
-17.83
-15.14
-11.43
-7.34
-3.57
-0.56
1.58
2.97
3.84
4.4
4.71
4.81
4.78
4.77
4.96
5.53
6.47
7.71
8.98
10.07
10.83
11.25
11.42
11.47
11.45
11.25
10.78
9.96
8.89
7.81
6.93
6.35
5.97
5.55
4.88
3.93
2.88
1.98
1.46
1.32
1.4
1.49
1.4
1.08
0.52
-0.2
-1.07
-2.0
-2.93
-3.76
-4.45
-5.03
-5.66
-6.57
-7.95
-9.87
-12.13
-14.36
-16.08
-16.83
-16.37
-14.69
-12.0
-8.68
-5.19
-1.9
0.88
3.03
4.55
5.55
6.15
6.46
6.55
6.46
6.22
5.9
5.65
5.59
5.85
6.46
7.24
8.01
8.55
