0
36.34
27.32
19.2
13.22
10.08
9.81
11.78
15.0
18.48
21.52
23.8
25.31
26.05
25.9
24.6
21.89
17.66
12.11
5.64
-1.25
-8.09
-14.56
-20.47
-25.75
-30.44
-34.72
-38.93
-43.55
-49.07
-55.76
-63.44
-71.26
-77.77
-81.11
-79.58
-72.12
-58.73
-40.53
-19.56
1.83
21.5
37.98
50.51
58.9
63.27
63.87
61.04
55.36
47.78
39.52
31.88
25.91
22.21
20.79
21.24
22.96
25.37
27.95
30.3
31.97
32.58
31.79
29.49
25.84
21.2
16.03
10.71
5.41
0.07
-5.46
-11.28
-17.32
-23.28
-28.77
-33.46
-37.31
-40.6
-43.85
-47.73
-52.87
-59.59
-67.7
-76.29
-83.74
-87.93
-86.81
-79.1
-64.81
-45.3
-22.93
-0.31
20.32
37.54
50.67
59.55
64.26
65.05
62.36
56.91
49.73
41.97
34.76
28.96
25.13
23.41
23.69
25.66
28.84
32.68
36.57
39.86
41.92
42.25
40.58
36.98
31.86
25.85
19.6
13.59
8.01
2.72
-2.56
-8.09
-13.91
-19.85
-25.5
-30.49
-34.64
-38.09
-41.31
-44.99
-49.82
-56.21
-64.02
-72.45
-80.01
-84.81
-85.02
-79.4
-67.67
-50.67
-30.16
-8.35
12.57
30.87
45.46
55.81
61.84
63.73
61.91
57.01
49.93
41.75
33.59
26.47
21.14
17.96
16.95
17.82
20.08
23.16
26.45
29.36
31.4
32.19
31.55
29.48
26.15
21.8
16.69
11.07
5.16
-0.87
-6.87
-12.74
-18.4
-23.82
-28.93
-33.67
-38.13
-42.56
-47.42
-53.2
-60.11
-67.74
-74.9
-79.81
-80.54
-75.69
-64.88
-48.87
-29.4
-8.65
11.34
28.95
43.21
53.64
60.04
62.36
60.75
55.57
47.61
38.08
28.46
20.21
14.45
11.7
11.74
13.81
16.86
19.93
22.37
23.93
24.65
24.63
23.86
22.13
19.14
14.67
8.73
1.71
-5.82
-13.22
-20.07
-26.25
-31.96
-37.55
-43.44
-49.95
-57.32
-65.46
-73.83
-81.27
-86.07
-86.37
-80.72
-68.65
-50.95
-29.48
-6.64
15.27
34.45
49.81
60.82
67.32
69.42
67.49
62.21
54.55
45.68
36.81
29.01
23.1
19.5
18.28
19.14
21.5
24.64
27.83
30.49
32.17
32.65
31.85
29.8
26.57
22.23
16.86
10.62
3.79
-3.28
-10.19
-16.64
-22.51
-27.91
-33.08
-38.3
-43.86
-50.0
-56.91
-64.63
-72.78
-80.31
-85.51
-86.31
-81.05
-69.08
-51.15
-29.22
-5.89
16.38
35.77
51.26
62.45
69.31
71.95
70.65
65.96
58.77
50.2
41.49
33.75
27.79
24.0
22.4
22.68
24.39
26.98
29.92
32.66
34.71
35.62
35.13
33.2
30.03
25.94
21.25
16.1
10.45
4.18
-2.73
-10.16
-17.73
-25.01
-31.59
-37.28
-42.12
-46.42
-50.68
-55.5
-61.35
-68.35
-75.92
-82.71
-86.8
-86.23
-79.65
-66.82
-48.76
-27.44
-5.2
15.8
33.94
48.27
58.35
64.07
65.48
62.86
56.76
48.15
38.38
28.95
21.25
16.16
13.94
14.22
16.28
19.29
22.57
25.62
28.11
29.83
30.58
30.25
28.77
26.02
21.97
16.6
10.04
2.66
-5.0
-12.38
-19.05
-24.89
-30.08
-35.03
-40.2
-46.01
-52.78
-60.5
-68.78
-76.59
-82.34
-84.21
-80.64
-70.86
-55.26
-35.29
-13.13
8.94
28.96
45.56
57.99
65.98
69.58
69.05
64.9
57.87
49.02
39.59
30.83
23.75
18.95
16.5
16.04
17.02
18.83
21.01
23.18
25.02
26.15
26.24
25.05
22.5
18.71
13.9
8.29
2.11
-4.5
-11.35
-18.22
-24.87
-31.11
-36.8
-41.98
-46.84
-51.77
-57.26
-63.78
-71.44
-79.73
-87.32
-92.26
-92.42
-86.23
-73.29
-54.56
-32.06
-8.34
14.23
33.85
49.46
60.6
67.23
69.59
68.17
63.61
56.79
48.7
40.4
32.89
27.01
23.29
21.81
22.35
24.38
27.33
30.62
33.71
36.12
37.39
37.17
35.32
31.99
27.5
22.23
16.46
10.32
3.8
-3.01
-10.0
-16.86
-23.33
-29.24
-34.57
-39.55
-44.48
-49.8
-55.92
-63.08
-71.1
-79.1
-85.54
-88.46
-86.08
-77.44
-62.77
-43.47
-21.69
0.3
20.57
37.77
51.15
60.38
65.39
66.31
63.53
57.66
49.63
40.55
31.62
23.92
18.26
15.0
14.1
15.13
17.47
20.46
23.52
26.19
28.12
29.05
28.77
27.12
24.06
19.65
14.11
7.77
1.04
-5.7
-12.15
-18.19
-23.76
-28.94
-33.88
-38.91
-44.42
-50.82
-58.26
-66.36
-74.0
-79.49
-80.94
-76.95
-67.02
-51.85
-33.08
-12.82
6.95
24.76
39.68
51.23
59.09
63.01
62.84
58.8
51.57
42.39
32.74
24.06
17.37
13.08
11.05
10.77
11.67
13.27
15.23
17.31
19.23
20.61
20.99
19.94
17.16
12.63
6.67
-0.17
-7.23
-13.99
-20.22
-25.98
-31.55
-37.29
-43.57
-50.68
-58.77
-67.64
-76.5
-83.89
-87.86
-86.52
-78.75
-64.63
-45.5
-23.54
-1.13
19.74
37.68
51.89
61.94
67.65
69.09
66.61
60.92
53.01
44.02
35.1
27.3
21.39
17.79
16.45
16.9
18.48
20.52
22.57
24.38
25.84
26.78
26.88
25.74
23.04
18.7
12.89
6.04
-1.35
-8.8
-15.91
-22.44
-28.3
-33.64
-38.82
-44.38
-50.86
-58.51
-67.01
-75.27
-81.57
-83.89
-80.55
-70.75
-54.97
-34.84
-12.74
8.91
28.14
43.79
55.45
63.14
67.01
67.22
63.99
57.79
49.46
40.23
31.47
24.4
19.75
17.69
17.84
19.49
21.83
24.19
26.13
27.42
27.96
27.72
26.67
24.69
21.66
17.49
12.18
5.97
-0.74
-7.44
-13.7
-19.29
-24.24
-28.85
-33.51
-38.7
-44.83
-52.12
-60.46
-69.22
-77.12
-82.38
-83.15
-78.02
-66.62
-49.79
-29.38
-7.72
12.97
31.06
45.62
56.23
62.77
65.19
63.55
58.16
49.78
39.67
29.39
20.46
13.99
10.43
9.54
10.62
12.8
15.36
17.88
20.14
22.04
23.39
23.81
22.83
20.06
15.42
9.21
2.11
-5.11
-11.79
-17.64
-22.74
-27.49
-32.34
-37.71
-43.93
-51.17
-59.28
-67.63
-74.93
-79.41
-79.19
-72.96
-60.45
-42.65
-21.52
0.53
21.26
38.99
52.71
62.02
66.89
67.53
64.38
58.08
49.56
40.0
30.67
22.79
17.27
14.49
14.29
16.05
18.97
22.25
25.28
27.64
29.05
29.29
28.2
25.7
21.82
16.73
10.69
3.99
-3.07
-10.22
-17.21
-23.83
-29.96
-35.57
-40.77
-45.79
-50.99
-56.78
-63.52
-71.26
-79.43
-86.71
-91.18
-90.79
-84.05
-70.64
-51.59
-29.03
-5.49
16.66
35.68
50.56
60.82
66.39
67.53
64.8
59.06
51.43
43.08
35.15
28.61
24.14
22.12
22.49
24.85
28.48
32.55
36.31
39.21
40.95
41.39
40.51
38.33
34.92
30.43
24.99
18.79
12.01
4.85
-2.4
-9.46
-16.01
-21.89
-27.09
-31.83
-36.49
-41.57
-47.51
-54.53
-62.47
-70.52
-77.23
-80.68
-79.05
-71.19
-57.15
-38.23
-16.66
5.05
24.75
41.02
53.19
61.08
64.79
64.47
60.45
53.38
44.29
34.56
25.65
18.77
14.58
13.06
13.61
15.36
17.51
19.6
21.49
23.19
24.58
25.3
24.76
22.42
18.01
11.76
4.3
-3.51
-10.83
-17.19
-22.52
-27.17
-31.78
-37.03
-43.42
-51.1
-59.61
-67.87
-74.37
-77.45
-75.71
-68.46
-55.91
-39.12
-19.79
0.15
18.91
35.05
47.55
55.82
59.62
59.01
54.47
46.85
37.35
27.37
18.23
10.99
6.21
3.97
3.94
5.56
8.2
11.25
14.18
16.49
17.73
17.46
15.41
11.52
6.06
-0.44
-7.25
-13.73
-19.55
-24.8
-30.01
-35.96
-43.28
-52.12
-61.83
-70.88
-77.22
-78.77
-74.11
-62.96
-46.3
-26.1
-4.74
15.63
33.41
47.68
57.98
64.14
66.07
63.92
58.19
49.88
40.45
31.42
24.05
19.0
16.31
15.54
16.1
17.48
19.35
21.48
23.62
25.35
26.11
25.36
22.69
18.02
11.68
4.27
-3.42
-10.69
-17.11
-22.69
-27.81
-33.09
-39.19
-46.55
-55.1
-64.15
-72.32
-77.73
-78.51
-73.27
-61.69
-44.66
-24.1
-2.42
18.13
35.89
49.96
60.0
65.97
67.88
65.86
60.33
52.17
42.71
33.5
25.97
21.1
19.13
19.66
21.84
24.69
27.41
29.5
30.8
31.3
30.99
29.81
27.58
24.09
19.24
13.09
5.96
-1.65
-9.2
-16.23
-22.48
-27.89
-32.61
-36.97
-41.38
-46.37
-52.43
-59.76
-68.02
-76.06
-81.99
-83.67
-79.34
-68.34
-51.46
-30.72
-8.74
12.0
29.73
43.56
53.29
58.98
60.79
58.86
53.57
45.69
36.45
27.33
19.73
14.59
12.17
12.13
13.73
16.16
18.75
21.06
22.78
23.75
23.74
22.57
20.05
16.07
10.58
3.73
-4.13
-12.48
-20.68
-28.18
-34.65
-40.06
-44.7
-49.08
-53.86
-59.66
-66.89
-75.51
-84.74
-93.07
-98.53
-99.16
-93.75
-82.21
-65.76
-46.49
-26.84
-8.87
6.04
17.36
25.18
29.89
31.96
31.9
30.3
27.95
25.9
25.22
26.78
30.87
37.13
44.68
52.43
59.45
65.13
69.14
71.35
71.63
69.93
66.28
60.92
54.22
46.6
38.38
29.82
21.1
12.46
4.13
-3.63
-10.68
-17.01
-22.8
-28.39
-34.28
-41.0
-48.89
-57.8
-66.87
-74.44
-78.44
-76.94
-68.86
-54.39
-34.96
-12.93
9.09
28.86
44.86
56.39
63.38
66.16
65.28
61.38
55.25
47.83
40.19
33.35
28.09
24.83
23.6
24.11
25.93
28.59
31.62
34.51
36.74
37.84
37.48
35.53
32.07
27.34
21.66
15.42
8.94
2.52
-3.65
-9.51
-15.07
-20.35
-25.31
-29.83
-33.88
-37.57
-41.29
-45.61
-51.13
-58.08
-66.08
-73.93
-79.77
-81.54
-77.61
-67.3
-51.26
-31.25
-9.68
11.1
29.26
43.74
54.16
60.51
63.01
61.95
57.78
51.2
43.15
34.77
27.21
21.41
17.96
16.97
18.08
20.59
23.68
26.58
28.71
29.74
29.52
28.02
25.34
21.62
17.07
11.94
6.42
0.65
-5.24
-11.11
-16.81
-22.12
-26.94
-31.29
-35.39
-39.6
-44.34
-49.98
-56.63
-63.94
-71.01
-76.38
-78.29
-75.15
-66.13
-51.52
-32.77
-12.08
8.18
26.11
40.55
51.08
57.73
60.67
60.09
56.27
49.71
41.31
32.33
24.12
17.88
14.32
13.49
14.84
17.49
20.51
23.21
25.17
26.19
26.14
24.91
22.4
18.59
13.68
7.99
1.89
-4.32
-10.43
-16.37
-22.06
-27.45
-32.51
-37.27
-41.91
-46.74
-52.15
-58.44
-65.61
-73.16
-79.89
-84.05
-83.75
-77.56
-65.07
-47.17
-25.84
-3.59
17.27
35.1
49.05
58.89
64.7
66.62
64.9
60.02
52.83
44.49
36.27
29.29
24.3
21.57
20.98
22.1
24.4
27.28
30.2
32.61
34.05
34.16
32.71
29.72
25.45
20.34
14.87
9.42
4.11
-1.18
-6.69
-12.62
-18.96
-25.48
-31.75
-37.36
-42.08
-46.01
-49.55
-53.39
-58.22
-64.43
-71.8
-79.25
-84.96
-86.78
-82.94
-72.66
-56.5
-36.16
-14.03
7.54
26.69
42.26
53.71
60.93
64.03
63.36
59.47
53.19
45.58
37.77
30.8
25.46
22.12
20.79
21.19
22.83
25.23
27.92
30.45
32.4
33.39
33.12
31.48
28.54
24.54
19.77
14.46
8.74
2.63
-3.81
-10.45
-17.04
-23.28
-28.92
-33.89
-38.34
-42.6
-47.17
-52.54
-59.01
-66.41
-73.91
-80.05
-82.95
-80.93
-73.0
-59.29
-41.01
-20.14
1.05
20.57
36.95
49.32
57.33
61.01
60.66
56.86
50.36
42.21
33.58
25.64
19.38
15.39
13.73
13.98
15.42
17.31
19.1
20.51
21.48
22.0
21.97
21.18
19.34
16.18
11.63
5.85
-0.71
-7.53
-14.1
-20.15
-25.66
-30.77
-35.75
-40.88
-46.49
-52.87
-60.14
-67.95
-75.26
-80.36
-81.32
-76.59
-65.65
-49.28
-29.3
-8.03
12.39
30.37
44.97
55.76
62.55
65.35
64.36
60.03
53.1
44.64
35.85
27.9
21.77
17.99
16.61
17.23
19.19
21.77
24.37
26.55
27.99
28.42
27.6
25.45
22.01
17.53
12.33
6.67
0.76
-5.32
-11.52
-17.77
-23.94
-29.88
-35.44
-40.64
-45.59
-50.66
-56.33
-63.03
-70.87
-79.25
-86.73
-91.27
-90.77
-83.81
-70.24
-51.22
-28.88
-5.7
16.12
34.97
49.91
60.52
66.7
68.62
66.74
61.77
54.68
46.63
38.74
32.05
27.23
24.63
24.14
25.36
27.71
30.58
33.39
35.65
37.0
37.17
36.05
33.69
30.27
25.97
20.96
15.35
9.18
2.53
-4.49
-11.67
-18.75
-25.48
-31.64
-37.1
-41.93
-46.48
-51.31
-57.06
-64.08
-72.03
-79.7
-85.14
-86.25
-81.46
-70.35
-53.84
-33.87
-12.76
7.38
25.04
39.41
50.13
57.08
60.15
59.38
55.05
47.88
39.05
30.03
22.22
16.62
13.59
12.82
13.62
15.25
17.21
19.27
21.36
23.35
24.91
25.51
24.58
21.72
16.87
10.39
2.99
-4.5
-11.35
-17.17
-22.07
-26.55
-31.33
-37.1
-44.26
-52.74
-61.92
-70.61
-77.24
-80.13
-77.9
-69.86
-56.26
-38.32
-17.87
3.0
22.44
39.09
52.08
60.94
65.5
65.82
62.27
55.61
46.94
37.6
28.91
21.9
17.13
14.64
14.03
14.69
16.05
17.69
19.38
20.92
22.04
22.25
21.02
17.89
12.8
6.09
-1.49
-9.11
-16.13
-22.28
-27.67
-32.66
-37.75
-43.43
-50.14
-58.1
-67.05
-76.11
-83.63
-87.55
-85.95
-77.75
-63.15
-43.64
-21.54
0.68
20.96
37.99
51.13
60.2
65.21
66.27
63.66
57.95
50.09
41.39
33.22
26.74
22.62
20.87
21.01
22.31
24.11
25.96
27.67
29.15
30.19
30.45
29.52
27.04
22.85
17.11
10.2
2.67
-4.86
-11.88
-18.05
-23.31
-27.85
-32.07
-36.52
-41.72
-48.11
-55.74
-64.14
-72.19
-78.17
-80.16
-76.62
-66.85
-51.33
-31.66
-10.07
11.12
30.03
45.45
56.78
63.82
66.67
65.57
61.03
53.85
45.17
36.29
28.47
22.63
19.19
18.03
18.62
20.29
22.44
24.67
26.75
28.47
29.62
29.86
28.85
26.32
22.22
16.72
10.2
3.19
-3.81
-10.37
-16.29
-21.59
-26.5
-31.33
-36.49
-42.33
-49.13
-56.98
-65.53
-73.84
-80.35
-83.16
-80.59
-71.81
-57.22
-38.37
-17.44
3.34
22.2
37.98
49.95
57.7
61.02
60.01
55.25
47.79
39.04
30.39
22.95
17.35
13.79
12.1
11.92
12.82
14.4
16.28
18.14
19.61
20.24
19.53
17.07
12.71
6.71
-0.27
-7.35
-13.74
-19.03
-23.33
-27.17
-31.31
-36.49
-43.11
-51.13
-59.87
-67.97
-73.68
-75.16
-71.03
-60.86
-45.35
-26.14
-5.37
14.84
32.82
47.48
58.26
64.94
67.48
66.08
61.19
53.67
44.72
35.74
28.04
22.5
19.42
18.48
19.0
20.25
21.66
22.89
23.81
24.29
24.19
23.28
21.27
17.94
13.15
6.98
-0.2
-7.77
-15.0
-21.32
-26.55
-30.98
-35.27
-40.17
-46.25
-53.74
-62.33
-71.11
-78.61
-82.97
-82.36
-75.58
-62.43
-44.0
-22.37
-0.01
20.83
38.62
52.56
62.41
68.17
69.92
67.83
62.37
54.4
45.17
36.12
28.58
23.41
20.82
20.44
21.5
23.17
24.84
26.24
27.27
27.94
28.09
27.41
25.52
22.13
17.17
10.86
3.68
-3.75
-10.89
-17.38
-23.14
-28.29
-33.1
-37.93
-43.17
-49.2
-56.29
-64.28
-72.39
-79.12
-82.51
-80.72
-72.7
-58.62
-39.86
-18.66
2.58
21.9
38.0
50.25
58.44
62.48
62.4
58.42
51.13
41.64
31.45
22.22
15.26
11.25
10.08
11.0
13.01
15.3
17.4
19.23
20.77
21.88
22.13
20.97
17.93
12.95
6.44
-0.82
-7.98
-14.47
-20.13
-25.24
-30.33
-35.96
-42.53
-50.2
-58.73
-67.3
-74.54
-78.69
-78.01
-71.38
-58.73
-41.17
-20.62
0.65
20.63
37.92
51.68
61.49
67.16
68.69
66.27
60.44
52.16
42.71
33.5
25.8
20.51
17.92
17.78
19.37
21.82
24.25
26.03
26.83
26.58
25.39
23.38
20.65
17.13
12.72
7.31
0.99
-5.99
-13.18
-20.07
-26.27
-31.65
-36.33
-40.67
-45.15
-50.26
-56.42
-63.81
-72.16
-80.54
-87.37
-90.59
-88.28
-79.31
-63.84
-43.33
-20.2
2.91
23.79
41.04
54.06
62.8
67.44
68.26
65.68
60.35
53.2
45.4
38.13
32.39
28.74
27.28
27.64
29.27
31.58
34.13
36.62
38.74
40.07
40.07
38.3
34.66
29.46
23.4
17.2
11.34
5.87
0.51
-5.08
-11.05
-17.25
-23.3
-28.82
-33.6
-37.7
-41.42
-45.26
-49.81
-55.56
-62.69
-70.8
-78.65
-84.37
-85.84
-81.42
-70.47
-53.71
-33.0
-10.76
10.64
29.4
44.44
55.28
61.79
64.03
62.27
57.07
49.42
40.65
32.23
25.42
21.01
19.13
19.41
21.12
23.49
25.9
27.95
29.4
30.11
29.95
28.84
26.68
23.41
18.98
13.46
7.0
-0.04
-7.22
-14.1
-20.37
-25.93
-30.89
-35.44
-39.89
-44.6
-49.98
-56.33
-63.56
-70.88
-76.74
-79.14
-76.31
-67.36
-52.74
-34.02
-13.4
6.93
25.29
40.63
52.37
60.19
63.89
63.48
59.28
52.08
43.06
33.69
25.44
19.42
16.19
15.64
17.06
19.47
21.95
23.83
24.83
24.95
24.26
22.76
20.35
16.88
12.26
6.53
-0.09
-7.22
-14.4
-21.22
-27.36
-32.75
-37.53
-42.08
-46.93
-52.59
-59.38
-67.21
-75.34
-82.38
-86.5
-85.87
-79.28
-66.49
-48.45
-27.04
-4.53
16.88
35.51
50.29
60.73
66.74
68.57
66.75
62.04
55.37
47.77
40.24
33.67
28.74
25.84
24.98
25.83
27.85
30.4
32.89
34.86
35.97
35.93
34.55
31.75
27.63
22.5
16.78
10.84
4.88
-1.08
-7.13
-13.31
-19.5
-25.47
-30.91
-35.65
-39.74
-43.52
-47.55
-52.5
-58.85
-66.55
-74.82
-82.08
-86.25
-85.38
-78.23
-64.75
-46.13
-24.48
-2.16
18.7
36.6
50.68
60.59
66.29
67.94
65.93
60.98
54.09
46.47
39.27
33.36
29.21
26.87
26.13
26.69
28.23
30.42
32.83
34.9
36.05
35.8
33.98
30.74
26.51
21.72
16.66
11.36
5.71
-0.39
-6.88
-13.49
-19.87
-25.74
-31.02
-35.88
-40.58
-45.51
-50.99
-57.29
-64.41
-71.94
-78.9
-83.77
-84.81
-80.65
-70.76
-55.72
-37.05
-16.77
3.11
21.03
35.93
47.16
54.38
57.41
56.32
51.61
44.21
35.42
26.72
19.35
14.14
11.3
10.51
11.2
12.71
14.6
16.59
18.48
20.02
20.84
20.45
18.42
14.59
9.13
2.57
-4.35
-10.94
-16.75
-21.72
-26.16
-30.65
-35.83
-42.23
-49.99
-58.76
-67.53
-74.71
-78.44
-77.11
-69.83
-56.8
-39.25
-19.12
1.48
20.72
37.29
50.38
59.54
64.55
65.42
62.45
56.38
48.34
39.71
31.78
25.51
21.3
19.06
18.33
18.53
19.18
19.98
20.78
21.5
21.92
21.71
20.37
17.48
12.82
6.59
-0.63
-8.05
-14.96
-21.02
-26.38
-31.52
-37.07
-43.57
-51.23
-59.84
-68.64
-76.35
-81.29
-81.78
-76.57
-65.34
-48.87
-28.88
-7.57
12.97
31.08
45.79
56.56
63.22
65.75
64.34
59.47
52.03
43.26
34.63
27.47
22.66
20.44
20.36
21.57
23.18
24.54
25.43
25.91
26.11
25.96
25.16
23.28
19.97
15.16
9.06
2.19
-4.84
-11.47
-17.38
-22.48
-26.98
-31.3
-35.98
-41.57
-48.43
-56.51
-65.13
-72.93
-78.04
-78.61
-73.35
-61.96
-45.36
-25.35
-4.13
16.21
34.09
48.55
59.08
65.49
67.8
66.24
61.31
53.87
45.06
36.17
28.41
22.68
19.34
18.25
18.82
20.31
22.05
23.55
24.6
25.09
24.95
24.08
22.35
19.66
15.96
11.28
5.75
-0.44
-6.98
-13.57
-19.89
-25.74
-31.12
-36.2
-41.26
-46.69
-52.8
-59.78
-67.44
-75.1
-81.48
-84.97
-83.94
-77.3
-64.94
-47.81
-27.68
-6.66
13.3
30.67
44.4
53.87
58.76
59.1
55.35
48.48
39.84
30.89
22.88
16.6
12.28
9.72
8.56
8.5
9.37
11.04
13.25
15.52
17.15
17.42
15.83
12.27
7.04
0.73
-5.96
-12.46
-18.45
-23.96
-29.32
-35.1
-41.89
-49.99
-59.09
-68.09
-75.21
-78.41
-76.03
-67.35
-52.85
-34.07
-13.11
7.86
27.07
43.22
55.48
63.31
66.49
65.21
60.15
52.51
43.77
35.32
28.2
22.86
19.27
17.14
16.14
16.02
16.7
18.04
19.75
21.31
22.06
21.37
18.79
14.27
8.11
0.97
-6.37
-13.22
-19.19
-24.36
-29.19
-34.47
-40.91
-48.94
-58.33
-68.03
-76.31
-81.05
-80.36
-73.17
-59.62
-41.03
-19.56
2.38
22.71
40.01
53.52
62.96
68.29
69.62
67.24
61.7
53.92
45.13
36.68
29.75
25.12
22.92
22.75
23.81
25.3
26.59
27.45
27.86
27.9
27.51
26.45
24.35
20.9
15.96
9.73
2.67
-4.62
-11.59
-17.89
-23.41
-28.34
-32.99
-37.76
-43.06
-49.22
-56.43
-64.47
-72.59
-79.37
-82.98
-81.6
-74.08
-60.44
-41.91
-20.68
0.86
20.65
37.38
50.38
59.39
64.26
64.94
61.61
54.97
46.28
37.09
28.93
22.78
18.98
17.24
16.94
17.45
18.29
19.21
20.06
20.7
20.93
20.44
18.91
16.09
11.86
6.35
-0.03
-6.67
-12.98
-18.56
-23.37
-27.75
-32.26
-37.49
-43.85
-51.41
-59.72
-67.71
-73.81
-76.2
-73.36
-64.59
-50.28
-31.89
-11.5
8.75
27.14
42.49
54.12
61.63
64.82
63.72
58.79
50.93
41.49
31.99
23.79
17.87
14.6
13.78
14.75
16.7
18.81
20.55
21.68
22.15
21.97
21.08
19.24
16.18
11.72
5.87
-1.04
-8.48
-15.88
-22.77
-28.98
-34.58
-39.84
-45.1
-50.74
-57.09
-64.3
-72.19
-80.01
-86.36
-89.4
-87.33
-78.99
-64.34
-44.55
-21.74
1.64
23.4
41.9
56.21
65.92
70.98
71.6
68.3
61.93
53.65
44.79
36.64
30.2
26.04
24.24
24.46
26.1
28.46
30.86
32.77
33.85
33.91
32.93
30.9
27.84
23.74
18.6
12.47
5.56
-1.77
-9.05
-15.86
-21.93
-27.19
-31.82
-36.09
-40.35
-44.97
-50.34
-56.78
-64.26
-72.12
-78.99
-82.94
-81.97
-74.72
-60.95
-41.78
-19.33
3.81
25.31
43.46
57.35
66.66
71.45
72.01
68.79
62.53
54.27
45.27
36.85
30.06
25.53
23.36
23.15
24.28
26.03
27.83
29.27
30.12
30.27
29.7
28.38
26.29
23.33
19.41
14.47
8.56
1.86
-5.27
-12.43
-19.19
-25.28
-30.56
-35.13
-39.26
-43.37
-47.96
-53.48
-60.09
-67.44
-74.49
-79.58
-80.89
-76.87
-66.88
-51.44
-32.14
-11.18
9.18
27.15
41.64
52.12
58.48
60.78
59.2
54.16
46.48
37.37
28.26
20.56
15.24
12.59
12.32
13.66
15.75
17.91
19.76
21.16
22.05
22.26
21.48
19.37
15.65
10.35
3.82
-3.34
-10.41
-16.82
-22.35
-27.15
-31.67
-36.51
-42.16
-48.92
-56.7
-64.94
-72.57
-78.05
-79.68
-76.02
-66.39
-51.18
-31.81
-10.38
10.85
30.05
45.96
58.0
65.97
69.91
69.95
66.43
59.95
51.47
42.23
33.54
26.54
21.97
19.99
20.24
21.94
24.22
26.33
27.78
28.38
28.15
27.12
25.33
22.72
19.21
14.76
9.43
3.39
-3.12
-9.81
-16.4
-22.67
-28.47
-33.78
-38.7
-43.47
-48.4
-53.88
-60.24
-67.56
-75.39
-82.62
-87.51
-88.08
-82.74
-70.89
-53.2
-31.52
-8.28
14.12
33.82
49.7
61.22
68.27
70.98
69.73
65.23
58.49
50.73
43.2
36.9
32.43
29.94
29.21
29.82
31.33
33.38
35.68
37.9
39.62
40.28
39.36
36.57
32.06
26.37
20.22
14.22
8.57
3.07
-2.65
-8.86
-15.54
-22.31
-28.66
-34.2
-38.79
-42.6
-46.04
-49.63
-53.96
-59.5
-66.37
-74.02
-81.11
-85.64
-85.55
-79.4
-66.98
-49.4
-28.75
-7.4
12.61
29.86
43.64
53.59
59.55
61.46
59.48
54.13
46.42
37.68
29.33
22.52
17.93
15.72
15.54
16.8
18.84
21.07
23.06
24.54
25.35
25.35
24.42
22.4
19.11
14.48
8.59
1.76
-5.46
-12.46
-18.75
-24.13
-28.71
-32.9
-37.2
-42.16
-48.13
-55.21
-63.0
-70.48
-76.08
-78.0
-74.72
-65.55
-50.9
-32.23
-11.62
8.83
27.35
42.78
54.47
62.11
65.6
65.1
61.06
54.3
45.97
37.33
29.57
23.54
19.63
17.72
17.38
17.96
18.92
19.86
20.57
20.96
21.0
20.51
19.27
16.95
13.29
8.23
1.95
-5.09
-12.34
-19.27
-25.53
-31.02
-35.91
-40.52
-45.29
-50.72
-57.22
-64.91
-73.3
-81.17
-86.58
-87.49
-82.32
-70.61
-53.23
-32.11
-9.63
11.99
31.14
46.84
58.55
66.0
69.14
68.15
63.63
56.58
48.21
39.78
32.38
26.76
23.32
22.02
22.54
24.29
26.59
28.83
30.55
31.46
31.43
30.42
28.39
25.35
21.34
16.46
10.86
4.73
-1.74
-8.37
-14.92
-21.17
-26.88
-31.98
-36.55
-40.94
-45.66
-51.26
-58.1
-66.03
-74.2
-81.04
-84.56
-82.92
-75.02
-60.98
-42.1
-20.55
1.31
21.45
38.51
51.77
60.93
65.92
66.82
63.94
57.91
49.72
40.61
31.86
24.57
19.43
16.66
16.02
16.96
18.78
20.87
22.73
24.07
24.67
24.36
22.95
20.32
16.44
11.44
5.63
-0.56
-6.73
-12.57
-17.93
-22.83
-27.45
-32.04
-36.98
-42.63
-49.27
-56.88
-64.96
-72.37
-77.47
-78.49
-74.12
-63.95
-48.7
-29.99
-9.86
9.74
27.32
41.84
52.66
59.28
61.49
59.39
53.67
45.53
36.49
28.03
21.13
16.23
13.2
11.66
11.16
11.36
12.02
12.97
14.0
14.81
15.04
14.27
12.14
8.47
3.35
-2.82
-9.46
-15.99
-22.05
-27.6
-32.99
-38.72
-45.31
-53.04
-61.7
-70.47
-77.9
-82.21
-81.64
-75.14
-62.63
-45.17
-24.61
-3.09
17.5
35.76
50.77
61.99
69.04
71.75
70.23
64.99
57.03
47.66
38.34
30.36
24.61
21.38
20.34
20.77
21.81
22.77
23.3
23.33
22.93
22.07
20.54
18.08
14.43
9.53
3.56
-3.1
-9.98
-16.67
-22.87
-28.5
-33.69
-38.75
-44.15
-50.31
-57.48
-65.39
-73.15
-79.25
-81.84
-79.28
-70.63
-56.07
-36.86
-15.06
7.01
27.33
44.47
57.63
66.51
71.13
71.65
68.49
62.31
54.12
45.18
36.8
30.07
25.65
23.66
23.69
25.03
26.86
28.54
29.66
30.12
29.97
29.26
27.92
25.71
22.32
17.58
11.57
4.67
-2.53
-9.47
-15.78
-21.38
-26.4
-31.15
-35.99
-41.33
-47.58
-54.98
-63.38
-71.97
-79.28
-83.41
-82.6
-75.82
-63.13
-45.72
-25.51
-4.63
15.06
32.21
45.95
55.8
61.51
63.03
60.63
54.9
46.89
37.94
29.49
22.73
18.35
16.34
16.16
17.01
18.2
19.38
20.51
21.61
22.52
22.81
21.85
19.12
14.48
8.29
1.27
-5.73
-12.05
-17.43
-22.05
-26.46
-31.3
-37.14
-44.26
-52.56
-61.44
-69.84
-76.25
-79.04
-76.76
-68.66
-54.96
-36.92
-16.47
4.23
23.38
39.71
52.47
61.24
65.79
66.0
62.1
54.81
45.38
35.37
26.35
19.47
15.25
13.56
13.74
14.96
16.44
17.7
18.53
18.92
18.83
18.08
16.33
13.25
8.69
2.87
-3.71
-10.34
-16.47
-21.86
-26.66
-31.32
-36.42
-42.49
-49.88
-58.6
-68.12
-77.22
-84.13
-86.83
-83.66
-73.85
-57.85
-37.27
-14.36
8.48
29.25
46.52
59.49
67.86
71.68
71.31
67.36
60.71
52.43
43.71
35.74
29.47
25.48
23.81
24.04
25.45
27.26
28.89
30.0
30.47
30.26
29.33
27.54
24.72
20.73
15.53
9.26
2.25
-5.01
-12.04
-18.45
-24.09
-29.01
-33.48
-37.83
-42.45
-47.76
-54.14
-61.73
-70.14
-78.17
-83.88
-85.1
-80.06
-68.17
-50.29
-28.52
-5.53
16.17
34.8
49.41
59.74
65.95
68.3
67.16
63.01
56.57
48.74
40.58
33.07
27.03
22.9
20.76
20.32
21.12
22.6
24.28
25.78
26.78
27.06
26.4
24.61
21.6
17.38
12.15
6.19
-0.12
-6.45
-12.55
-18.27
-23.57
-28.48
-33.1
-37.64
-42.43
-47.91
-54.49
-62.27
-70.74
-78.65
-84.15
-85.25
-80.45
-69.32
-52.64
-32.29
-10.53
10.5
29.24
44.77
56.59
64.39
67.96
67.31
62.8
55.34
46.21
36.86
28.54
22.16
18.08
16.23
16.19
17.39
19.23
21.16
22.77
23.77
23.92
22.99
20.75
17.08
11.99
5.7
-1.38
-8.71
-15.81
-22.29
-27.98
-32.94
-37.49
-42.1
-47.37
-53.81
-61.59
-70.28
-78.68
-85.02
-87.28
-83.84
-74.0
-58.23
-38.05
-15.66
6.63
26.87
43.67
56.31
64.53
68.42
68.29
64.69
58.38
50.41
41.91
34.02
27.62
23.24
20.97
20.51
21.35
22.93
24.72
26.33
27.49
28.0
27.7
26.39
23.87
19.98
14.68
8.21
1.04
-6.19
-12.91
-18.81
-23.92
-28.59
-33.31
-38.52
-44.56
-51.6
-59.54
-67.89
-75.62
-81.21
-82.89
-79.19
-69.43
-54.02
-34.46
-12.83
8.68
28.3
44.83
57.59
66.24
70.69
71.05
67.71
61.44
53.35
44.74
36.87
30.65
26.51
24.39
23.85
24.33
25.31
26.4
27.34
27.91
27.9
27.09
25.29
22.38
18.3
13.09
6.88
-0.04
-7.3
-14.45
-21.09
-26.98
-32.12
-36.76
-41.33
-46.36
-52.27
-59.27
-67.03
-74.64
-80.53
-82.88
-80.12
-71.45
-57.19
-38.74
-18.15
2.45
21.29
37.14
49.27
57.31
61.08
60.65
56.51
49.53
40.97
32.22
24.51
18.58
14.68
12.53
11.66
11.59
12.04
12.89
14.06
15.33
16.27
16.3
14.88
11.73
6.93
0.95
-5.61
-12.12
-18.15
-23.58
-28.57
-33.52
-38.99
-45.46
-53.14
-61.63
-69.84
-76.05
-78.33
-75.07
-65.62
-50.55
-31.49
-10.71
9.54
27.54
42.27
53.3
60.53
63.94
63.53
59.56
52.65
43.96
35.0
27.21
21.54
18.25
16.88
16.67
16.98
17.47
18.1
18.89
19.7
20.13
19.65
17.79
14.31
9.23
2.89
-4.21
-11.46
-18.28
-24.25
-29.27
-33.62
-37.92
-42.94
-49.36
-57.45
-66.87
-76.51
-84.65
-89.25
-88.49
-81.29
-67.68
-48.86
-26.86
-4.06
17.35
35.69
49.98
59.77
65.05
66.11
63.5
58.03
50.73
42.81
35.45
29.63
25.92
24.39
24.65
26.02
27.81
29.46
30.69
31.36
31.43
30.78
29.26
26.66
22.85
17.84
11.83
5.18
-1.7
-8.42
-14.75
-20.56
-25.9
-30.89
-35.76
-40.85
-46.53
-53.14
-60.77
-69.03
-76.87
-82.65
-84.48
-80.76
-70.76
-54.88
-34.69
-12.43
9.57
29.35
45.65
57.81
65.62
69.09
68.46
64.24
57.32
48.94
40.46
33.12
27.76
24.67
23.64
24.14
25.54
27.25
28.81
29.94
30.45
30.21
29.11
27.04
23.92
19.73
14.5
8.41
1.73
-5.18
-11.91
-18.12
-23.55
-28.19
-32.23
-36.06
-40.18
-45.06
-51.03
-58.14
-65.98
-73.59
-79.46
-81.84
-79.14
-70.52
-56.23
-37.63
-16.82
3.94
22.77
38.45
50.4
58.4
62.38
62.38
58.67
51.94
43.31
34.25
26.23
20.36
17.11
16.28
17.16
18.86
20.62
21.98
22.81
23.14
22.97
22.14
20.32
17.19
12.58
6.68
-0.03
-6.88
-13.28
-18.95
-23.95
-28.67
-33.54
-38.94
-45.12
-52.16
-59.97
-68.1
-75.58
-80.85
-82.1
-77.71
-66.94
-50.3
-29.49
-6.95
14.82
33.83
48.91
59.56
65.81
67.91
66.26
61.47
54.42
46.27
38.27
31.54
26.78
24.17
23.39
23.88
25.05
26.49
27.92
29.14
29.91
29.87
28.73
26.3
22.66
18.11
13.0
7.62
2.09
-3.59
-9.45
-15.4
-21.26
-26.79
-31.82
-36.35
-40.6
-45.02
-50.15
-56.45
-63.96
-72.08
-79.43
-84.02
-83.81
-77.37
-64.43
-46.04
-24.28
-1.58
19.82
38.34
53.05
63.51
69.62
71.51
69.59
64.59
57.55
49.69
42.22
36.09
31.86
29.6
28.99
29.48
30.55
31.88
33.36
34.96
36.49
37.54
37.47
35.74
32.13
26.89
20.72
14.42
8.64
3.63
-0.78
-5.0
-9.48
-14.47
-19.9
-25.44
-30.68
-35.28
-39.17
-42.57
-45.9
-49.66
-54.31
-60.14
-67.12
-74.78
-82.03
-87.22
-88.44
-84.05
-73.33
-56.8
-36.12
-13.68
8.17
27.55
