0
-94.63
-75.49
-46.94
-10.58
30.88
74.2
116.46
155.68
190.99
222.4
250.25
274.77
295.89
313.35
327.01
337.05
344.0
348.53
351.15
351.89
350.17
344.89
334.91
319.54
299.01
274.63
248.44
222.66
198.99
178.28
160.62
145.72
133.32
123.4
115.99
110.96
107.78
105.6
103.43
100.63
96.96
92.68
88.29
84.26
80.78
77.71
74.68
71.29
67.3
62.71
57.76
52.77
47.98
43.45
39.07
34.6
29.86
24.76
19.41
13.97
8.63
3.46
-1.59
-6.69
-11.98
-17.55
-23.29
-29.04
-34.6
-39.89
-44.98
-50.11
-55.55
-61.47
-67.85
-74.47
-81.02
-87.26
-93.17
-99.08
-105.47
-112.88
-121.65
-131.73
-142.79
-154.36
-166.02
-177.69
-189.59
-202.16
-215.95
-231.48
-249.14
-269.06
-290.82
-313.3
-334.59
-352.42
-364.82
-370.95
-371.46
-368.32
-364.05
-360.63
-358.79
-357.88
-356.47
-352.99
-346.48
-336.65
-323.76
-308.2
-290.36
-270.71
-250.0
-229.41
-210.45
-194.55
-182.61
-174.55
-169.34
-165.33
-160.83
-154.64
-146.31
-136.15
-124.85
-113.13
-101.38
-89.62
-77.54
-64.79
-51.22
-37.1
-23.05
-9.8
2.17
12.84
22.62
32.09
41.65
51.32
60.8
69.61
77.32
83.52
87.7
89.21
87.41
82.15
74.13
65.03
57.0
51.72
49.55
49.2
48.14
43.55
33.37
16.96
-4.65
-29.02
-52.62
-71.4
-81.49
-80.15
-66.62
-42.67
-12.31
19.32
47.52
69.29
83.85
92.17
95.94
96.63
95.08
91.66
86.79
81.21
75.93
71.89
69.56
68.78
68.96
69.43
69.72
69.67
69.3
68.48
66.91
64.18
60.11
54.97
49.44
44.28
40.0
36.46
32.93
28.31
21.61
12.33
0.7
-12.4
-25.75
-38.19
-49.09
-58.52
-67.26
-76.44
-87.18
-100.11
-114.99
-130.55
-144.3
-152.84
-152.58
-140.79
-116.88
-82.93
-43.42
-3.77
31.22
58.87
78.8
92.27
100.91
105.93
107.81
106.81
103.54
99.16
95.16
92.73
92.21
92.9
93.48
92.61
89.6
84.71
78.83
72.87
67.03
60.5
51.89
40.03
24.74
7.19
-10.5
-26.22
-38.73
-48.11
-55.6
-62.88
-71.33
-81.55
-93.3
-105.77
-117.92
-128.84
-138.11
-145.82
-152.65
-159.71
-168.13
-178.62
-190.78
-202.75
-211.2
-212.07
-201.61
-177.64
-140.29
-92.1
-37.43
18.64
71.36
117.1
153.59
180.04
196.79
205.09
206.82
204.09
198.97
193.16
187.7
182.99
178.86
174.77
170.05
164.26
157.25
149.23
140.49
131.28
121.54
111.02
99.4
86.57
72.83
58.85
45.38
32.94
21.58
10.81
-0.1
-11.7
-24.09
-36.75
-48.86
-59.69
-68.98
-77.07
-84.77
-93.11
-102.94
-114.69
-128.17
-142.33
-155.05
-163.21
-163.21
-152.08
-128.68
-94.58
-53.92
-12.2
25.48
55.8
77.8
92.34
101.03
105.29
106.04
103.91
99.75
94.75
90.3
87.42
86.41
86.79
87.58
87.73
86.49
83.57
79.07
73.31
66.63
59.31
51.45
43.07
34.1
24.42
13.95
2.56
-9.87
-23.35
-37.6
-52.07
-66.06
-79.02
-90.86
-102.12
-113.81
-127.05
-142.53
-160.03
-178.24
-194.75
-206.37
-209.7
-202.05
-182.37
-151.95
-114.29
-74.4
-37.26
-6.56
16.13
31.16
39.98
44.21
45.06
43.37
39.88
35.59
31.72
29.36
29.07
30.62
33.18
35.63
37.03
36.88
35.16
32.13
28.06
23.04
16.93
9.49
0.53
-9.95
-21.78
-34.63
-48.13
-61.9
-75.56
-88.77
-101.29
-113.06
-124.25
-135.26
-146.73
-159.46
-174.17
-191.08
-209.37
-226.91
-240.35
-246.0
-240.98
-224.26
-196.98
-161.99
-122.85
-82.73
-43.93
-7.97
23.99
50.73
71.11
84.42
90.93
92.08
90.26
88.1
87.8
90.55
96.24
103.71
111.3
117.43
121.17
122.36
121.44
118.98
115.3
110.23
103.31
94.1
82.61
69.47
55.68
42.29
29.94
18.63
7.85
-3.17
-15.26
-29.06
-45.06
-63.38
-83.45
-103.68
-121.29
-132.81
-135.0
-125.89
-105.43
-75.54
-39.44
-0.77
37.13
71.63
100.88
123.65
139.31
147.91
150.17
147.48
141.69
134.75
128.35
123.61
120.91
119.9
119.78
119.66
118.97
117.54
115.57
113.23
110.43
106.63
101.06
92.99
82.16
68.94
54.26
39.3
25.11
12.23
0.58
-10.45
-21.72
-34.15
-48.43
-64.83
-82.81
-100.72
-115.67
-123.96
-122.12
-108.07
-82.22
-47.5
-8.6
29.52
63.04
90.06
110.47
125.17
135.19
141.16
143.32
141.91
137.57
131.46
125.04
119.58
115.72
113.4
112.07
111.15
110.46
110.23
110.89
112.57
114.87
116.75
116.93
114.15
107.54
96.83
82.31
64.75
45.27
25.22
6.0
-11.06
-24.95
-35.28
-42.41
-47.59
-52.75
-59.83
-69.92
-82.5
-95.15
-104.13
-105.72
-97.58
-79.72
-54.45
-25.49
3.29
28.88
49.59
64.8
74.47
78.78
77.91
72.34
63.07
51.69
40.22
30.61
24.15
21.13
20.7
21.26
21.14
19.2
15.29
10.11
4.72
-0.2
-4.8
-9.98
-16.85
-25.97
-36.83
-47.94
-57.39
-63.73
-66.58
-66.79
-66.09
-66.56
-69.91
-77.04
-87.6
-99.96
-111.25
-117.98
-116.95
-106.25
-85.99
-58.35
-26.85
4.75
33.48
57.59
76.47
90.04
98.31
101.29
99.2
92.88
83.89
74.19
65.64
59.3
55.25
52.66
50.37
47.5
43.76
39.43
35.04
31.0
27.26
23.36
18.7
12.79
5.57
-2.54
-10.88
-18.73
-25.67
-31.63
-36.92
-42.06
-47.62
-54.13
-62.03
-71.59
-82.69
-94.41
-104.87
-111.43
-111.28
-102.55
-85.05
-60.53
-32.2
-3.7
22.08
43.49
60.17
72.51
81.05
86.19
88.24
87.64
85.17
81.89
78.86
76.83
76.07
76.3
76.92
77.24
76.73
75.14
72.56
69.25
65.45
61.21
56.25
50.11
42.41
33.16
22.9
12.61
3.32
-4.28
-10.17
-14.97
-19.74
-25.54
-33.15
-42.78
-53.97
-65.49
-75.41
-81.42
-81.44
-74.24
-60.05
-40.55
-18.47
3.29
22.45
37.82
49.17
56.82
61.09
62.12
59.98
55.03
48.11
40.53
33.67
28.51
25.35
23.78
22.94
22.06
20.77
19.11
17.36
15.67
13.82
11.25
7.32
1.69
-5.44
-13.33
-21.03
-27.82
-33.45
-38.31
-43.19
-48.99
-56.51
-66.1
-77.44
-89.35
-99.86
-106.48
-106.92
-99.76
-85.14
-64.72
-41.22
-17.6
3.82
21.76
35.95
46.69
54.45
59.54
62.2
62.76
61.77
60.01
58.27
57.08
56.53
56.25
55.64
54.2
51.82
48.8
45.64
42.7
39.89
36.65
32.2
25.99
18.04
9.09
0.21
-7.53
-13.57
-18.01
-21.51
-25.06
-29.64
-36.0
-44.4
-54.31
-64.3
-72.17
-75.43
-72.09
-61.46
-44.52
-23.7
-2.07
17.59
33.53
45.22
52.98
57.45
59.18
58.51
55.77
51.42
46.17
40.82
35.99
31.94
28.56
25.51
22.46
19.28
16.02
12.79
9.58
6.17
2.18
-2.72
-8.67
-15.38
-22.18
-28.32
-33.15
-36.56
-38.97
-41.31
-44.63
-49.74
-56.85
-65.26
-73.42
-79.14
-80.18
-74.96
-63.12
-45.77
-25.23
-4.3
14.57
29.87
41.2
48.9
53.56
55.58
55.18
52.52
47.99
42.32
36.4
31.0
26.62
23.34
20.94
19.11
17.5
15.81
13.72
10.87
6.91
1.63
-4.92
-12.33
-19.9
-26.82
-32.44
-36.54
-39.49
-42.15
-45.62
-50.72
-57.5
-64.93
-71.0
-73.18
-69.32
-58.41
-41.08
-19.41
3.67
25.33
43.61
57.66
67.58
73.96
77.36
78.11
76.31
72.04
65.6
57.55
48.72
39.94
31.99
25.33
20.09
15.97
12.4
8.7
4.26
-1.24
-7.76
-15.01
-22.51
-29.8
-36.47
-42.3
-47.26
-51.52
-55.55
-59.98
-65.42
-72.12
-79.56
-86.29
-90.18
-88.98
-81.19
-66.67
-46.84
-24.27
-1.84
17.99
33.78
45.11
52.3
55.95
56.63
54.84
51.13
46.19
40.85
35.86
31.58
27.92
24.31
20.14
15.24
10.16
6.12
4.54
6.28
10.99
17.07
22.09
23.74
20.8
13.56
3.65
-6.7
-15.55
-21.96
-26.11
-28.83
-31.07
-33.23
-34.88
-34.77
-31.13
-22.0
-5.84
18.06
49.24
86.0
125.65
165.08
201.44
232.65
257.57
275.88
287.86
294.18
295.73
293.65
289.23
283.76
278.32
273.41
268.85
263.78
256.88
246.75
232.45
213.78
191.52
167.19
142.53
118.94
97.02
76.59
56.96
37.44
17.72
-2.0
-21.27
-39.61
-56.85
-73.21
-89.3
-106.02
-124.49
-145.72
-170.05
-196.59
-223.03
-245.96
-261.94
-268.66
-265.69
-254.54
-237.92
-218.78
-199.46
-181.46
-165.43
-151.35
-138.62
-126.12
-112.7
-97.79
-82.09
-67.58
-56.85
-51.79
-52.56
-57.36
-63.1
-66.69
-66.17
-61.16
-52.58
-41.87
-30.27
-18.5
-6.88
4.38
14.87
23.93
30.85
35.14
36.83
36.51
35.2
33.88
33.18
33.13
33.16
32.42
30.05
25.45
18.27
8.36
-4.09
-18.38
-32.96
-45.5
-53.33
-54.29
-47.54
-33.97
-15.9
3.72
22.31
38.21
50.78
60.04
66.17
69.33
69.67
67.56
63.65
58.83
53.83
49.11
44.64
40.19
35.44
30.34
25.09
20.04
15.4
11.02
6.33
0.47
-7.42
-17.81
-30.57
-44.9
-59.63
-73.53
-85.8
-96.27
-105.43
-114.16
-123.27
-133.13
-143.42
-153.33
-161.93
-168.63
-173.52
-177.41
-181.5
-186.98
-194.56
-204.08
-214.16
-222.28
-225.1
-219.38
-203.15
-176.7
-142.86
-106.28
-71.86
-43.23
-21.83
-7.09
2.59
8.69
11.93
12.37
10.05
5.59
0.23
-4.51
-7.52
-8.48
-7.9
-6.76
-5.94
-5.92
-6.66
-7.8
-9.01
-10.19
-11.51
-13.3
-15.85
-19.16
-23.06
-27.27
-31.7
-36.49
-41.96
-48.37
-55.72
-63.64
-71.52
-78.78
-85.21
-91.05
-97.02
-104.07
-113.04
-124.13
-136.43
-147.66
-154.51
-153.53
-142.43
-121.15
-92.11
-59.51
-27.86
-0.56
20.93
36.8
48.04
55.52
59.53
60.04
57.25
52.05
46.05
41.17
38.99
40.23
44.54
50.64
56.72
61.07
62.51
60.66
55.85
48.83
40.45
31.31
21.68
11.54
0.68
-11.09
-23.8
-37.21
-50.8
-63.91
-75.89
-86.44
-95.74
-104.49
-113.81
-125.0
-139.17
-156.81
-177.12
-197.65
-214.33
-222.43
-218.03
-199.61
-168.84
-130.07
-88.8
-49.73
-15.51
13.29
37.32
57.27
73.15
84.43
90.78
92.69
91.62
89.47
87.89
87.7
88.82
90.45
91.62
91.46
89.4
85.15
78.64
70.05
59.78
48.4
36.61
24.98
13.83
3.07
-7.7
-18.96
-30.94
-43.41
-55.63
-66.69
-75.86
-83.03
-88.85
-94.59
-101.69
-111.26
-123.58
-137.8
-151.91
-163.02
-168.1
-164.72
-151.86
-130.22
-101.95
-69.83
-36.2
-2.12
32.97
70.83
112.98
158.96
205.11
244.54
268.77
270.75
247.71
202.73
143.92
81.69
25.31
-19.58
-51.34
-71.17
-81.18
-83.15
-78.58
-69.35
-58.42
-49.49
-45.91
-49.28
-58.85
-71.73
-84.15
-93.06
-97.28
-97.65
-96.4
-95.93
-97.77
-102.16
-108.28
-114.89
-120.78
-124.94
-126.39
-124.02
-116.73
-103.81
-85.43
-62.67
-37.22
-10.75
15.67
41.89
68.5
96.27
125.46
155.3
183.89
208.64
227.11
237.98
241.56
239.77
235.27
230.4
226.38
223.1
219.61
214.89
208.4
200.16
190.53
179.77
167.87
154.69
140.13
124.35
107.78
91.06
74.9
59.9
46.49
34.75
24.4
14.78
5.03
-5.75
-18.33
-33.08
-49.64
-66.73
-81.97
-92.18
-94.18
-85.73
-66.45
-38.15
-4.44
30.34
62.35
89.1
109.72
124.51
134.25
139.61
141.03
138.87
133.79
126.89
119.58
113.23
108.76
106.38
105.6
105.57
105.42
104.51
102.53
99.39
95.14
89.81
83.43
76.1
68.02
59.44
50.66
41.79
32.86
23.81
14.54
5.11
-4.28
-13.32
-21.74
-29.46
-36.7
-44.05
-52.35
-62.35
-74.13
-86.69
-97.78
-104.28
-103.15
-92.56
-72.66
-45.65
-15.08
15.25
42.39
64.72
81.84
94.0
101.52
104.55
103.15
97.74
89.36
79.66
70.52
63.52
59.36
57.74
57.56
57.5
56.57
54.46
51.5
48.28
45.18
42.11
38.47
33.56
26.93
18.72
9.65
0.72
-7.18
-13.66
-18.9
-23.54
-28.41
-34.24
-41.56
-50.57
-61.04
-72.05
-81.89
-88.18
-88.43
-80.84
-65.12
-42.71
-16.54
9.92
33.72
53.04
67.32
76.84
82.1
83.49
81.27
75.84
68.05
59.13
50.54
43.52
38.76
36.22
35.25
34.91
34.27
32.72
30.12
26.71
22.93
19.09
15.22
10.96
5.76
-0.8
-8.7
-17.4
-26.03
-33.75
-40.13
-45.29
-49.78
-54.34
-59.64
-66.16
-74.09
-83.2
-92.6
-100.66
-105.16
-103.82
-95.12
-78.92
-56.75
-31.38
-5.97
16.8
35.3
49.02
58.18
63.28
64.75
62.92
58.25
51.51
43.85
36.61
30.95
27.5
26.11
26.01
26.15
25.64
24.12
21.74
18.93
16.08
13.22
10.02
5.98
0.72
-5.78
-13.11
-20.59
-27.56
-33.57
-38.53
-42.65
-46.31
-49.95
-53.97
-58.8
-64.75
-71.87
-79.64
-86.77
-91.34
-91.25
-85.0
-72.26
-54.13
-32.84
-11.02
9.04
25.87
38.86
47.97
53.35
55.22
53.91
50.0
44.39
38.19
32.41
27.72
24.32
21.99
20.34
19.04
17.97
17.17
16.66
16.33
15.77
14.41
11.72
7.4
1.66
-4.93
-11.52
-17.32
-21.91
-25.35
-28.18
-31.26
-35.47
-41.42
-49.14
-57.82
-65.81
-70.95
-71.15
-65.11
-52.85
-35.78
-16.2
3.38
21.0
35.54
46.65
54.4
58.86
60.02
57.93
52.96
45.96
38.19
30.95
25.23
21.47
19.41
18.41
17.7
16.69
15.13
13.09
10.75
8.25
5.51
2.26
-1.85
-7.06
-13.3
-20.15
-26.93
-32.96
-37.81
-41.48
-44.4
-47.27
-50.92
-55.99
-62.75
-70.9
-79.37
-86.33
-89.59
-87.11
-77.81
-61.99
-41.39
-18.69
3.33
22.55
37.88
49.13
56.6
60.66
61.49
59.24
54.25
47.27
39.46
32.13
26.34
22.65
20.94
20.56
20.6
20.23
18.94
16.63
13.52
9.97
6.31
2.72
-0.89
-4.76
-9.2
-14.37
-20.23
-26.47
-32.7
-38.56
-43.82
-48.5
-52.76
-56.83
-61.03
-65.73
-71.39
-78.22
-85.97
-93.5
-98.86
-99.77
-94.37
-82.01
-63.67
-41.6
-18.65
2.71
20.88
35.25
45.82
52.71
56.0
55.77
52.35
46.59
39.76
33.25
28.2
25.14
23.89
23.74
23.82
23.48
22.49
21.03
19.42
17.91
16.36
14.34
11.24
6.65
0.59
-6.45
-13.66
-20.24
-25.67
-29.94
-33.45
-36.9
-41.07
-46.55
-53.64
-62.04
-70.76
-78.11
-82.04
-80.64
-72.81
-58.67
-39.57
-17.75
4.32
24.55
41.59
54.8
64.03
69.37
70.95
69.07
64.27
57.47
49.94
43.05
37.92
35.06
34.25
34.63
35.11
34.81
33.3
30.73
27.54
24.19
20.92
17.66
14.11
9.88
4.71
-1.44
-8.31
-15.4
-22.13
-27.99
-32.76
-36.63
-40.14
-44.11
-49.42
-56.65
-65.89
-76.41
-86.58
-94.07
-96.34
-91.44
-78.67
-58.99
-34.78
-9.18
14.8
35.04
50.58
61.42
68.04
71.02
70.8
67.82
62.74
56.46
50.08
44.58
40.59
38.23
37.18
36.91
36.87
36.62
35.86
34.31
31.78
28.18
23.57
18.21
12.47
6.64
0.93
-4.71
-10.44
-16.46
-22.83
-29.49
-36.19
-42.61
-48.47
-53.56
-57.91
-61.87
-66.06
-71.29
-78.19
-86.68
-95.63
-102.89
-105.69
-101.65
-89.63
-70.25
-45.77
-19.33
6.05
28.19
46.06
59.53
68.85
74.25
75.87
73.92
69.0
62.24
55.07
48.91
44.73
42.71
42.4
42.84
43.1
42.49
40.82
38.24
35.11
31.74
28.17
24.23
19.57
13.93
7.32
0.12
-7.07
-13.7
-19.43
-24.33
-28.75
-33.14
-37.9
-43.38
-49.87
-57.58
-66.37
-75.41
-83.06
-87.07
-85.21
-76.12
-59.96
-38.45
-14.33
9.46
30.62
47.87
60.77
69.39
73.92
74.58
71.73
66.09
58.77
51.13
44.37
39.28
36.11
34.66
34.48
35.13
36.21
37.38
38.21
38.18
36.78
33.73
29.1
23.39
17.34
11.62
6.59
2.14
-2.16
-6.84
-12.19
-18.13
-24.25
-29.97
-34.87
-38.84
-42.08
-45.13
-48.66
-53.35
-59.7
-67.73
-76.66
-84.78
-89.68
-88.88
-80.77
-65.27
-44.03
-19.95
3.83
24.81
41.7
54.32
63.06
68.39
70.58
69.77
66.29
60.87
54.55
48.43
43.32
39.53
36.9
35.06
33.6
32.28
31.02
29.73
28.23
26.21
23.35
19.45
14.58
9.04
3.23
-2.47
-7.86
-12.94
-17.81
-22.62
-27.4
-32.02
-36.24
-39.84
-42.77
-45.2
-47.61
-50.66
-55.08
-61.28
-69.08
-77.46
-84.56
-88.13
-86.09
-77.27
-61.82
-41.32
-18.25
4.7
25.33
42.32
55.22
64.14
69.36
71.13
69.71
65.55
59.42
52.44
45.84
40.69
37.53
36.29
36.38
36.91
37.09
36.35
34.51
31.66
28.07
24.06
19.76
15.24
10.4
5.09
-0.68
-6.79
-12.93
-18.74
-23.93
-28.47
-32.51
-36.38
-40.49
-45.18
-50.78
-57.53
-65.42
-73.86
-81.61
-86.74
-87.12
-81.16
-68.41
-49.92
-27.94
-5.22
15.8
33.52
47.29
57.13
63.36
66.27
66.14
63.39
58.69
52.98
47.3
42.54
39.21
37.38
36.78
36.87
37.09
36.95
36.11
34.38
31.7
28.15
23.84
18.97
13.71
8.21
2.54
-3.29
-9.34
-15.71
-22.43
-29.41
-36.38
-43.0
-48.95
-54.06
-58.5
-62.68
-67.29
-72.98
-80.1
-88.3
-96.34
-102.22
-103.66
-98.83
-87.03
-69.08
-47.06
-23.69
-1.54
17.63
32.95
44.34
52.03
56.29
57.38
55.61
51.48
45.84
39.69
34.06
29.75
27.11
25.99
25.85
25.93
25.58
24.41
22.41
19.81
16.95
13.98
10.8
7.12
2.68
-2.58
-8.36
-14.13
-19.35
-23.72
-27.25
-30.27
-33.23
-36.58
-40.7
-45.86
-52.22
-59.68
-67.61
-74.75
-79.26
-79.21
-73.2
-60.94
-43.46
-22.84
-1.54
18.29
35.27
48.88
59.13
66.14
69.92
70.42
67.8
62.7
56.33
50.13
45.39
42.71
41.92
42.18
42.44
41.92
40.39
38.04
35.28
32.4
29.37
25.91
21.61
16.19
9.66
2.31
-5.27
-12.48
-18.82
-24.1
-28.49
-32.47
-36.67
-41.77
-48.23
-56.16
-65.12
-74.06
-81.32
-84.94
-83.14
-74.89
-60.37
-41.02
-19.13
2.78
22.74
39.57
52.93
62.9
69.68
73.41
74.18
72.32
68.44
63.46
58.36
53.94
50.63
48.43
47.07
46.12
45.15
43.79
41.73
38.73
34.62
29.37
23.1
16.14
9.01
2.27
-3.68
-8.69
-13.01
-17.15
-21.62
-26.71
-32.35
-38.11
-43.5
-48.24
-52.45
-56.68
-61.71
-68.2
-76.33
-85.56
-94.48
-101.06
-103.08
-98.82
-87.65
-70.33
-48.85
-25.85
-3.87
15.32
30.92
42.9
51.62
57.37
60.22
60.23
57.66
53.2
47.89
42.88
39.11
36.99
36.39
36.71
37.23
37.3
36.54
34.86
32.4
29.35
25.89
22.07
17.81
13.01
7.58
1.57
-4.81
-11.23
-17.3
-22.73
-27.39
-31.34
-34.83
-38.18
-41.81
-46.14
-51.5
-57.99
-65.2
-72.0
-76.68
-77.24
-72.04
-60.46
-43.21
-22.19
0.02
20.97
38.93
53.14
63.6
70.67
74.7
75.88
74.33
70.38
64.7
58.33
52.33
47.56
44.33
42.47
41.51
40.9
40.15
38.94
37.04
34.25
30.47
25.76
20.3
14.44
8.52
2.73
-2.86
-8.33
-13.72
-19.02
-24.14
-28.95
-33.45
-37.65
-41.72
-45.9
-50.5
-55.94
-62.57
-70.43
-78.93
-86.65
-91.59
-91.56
-85.0
-71.58
-52.38
-29.69
-6.29
15.33
33.55
47.73
58.03
64.92
68.86
70.13
68.92
65.59
60.76
55.32
50.21
46.13
43.32
41.57
40.44
39.44
38.25
36.71
34.75
32.26
29.07
25.05
20.22
14.82
9.21
3.73
-1.53
-6.7
-12.11
-17.99
-24.37
-31.01
-37.48
-43.38
-48.5
-52.93
-57.02
-61.31
-66.45
-72.92
-80.89
-89.84
-98.41
-104.54
-105.88
-100.67
-88.37
-70.0
-47.87
-24.8
-3.28
15.16
30.03
41.54
50.07
55.76
58.57
58.47
55.82
51.43
46.43
41.92
38.63
36.76
36.01
35.8
35.48
34.61
33.02
30.74
27.99
24.98
21.82
18.45
14.69
10.34
5.32
-0.25
-6.06
-11.74
-16.94
-21.47
-25.36
-28.81
-32.22
-36.07
-40.89
-47.08
-54.73
-63.34
-71.68
-77.91
-79.94
-76.06
-65.52
-48.87
-27.95
-5.29
16.52
35.5
50.67
61.88
69.5
74.03
75.81
75.07
72.15
67.63
62.36
57.3
53.2
50.38
48.67
47.6
46.64
45.43
43.84
41.83
39.37
36.31
32.48
27.8
22.42
16.65
10.86
5.28
-0.13
-5.61
-11.44
-17.75
-24.42
-31.13
-37.49
-43.22
-48.31
-53.11
-58.23
-64.42
-72.28
-81.83
-92.18
-101.46
-107.19
-106.98
-99.34
-84.32
-63.49
-39.56
-15.46
6.4
24.57
38.58
48.63
55.14
58.51
59.05
57.09
53.17
48.09
42.77
38.09
34.58
32.26
30.79
29.62
28.29
26.6
24.61
22.47
20.28
17.97
15.28
11.94
7.75
2.67
-3.13
-9.34
-15.54
-21.33
-26.41
-30.65
-34.09
-36.93
-39.53
-42.31
-45.73
-50.32
-56.46
-64.15
-72.73
-80.77
-86.22
-86.92
-81.26
-68.85
-50.69
-28.93
-6.2
15.11
33.43
48.07
58.99
66.4
70.43
71.11
68.57
63.39
56.62
49.65
43.78
39.84
37.93
37.52
37.71
37.65
36.77
34.9
32.16
28.77
24.92
20.65
15.91
10.59
4.71
-1.6
-8.02
-14.18
-19.79
-24.72
-29.08
-33.13
-37.17
-41.55
-46.64
-52.82
-60.35
-69.05
-77.96
-85.38
-89.03
-86.85
-77.69
-61.85
-41.08
-18.01
4.62
24.69
41.06
53.45
62.12
67.41
69.59
68.9
65.7
60.6
54.42
48.09
42.42
37.93
34.77
32.84
31.81
31.24
30.68
29.68
27.88
25.04
21.1
16.25
10.86
5.32
-0.02
-5.07
-9.93
-14.86
-20.07
-25.62
-31.37
-37.04
-42.31
-47.02
-51.15
-54.91
-58.71
-63.13
-68.76
-75.92
-84.26
-92.45
-98.28
-99.16
-93.02
-79.14
-58.57
-33.81
-8.05
15.87
36.14
52.16
64.21
72.9
78.67
81.75
82.2
80.29
76.54
71.79
66.93
62.68
59.46
57.34
56.12
55.45
54.94
54.13
52.62
50.05
46.25
41.29
35.47
29.15
22.63
16.04
9.32
2.39
-4.78
-12.07
-19.26
-26.05
-32.21
-37.59
-42.24
-46.36
-50.33
-54.71
-60.0
-66.47
-73.85
-81.1
-86.52
-88.11
-84.17
-73.88
-57.64
-37.06
-14.47
7.67
27.35
43.31
55.03
62.54
66.07
66.01
62.91
57.55
50.95
44.3
38.64
34.63
32.35
31.35
30.86
30.15
28.79
26.75
24.33
21.88
19.57
17.24
14.39
10.48
5.17
-1.47
-8.85
-16.08
-22.33
-27.1
-30.45
-32.98
-35.57
-39.13
-44.35
-51.47
-60.12
-69.23
-77.05
-81.48
-80.53
-72.94
-58.75
-39.38
-17.27
4.77
24.41
40.31
52.12
60.13
64.86
66.64
65.63
62.04
56.39
49.63
42.91
37.28
33.31
31.01
29.9
29.36
28.81
27.84
26.23
23.83
20.61
16.63
12.05
7.1
2.01
-3.16
-8.52
-14.2
-20.25
-26.52
-32.66
-38.3
-43.17
-47.23
-50.68
-53.98
-57.72
-62.54
-68.9
-76.78
-85.37
-92.98
-97.36
-96.23
-88.14
-73.01
-52.27
-28.47
-4.49
17.18
35.03
48.54
57.94
63.79
66.64
66.86
64.8
60.92
55.9
50.64
46.02
42.68
40.79
40.06
39.92
39.71
38.93
37.32
34.82
31.5
27.5
22.94
18.04
12.97
7.91
2.95
-1.94
-6.83
-11.86
-17.11
-22.57
-28.1
-33.51
-38.6
-43.31
-47.79
-52.44
-57.88
-64.59
-72.55
-80.9
-87.85
-91.11
-88.55
-79.04
-62.89
-41.9
-18.68
4.06
24.26
40.82
53.42
62.24
67.5
69.43
68.28
64.56
59.11
53.08
47.65
43.73
41.74
41.48
42.34
43.53
44.33
44.31
43.33
41.47
38.93
35.85
32.27
28.11
23.23
17.58
11.32
4.82
-1.35
-6.7
-11.06
-14.68
-18.15
-22.19
-27.45
-34.29
-42.72
-52.3
-62.08
-70.56
-75.85
-76.04
-69.81
-57.03
-38.9
-17.76
3.62
22.82
38.27
49.45
56.53
60.01
60.45
58.31
54.08
48.37
41.97
35.73
30.42
26.5
24.04
22.81
22.33
22.1
21.61
20.49
18.46
15.34
11.13
6.02
0.4
-5.28
-10.64
-15.53
-20.06
-24.52
-29.13
-33.91
-38.67
-43.07
-46.81
-49.77
-52.02
-53.89
-55.85
-58.56
-62.63
-68.41
-75.5
-82.61
-87.61
-88.12
-82.34
-69.77
-51.47
-29.74
-7.34
13.38
30.94
44.79
54.95
61.63
64.93
64.91
61.8
56.2
49.11
41.72
35.11
29.93
26.26
23.66
21.49
19.21
16.55
13.55
10.39
7.1
3.52
-0.69
-5.78
-11.75
-18.14
-24.3
-29.55
-33.54
-36.38
-38.59
-40.81
-43.53
-46.82
-50.4
-53.72
-56.25
-57.72
-58.28
-58.46
-59.03
-60.82
-64.32
-69.33
-74.81
-78.83
-79.13
-73.76
-61.86
-43.98
-22.05
1.31
23.58
43.02
58.81
70.88
79.45
84.73
86.79
85.78
82.15
76.72
70.62
65.0
60.67
57.96
56.66
56.13
55.65
54.61
52.69
49.87
46.35
42.35
38.06
33.55
28.81
23.78
18.43
12.79
6.93
0.99
-4.89
-10.54
-15.8
-20.56
-24.8
-28.65
-32.42
-36.61
-41.8
-48.44
-56.49
-65.14
-72.75
-77.12
-76.12
-68.48
-54.31
-35.12
-13.39
8.22
27.63
43.64
55.97
64.75
70.24
72.61
72.01
68.89
64.02
58.47
53.32
49.29
46.6
45.0
43.95
43.01
41.91
40.68
39.39
38.05
36.47
34.26
31.04
26.62
21.11
15.03
9.06
3.83
-0.38
-3.74
-6.79
-10.2
-14.44
-19.61
-25.37
-31.16
-36.43
-40.83
-44.34
-47.34
-50.49
-54.62
-60.42
-68.07
-76.87
-85.15
-90.55
-90.68
-83.97
-70.3
-51.08
-28.79
-6.25
14.22
31.22
44.3
53.62
59.57
62.5
62.72
60.64
56.88
52.29
47.73
43.82
40.81
38.54
36.68
34.9
33.09
31.32
29.71
28.25
26.73
24.72
21.82
17.77
12.65
6.88
1.07
-4.16
-8.5
-11.99
-15.0
-18.09
-21.65
-25.77
-30.19
-34.42
-38.04
-40.82
-42.88
-44.64
-46.68
-49.67
-54.16
-60.24
-67.37
-74.19
-78.72
-78.85
-73.07
-61.02
-43.74
-23.33
-2.27
17.17
33.53
46.18
55.16
60.77
63.39
63.35
61.05
57.05
52.08
46.94
42.45
39.15
37.27
36.65
36.86
37.31
37.45
36.92
35.57
33.45
30.66
27.33
23.54
19.26
14.53
9.37
3.94
-1.56
-6.93
-12.0
-16.68
-20.96
-24.85
-28.39
-31.63
-34.79
-38.26
-42.62
-48.41
-55.78
-64.03
-71.6
-76.22
-75.68
-68.61
-55.12
-36.74
-16.05
4.29
22.2
36.59
47.28
54.54
58.72
60.06
58.75
55.15
49.99
44.26
39.02
35.05
32.58
31.32
30.62
29.87
28.73
27.29
25.8
24.49
23.24
21.62
19.05
15.15
9.96
4.06
-1.71
-6.58
-10.22
-12.85
-15.2
-18.08
-21.98
-26.87
-32.25
-37.38
-41.66
-44.91
-47.4
-49.72
-52.59
-56.66
-62.33
-69.57
-77.74
-85.44
-90.66
-91.25
-85.62
-73.36
-55.53
-34.4
-12.69
7.2
23.83
36.79
46.36
53.03
57.08
58.59
57.63
54.56
50.15
45.48
41.54
38.99
37.89
37.82
38.12
38.22
37.78
36.71
35.11
33.1
30.78
28.23
25.46
22.47
19.21
15.6
11.54
7.04
2.18
-2.85
-7.82
-12.57
-17.04
-21.37
-25.81
-30.74
-36.47
-43.23
-50.94
-59.02
-66.33
-71.27
-72.1
-67.51
-57.09
-41.56
-22.72
-2.9
15.71
31.59
44.04
53.08
58.97
62.0
62.31
60.11
55.86
50.4
44.77
39.92
36.41
34.3
33.17
32.51
31.87
31.05
30.01
28.7
26.94
24.45
20.99
16.57
11.5
6.35
1.66
-2.27
-5.55
-8.62
-12.04
-16.18
-21.05
-26.32
-31.52
-36.25
-40.36
-44.03
-47.69
-51.92
-57.3
-64.14
-72.2
-80.47
-87.2
-90.23
-87.69
-78.63
-63.46
-43.92
-22.52
-1.76
16.44
31.08
41.96
49.35
53.63
55.15
54.26
51.42
47.32
42.76
38.54
35.22
32.94
31.55
30.67
29.97
29.21
28.31
27.18
25.69
23.6
20.72
16.98
12.57
7.82
3.14
-1.22
-5.23
-9.08
-13.02
-17.22
-21.64
-26.02
-30.05
-33.44
-36.13
-38.29
-40.35
-42.82
-46.26
-51.07
-57.18
-63.86
-69.68
-72.72
-71.15
-63.84
-50.87
-33.57
-14.12
5.11
22.24
36.21
46.79
54.17
58.69
60.52
59.78
56.73
51.94
46.33
40.93
36.65
33.91
32.64
32.4
32.57
32.65
32.32
31.42
29.83
27.52
24.51
20.89
16.88
12.7
8.47
4.16
-0.37
-5.2
-10.33
-15.57
-20.65
-25.28
-29.27
-32.62
-35.54
-38.43
-41.83
-46.33
-52.32
-59.67
-67.48
-74.04
-77.25
-75.23
-67.01
-52.96
-34.68
-14.47
5.33
23.01
37.61
48.82
56.72
61.43
63.06
61.86
58.3
53.17
47.51
42.33
38.35
35.84
34.53
33.91
33.48
32.94
32.28
31.59
30.83
29.72
27.8
24.66
20.21
14.78
9.02
3.66
-0.81
-4.31
-7.17
-9.94
-13.17
-17.18
-21.93
-27.1
-32.2
-36.78
-40.58
-43.7
-46.56
-49.85
-54.31
-60.44
-68.14
-76.52
-83.92
-88.22
-87.49
-80.59
-67.59
-49.78
-29.3
-8.5
10.64
26.86
39.69
49.19
55.64
59.33
60.49
59.39
56.45
52.29
47.7
43.42
39.96
37.44
35.66
34.24
32.85
31.34
29.68
27.89
25.84
23.29
19.96
15.76
10.89
5.78
0.97
-3.25
-6.88
-10.3
-13.93
-18.11
-22.8
-27.65
-32.16
-35.94
-38.86
-41.16
-43.37
-46.18
-50.15
-55.57
-62.12
-68.83
-74.09
-76.04
-73.03
-64.29
-50.15
-32.07
-12.23
7.14
24.29
38.25
48.75
55.98
60.2
61.65
60.54
57.22
52.37
46.91
41.87
38.07
35.91
35.21
35.41
35.77
35.65
34.67
32.78
30.1
26.87
23.32
19.59
15.76
11.82
7.68
3.21
-1.63
-6.77
-11.97
-16.91
-21.29
-25.03
-28.25
-31.3
-34.62
-38.61
-43.6
-49.66
-56.48
-63.24
-68.49
-70.42
-67.39
-58.49
-44.09
-25.84
-6.14
12.57
28.58
41.16
50.43
56.82
60.7
62.17
61.23
58.12
53.45
48.18
43.3
39.5
37.0
35.56
34.71
34.0
33.14
32.02
30.57
28.66
26.08
22.65
18.34
13.42
8.33
3.54
-0.66
-4.33
-7.78
-11.43
-15.61
-20.35
-25.41
-30.41
-34.97
-38.92
-42.34
-45.63
-49.38
-54.25
-60.69
-68.55
-76.86
-83.81
-87.17
-84.95
-76.15
-61.19
-41.85
-20.7
-0.33
17.32
31.34
41.64
48.64
52.86
54.67
54.32
52.11
48.51
44.17
39.83
36.13
33.38
31.58
30.45
29.62
28.77
27.71
26.33
24.51
22.1
18.97
15.08
10.59
5.84
1.17
-3.16
-7.11
-10.87
-14.67
-18.69
-22.9
-27.09
-30.96
-34.32
-37.16
-39.73
-42.44
-45.75
-50.1
-55.63
-62.07
-68.53
-73.57
-75.41
-72.47
-63.89
-49.97
-32.2
-12.8
5.9
22.16
35.14
44.81
51.54
55.74
57.55
56.97
54.14
49.57
44.15
38.98
34.97
32.62
31.83
32.06
32.57
32.66
31.92
30.24
27.73
24.63
21.2
17.67
14.12
10.52
6.75
2.65
-1.87
-6.79
-11.92
-17.02
-21.86
-26.3
-30.36
-34.16
-37.98
-42.17
-47.16
-53.2
-60.15
-67.23
-72.98
-75.51
-73.09
-64.73
-50.7
-32.46
-12.27
7.49
24.92
38.97
49.38
56.38
60.43
61.86
60.98
58.07
53.62
48.37
43.18
38.91
36.06
34.67
34.37
34.53
34.56
34.05
32.78
30.71
27.84
24.21
19.96
15.31
10.58
6.05
1.76
-2.48
-7.02
-12.13
-17.84
-23.84
-29.64
-34.78
-39.07
-42.69
-46.11
-49.99
-54.95
-61.42
-69.36
-78.09
-86.15
-91.49
-91.99
-86.12
-73.61
-55.62
-34.45
-12.83
6.9
23.36
36.09
45.33
51.45
54.7
55.15
52.95
48.59
42.94
37.15
32.27
28.91
27.13
26.44
26.14
25.59
24.48
22.8
20.79
18.73
16.74
14.71
12.33
9.25
5.23
0.31
-5.19
-10.75
-15.86
-20.15
-23.56
-26.31
-28.85
-31.65
-35.17
-39.72
-45.44
-52.16
-59.24
-65.52
-69.4
-69.2
-63.7
-52.62
-36.78
-17.99
1.5
19.68
35.15
47.28
56.0
61.46
63.77
63.06
59.58
53.94
47.2
40.63
35.41
32.26
31.15
31.44
32.13
32.31
