0
-99.13
-92.3
-80.1
-64.39
-47.55
-31.64
-17.93
-6.7
2.51
10.39
17.6
24.55
31.36
37.92
43.9
48.81
52.19
53.79
53.72
52.47
50.7
49.01
47.83
47.31
47.46
48.17
49.19
50.12
50.45
49.73
47.84
45.03
41.86
38.89
36.42
34.34
32.26
29.68
26.29
22.01
17.06
11.85
6.85
2.46
-1.14
-4.09
-6.82
-9.91
-13.81
-18.68
-24.29
-30.16
-35.8
-40.91
-45.53
-49.99
-54.86
-60.77
-68.13
-76.88
-86.16
-94.31
-99.24
-99.06
-92.86
-81.09
-65.52
-48.56
-32.44
-18.62
-7.48
1.35
8.6
14.96
20.82
26.3
31.38
35.99
40.01
43.34
45.81
47.27
47.66
47.07
45.85
44.51
43.57
43.39
44.04
45.21
46.38
46.97
46.57
45.06
42.61
39.61
36.49
33.55
30.91
28.43
25.92
23.18
20.13
16.84
13.42
10.02
6.78
3.73
0.84
-1.99
-4.94
-8.24
-12.08
-16.46
-21.23
-26.1
-30.8
-35.23
-39.52
-44.05
-49.3
-55.68
-63.42
-72.4
-81.9
-90.58
-96.66
-98.32
-94.36
-84.71
-70.64
-54.29
-38.05
-23.69
-12.04
-2.92
4.4
10.72
16.61
22.26
27.64
32.62
37.06
40.86
43.88
46.0
47.1
47.15
46.31
44.9
43.4
42.31
42.0
42.54
43.66
44.89
45.64
45.49
44.25
42.03
39.16
36.01
32.86
29.84
26.9
23.89
20.65
17.14
13.43
9.72
6.21
3.02
0.11
-2.73
-5.83
-9.49
-13.83
-18.77
-24.03
-29.26
-34.17
-38.64
-42.76
-46.84
-51.37
-56.91
-63.87
-72.3
-81.51
-90.07
-96.05
-97.59
-93.54
-83.93
-70.05
-53.94
-37.77
-23.21
-11.1
-1.52
5.96
12.0
17.17
21.93
26.55
31.09
35.41
39.19
42.04
43.65
43.95
43.19
41.84
40.47
39.55
39.3
39.62
40.21
40.67
40.65
39.95
38.51
36.46
33.96
31.16
28.18
25.09
21.95
18.83
15.81
12.94
10.21
7.44
4.4
0.85
-3.32
-8.05
-13.06
-18.06
-22.75
-26.99
-30.82
-34.44
-38.21
-42.58
-48.07
-55.07
-63.52
-72.68
-81.04
-86.63
-87.56
-82.76
-72.47
-58.22
-42.31
-27.0
-13.86
-3.4
4.71
11.26
16.98
22.26
27.17
31.55
35.17
37.91
39.73
40.7
40.97
40.7
40.06
39.2
38.27
37.41
36.79
36.53
36.63
36.87
36.87
36.18
34.53
31.89
28.51
24.77
21.08
17.69
14.66
11.93
9.34
6.63
3.55
-0.12
-4.44
-9.24
-14.19
-18.9
-23.15
-27.02
-30.82
-35.01
-40.06
-46.35
-54.11
-63.3
-73.38
-83.22
-91.13
-95.21
-93.98
-86.97
-75.0
-59.94
-44.12
-29.52
-17.29
-7.59
0.1
6.58
12.57
18.5
24.45
30.24
35.52
39.86
42.93
44.62
45.04
44.54
43.57
42.52
41.71
41.32
41.43
41.99
42.83
43.65
44.02
43.59
42.18
39.88
36.99
33.83
30.61
27.37
24.07
20.62
17.1
13.58
10.16
6.74
3.12
-0.99
-5.74
-11.05
-16.56
-21.82
-26.5
-30.53
-34.24
-38.14
-42.84
-48.79
-56.2
-64.85
-74.07
-82.65
-88.99
-91.41
-88.71
-80.58
-67.92
-52.62
-36.92
-22.72
-11.06
-1.92
5.41
11.83
18.02
24.27
30.48
36.35
41.54
45.78
48.88
50.77
51.49
51.21
50.22
48.88
47.59
46.71
46.41
46.65
47.13
47.46
47.21
46.15
44.26
41.71
38.79
35.67
32.47
29.16
25.72
22.19
18.63
15.16
11.79
8.44
4.9
1.0
-3.4
-8.27
-13.46
-18.66
-23.59
-28.03
-32.0
-35.71
-39.65
-44.46
-50.75
-58.83
-68.44
-78.5
-87.21
-92.51
-92.66
-86.97
-76.04
-61.61
-45.94
-31.11
-18.4
-8.22
-0.24
6.24
11.94
17.45
23.14
29.1
35.14
40.81
45.51
48.7
50.09
49.82
48.35
46.35
44.51
43.32
43.01
43.44
44.25
44.93
45.02
44.28
42.69
40.45
37.83
35.04
32.21
29.35
26.44
23.43
20.3
17.07
13.83
10.6
7.4
4.16
0.71
-3.12
-7.44
-12.17
-17.11
-21.96
-26.53
-30.78
-34.89
-39.19
-44.15
-50.23
-57.73
-66.54
-75.85
-84.18
-89.66
-90.6
-86.15
-76.63
-63.49
-48.77
-34.42
-21.73
-11.17
-2.52
4.77
11.23
17.26
23.04
28.58
33.74
38.29
41.94
44.4
45.58
45.55
44.62
43.23
41.83
40.73
40.13
40.02
40.24
40.61
40.81
40.56
39.58
37.64
34.67
30.82
26.41
21.92
17.77
14.23
11.28
8.65
5.88
2.51
-1.71
-6.67
-11.95
-16.98
-21.3
-24.78
-27.72
-30.71
-34.45
-39.56
-46.36
-54.76
-64.11
-73.16
-80.23
-83.55
-81.82
-74.75
-63.18
-48.92
-34.08
-20.35
-8.67
0.88
8.76
15.51
21.54
26.96
31.66
35.48
38.27
40.03
40.85
40.96
40.6
39.98
39.26
38.54
37.94
37.62
37.7
38.15
38.72
38.92
38.18
36.15
32.77
28.4
23.59
18.89
14.63
10.74
6.92
2.76
-2.01
-7.35
-12.95
-18.34
-23.16
-27.32
-31.02
-34.74
-39.08
-44.56
-51.41
-59.44
-67.82
-75.19
-79.81
-80.12
-75.27
-65.52
-52.24
-37.48
-23.3
-11.06
-1.25
6.45
12.74
18.27
23.37
28.07
32.22
35.66
38.27
40.04
41.01
41.3
41.07
40.54
39.96
39.56
39.49
39.79
40.34
40.9
41.13
40.65
39.11
36.39
32.6
28.1
23.41
18.98
14.97
11.22
7.3
2.79
-2.47
-8.33
-14.29
-19.88
-24.78
-29.03
-33.05
-37.43
-42.81
-49.62
-57.91
-67.15
-76.1
-83.03
-86.1
-83.99
-76.37
-64.16
-49.21
-33.73
-19.48
-7.47
2.21
10.03
16.7
22.8
28.61
34.2
39.46
44.18
48.09
50.9
52.35
52.33
50.9
48.42
45.43
42.61
40.49
39.38
39.19
39.48
39.63
39.06
37.4
34.67
31.2
27.45
23.85
20.57
17.5
14.31
10.68
6.39
1.5
-3.73
-8.94
-13.85
-18.36
-22.59
-26.84
-31.54
-37.11
-43.94
-52.09
-61.16
-70.09
-77.25
-80.88
-79.62
-73.11
-62.18
-48.62
-34.5
-21.53
-10.59
-1.72
5.61
12.04
18.02
23.73
29.1
33.94
37.99
40.98
42.74
43.21
42.56
41.14
39.46
37.91
36.76
35.98
35.34
34.56
33.37
31.67
29.5
26.98
24.23
21.3
18.16
14.68
10.78
6.39
1.62
-3.34
-8.23
-12.81
-16.99
-20.83
-24.54
-28.54
-33.31
-39.19
-46.19
-53.74
-60.61
-65.19
-65.96
-62.03
-53.55
-41.68
-28.19
-14.88
-3.08
6.61
14.26
20.32
25.36
29.81
33.85
37.42
40.31
42.26
43.14
43.01
42.16
40.97
39.78
38.78
38.01
37.34
36.65
35.8
34.69
33.25
31.47
29.33
26.86
24.06
20.9
17.3
13.25
8.79
4.11
-0.53
-4.89
-8.85
-12.42
-15.8
-19.3
-23.28
-28.06
-33.83
-40.41
-47.15
-52.92
-56.31
-56.07
-51.57
-43.15
-32.08
-20.18
-9.26
-0.53
5.63
9.6
12.16
14.14
16.07
18.16
20.26
22.02
23.02
22.9
21.49
18.91
15.56
12.0
8.82
6.4
4.84
3.94
3.45
3.07
2.61
1.97
1.09
-0.09
-1.61
-3.5
-5.75
-8.29
-11.0
-13.71
-16.21
-18.35
-20.08
-21.54
-23.06
-25.02
-27.84
-31.81
-37.01
-43.2
-49.73
-55.55
-59.36
-59.92
-56.5
-49.21
-38.98
-27.35
-15.88
-5.78
2.45
8.86
13.94
18.24
22.25
26.26
30.3
34.2
37.63
40.17
41.56
41.74
40.9
39.38
37.55
35.71
34.06
32.76
31.86
31.26
30.71
29.88
28.43
26.22
23.35
20.07
16.65
13.21
9.75
6.18
2.47
-1.31
-5.02
-8.52
-11.77
-14.9
-18.11
-21.66
-25.84
-30.83
-36.7
-43.15
-49.44
-54.42
-56.76
-55.45
-50.15
-41.48
-30.79
-19.74
-9.71
-1.48
4.87
9.71
13.56
16.85
19.76
22.35
24.58
26.36
27.55
28.02
27.66
26.54
24.88
23.06
21.49
20.48
20.09
20.19
20.42
20.41
19.87
18.7
16.99
14.94
12.76
10.52
8.14
5.46
2.37
-1.11
-4.79
-8.43
-11.85
-15.05
-18.15
-21.36
-24.94
-29.09
-33.89
-39.2
-44.59
-49.3
-52.31
-52.65
-49.71
-43.53
-34.87
-25.01
-15.29
-6.75
0.18
5.61
10.01
13.88
17.48
20.76
23.44
25.19
25.83
25.37
24.07
22.3
20.43
18.7
17.2
15.85
14.48
12.92
11.08
8.95
6.67
4.4
2.3
0.47
-1.1
-2.55
-4.08
-5.9
-8.11
-10.7
-13.5
-16.25
-18.75
-20.94
-22.94
-25.04
-27.6
-30.9
-35.08
-39.95
-44.91
-49.03
-51.21
-50.55
-46.65
-39.87
-31.16
-21.81
-12.96
-5.31
0.97
6.05
10.27
13.88
17.07
19.89
22.36
24.43
26.03
27.02
27.37
27.09
26.35
25.36
24.36
23.53
23.0
22.83
22.96
23.2
23.25
22.77
21.54
19.52
16.91
14.05
11.28
8.79
6.52
4.24
1.66
-1.31
-4.55
-7.66
-10.21
-11.95
-12.95
-13.59
-14.41
-15.93
-18.48
-22.21
-27.1
-32.92
-39.15
-44.89
-48.94
-50.16
-47.88
-42.16
-33.91
-24.54
-15.51
-7.83
-1.91
2.44
5.75
8.59
11.39
14.34
17.33
20.09
22.29
23.68
24.18
23.94
23.23
22.35
21.58
21.05
20.8
20.8
20.99
21.3
21.61
21.8
21.73
21.29
20.42
19.12
17.46
15.53
13.38
11.09
8.72
6.4
4.22
2.25
0.44
-1.41
-3.53
-6.07
-9.03
-12.19
-15.27
-18.06
-20.51
-22.79
-25.19
-27.98
-31.4
-35.62
-40.68
-46.4
-52.24
-57.26
-60.17
-59.87
-55.77
-48.15
-38.16
-27.32
-17.15
-8.59
-1.93
3.09
6.96
10.17
13.06
15.84
18.55
21.13
23.36
25.02
25.86
25.86
25.18
24.19
23.28
22.74
22.69
23.06
23.69
24.39
24.95
25.2
25.01
24.3
23.06
21.37
19.35
17.14
14.84
12.55
10.31
8.14
6.04
3.98
1.94
-0.12
-2.2
-4.32
-6.48
-8.75
-11.14
-13.66
-16.24
-18.77
-21.22
-23.68
-26.43
-29.86
-34.38
-40.14
-46.84
-53.61
-59.14
-62.01
-61.16
-56.29
-48.02
-37.67
-26.84
-16.86
-8.5
-1.96
2.99
6.79
9.87
12.6
15.25
17.96
20.66
23.09
24.92
25.89
25.97
25.38
24.5
23.68
23.21
23.17
23.54
24.22
25.06
25.86
26.35
26.24
25.31
23.46
20.8
17.6
14.27
11.19
8.56
6.35
4.34
2.18
-0.45
-3.67
-7.34
-11.13
-14.65
-17.6
-19.94
-21.9
-23.92
-26.48
-29.99
-34.61
-40.19
-46.23
-51.87
-56.04
-57.63
-55.81
-50.34
-41.71
-31.12
-20.13
-10.17
-2.15
3.77
8.08
11.54
14.79
18.07
21.22
23.86
25.66
26.53
26.67
26.38
25.98
25.63
25.38
25.21
25.13
25.22
25.57
26.2
27.0
27.68
27.88
27.34
25.93
23.82
21.31
18.72
16.26
13.98
11.83
9.72
7.62
5.48
3.2
0.62
-2.45
-6.07
-10.13
-14.39
-18.54
-22.33
-25.69
-28.71
-31.6
-34.69
-38.33
-42.88
-48.59
-55.32
-62.46
-68.85
-73.05
-73.7
-70.05
-62.21
-51.2
-38.59
-26.02
-14.74
-5.4
1.99
7.76
12.46
16.54
20.37
24.09
27.71
31.07
33.92
36.02
37.21
37.53
37.17
36.48
35.8
35.44
35.57
36.19
37.11
38.03
38.53
38.31
37.24
35.49
33.39
31.29
29.38
27.61
25.72
23.42
20.61
17.41
14.1
11.05
8.45
6.32
4.42
2.38
-0.23
-3.64
-7.87
-12.63
-17.47
-21.96
-25.86
-29.26
-32.45
-35.9
-40.04
-45.24
-51.62
-59.0
-66.63
-73.25
-77.27
-77.18
-72.2
-62.54
-49.52
-35.03
-20.99
-8.8
0.9
8.2
13.65
17.98
21.88
25.79
29.81
33.79
37.33
40.09
41.85
42.61
42.55
41.93
41.01
40.1
39.49
39.46
40.17
41.5
43.04
44.19
44.42
43.45
41.4
38.7
35.87
33.32
31.2
29.42
27.68
25.72
23.31
20.44
17.19
13.79
10.47
7.44
4.76
2.32
-0.12
-2.85
-6.11
-9.91
-14.08
-18.3
-22.25
-25.78
-28.97
-32.12
-35.7
-40.13
-45.75
-52.56
-60.13
-67.5
-73.23
-75.78
-73.95
-67.4
-56.8
-43.67
-29.89
-17.11
-6.35
2.14
8.67
13.84
18.23
22.22
25.97
29.5
32.66
35.32
37.36
38.67
39.28
39.24
38.72
37.91
37.06
36.36
35.95
35.81
35.82
35.72
35.21
34.04
32.09
29.42
26.27
23.02
20.05
17.55
15.48
13.58
11.46
8.83
5.53
1.68
-2.5
-6.72
-10.73
-14.43
-17.82
-21.07
-24.45
-28.32
-33.07
-38.94
-45.81
-53.09
-59.66
-64.1
-65.1
-61.89
-54.5
-43.87
-31.54
-19.19
-8.12
0.93
7.89
13.16
17.31
20.83
24.01
26.92
29.47
31.52
32.93
33.68
33.82
33.45
32.72
31.76
30.71
29.74
29.03
28.7
28.75
28.99
29.13
28.81
27.78
25.97
23.48
20.57
17.55
14.67
12.09
9.75
7.46
4.92
1.89
-1.72
-5.76
-9.91
-13.81
-17.17
-19.92
-22.17
-24.28
-26.69
-29.95
-34.48
-40.46
-47.54
-54.76
-60.67
-63.67
-62.57
-57.01
-47.69
-36.08
-24.0
-12.96
-3.82
3.34
8.87
13.32
17.14
20.52
23.55
26.25
28.63
30.67
32.33
33.49
34.06
34.01
33.44
32.62
31.83
31.32
31.26
31.61
32.25
32.93
33.38
33.33
32.56
31.0
28.71
25.91
22.93
20.06
17.48
15.26
13.28
11.35
9.22
6.72
3.78
0.44
-3.11
-6.58
-9.72
-12.42
-14.77
-17.11
-19.94
-23.72
-28.73
-34.88
-41.58
-47.75
-52.04
-53.21
-50.52
-44.08
-34.83
-24.28
-13.98
-5.12
1.78
6.78
10.4
13.25
15.85
18.54
21.4
24.32
26.98
29.04
30.18
30.33
29.61
28.33
26.85
25.49
24.48
23.9
23.74
23.87
24.09
24.16
23.91
23.25
22.2
20.86
19.35
17.77
16.19
14.61
13.0
11.28
9.41
7.38
5.2
2.94
0.65
-1.69
-4.14
-6.78
-9.62
-12.59
-15.49
-18.08
-20.24
-22.03
-23.78
-25.97
-29.06
-33.23
-38.24
-43.34
-47.45
-49.45
-48.53
-44.44
-37.59
-28.9
-19.57
-10.75
-3.34
2.28
6.15
8.7
10.46
11.9
13.29
14.68
15.98
17.09
17.92
18.46
18.67
18.51
17.98
17.12
16.16
15.38
15.06
15.29
15.94
16.67
17.05
16.72
15.54
13.61
11.23
8.76
6.5
4.55
2.89
1.36
-0.22
-2.01
-4.05
-6.28
-8.53
-10.58
-12.22
-13.41
-14.26
-15.09
-16.31
-18.33
-21.3
-25.06
-29.04
-32.38
-34.07
-33.29
-29.69
-23.53
-15.7
-7.48
-0.15
5.41
8.92
10.74
11.52
11.98
12.56
13.32
14.11
14.64
14.7
14.28
13.55
12.75
12.11
11.72
11.57
11.54
11.52
11.48
11.44
11.42
11.4
11.25
10.84
10.05
8.86
7.31
5.53
3.64
1.78
0.07
-1.36
-2.49
-3.35
-4.15
-5.1
-6.37
-7.94
-9.66
-11.27
-12.58
-13.59
-14.51
-15.64
-17.34
-19.87
-23.36
-27.68
-32.44
-36.96
-40.31
-41.53
-39.94
-35.44
-28.57
-20.44
-12.35
-5.37
-0.11
3.4
5.54
6.84
7.74
8.6
9.63
10.94
12.52
14.21
15.71
16.71
17.0
16.58
15.69
14.67
13.8
13.28
13.11
13.25
13.57
13.95
14.16
14.03
13.39
12.21
10.68
9.02
7.49
6.17
5.03
3.92
2.74
1.45
0.12
-1.11
-2.21
-3.21
-4.26
-5.54
-7.18
-9.24
-11.6
-14.06
-16.38
-18.44
-20.28
-22.1
-24.2
-26.87
-30.24
-34.31
-38.8
-43.19
-46.65
-48.24
-47.18
-43.09
-36.25
-27.64
-18.58
-10.41
-3.99
0.4
3.11
4.75
5.92
7.11
8.5
10.08
11.67
13.04
14.02
14.51
14.58
14.4
14.17
14.01
14.0
14.17
14.54
15.12
15.87
16.68
17.32
17.48
16.98
15.77
14.03
12.08
10.26
8.84
7.83
7.11
6.41
5.47
4.11
2.34
0.29
-1.79
-3.62
-5.05
-6.12
-7.02
-8.01
-9.32
-11.02
-12.99
-14.95
-16.71
-18.22
-19.71
-21.56
-24.19
-27.83
-32.48
-37.85
-43.37
-48.25
-51.57
-52.47
-50.35
-45.18
-37.55
-28.58
-19.64
-11.9
-6.05
-2.17
0.14
1.54
2.69
4.01
5.7
7.65
9.57
11.18
12.25
12.72
12.7
12.4
12.05
11.85
11.94
12.38
13.22
14.37
15.64
16.79
17.5
17.58
16.92
15.61
13.82
11.77
9.71
7.85
6.33
5.17
4.21
3.2
1.85
-0.08
-2.67
-5.78
-9.12
-12.35
-15.2
-17.56
-19.56
-21.53
-23.87
-27.0
-31.15
-36.33
-42.13
-47.86
-52.48
-54.9
-54.24
-50.12
-42.89
-33.51
-23.36
-13.77
-5.65
0.64
5.28
8.76
11.63
14.32
17.05
19.83
22.49
24.76
26.35
27.09
27.03
26.38
25.5
24.7
24.2
24.09
24.32
24.78
25.27
25.61
25.61
25.17
24.34
23.21
21.86
20.35
18.66
16.72
14.54
12.18
9.78
7.43
5.16
2.94
0.68
-1.73
-4.41
-7.43
-10.8
-14.42
-18.1
-21.66
-24.99
-28.18
-31.46
-35.23
-39.88
-45.66
-52.52
-59.9
-66.8
-71.81
-73.55
-71.07
-64.28
-54.01
-41.88
-29.65
-18.77
-10.0
-3.34
1.68
5.75
9.44
13.19
17.22
21.55
26.03
30.35
34.06
36.78
38.28
38.59
38.1
37.34
36.87
37.06
38.01
39.56
41.31
42.8
43.62
43.48
42.26
40.09
37.27
34.24
31.4
29.03
27.15
25.49
23.68
21.37
18.39
14.88
11.2
7.78
4.91
2.62
0.65
-1.48
-4.21
-7.78
-12.11
-16.94
-21.91
-26.76
-31.39
-35.87
-40.46
-45.52
-51.48
-58.65
-66.92
-75.52
-82.93
-87.24
-86.83
-80.96
-70.21
-56.25
-41.25
-27.13
-15.06
-5.32
2.44
8.83
14.43
19.66
24.75
29.73
34.5
38.82
42.38
44.94
46.37
46.76
46.37
45.61
44.95
44.78
45.34
46.6
48.34
50.11
51.46
51.98
51.45
49.93
47.64
44.99
42.36
40.02
37.96
35.96
33.66
30.79
27.28
23.36
19.41
15.74
12.46
9.39
6.19
2.53
-1.74
-6.57
-11.67
-16.67
-21.3
-25.42
-29.17
-32.93
-37.24
-42.71
-49.74
-58.31
-67.71
-76.5
-82.77
-84.62
-80.88
-71.57
-57.97
-42.19
-26.44
-12.38
-0.73
8.54
15.83
21.57
26.0
29.31
31.75
33.71
35.56
37.47
39.3
40.71
41.4
41.27
40.53
39.63
39.02
39.0
39.66
40.78
42.02
42.95
43.28
42.85
41.64
39.73
37.25
34.33
31.16
27.97
24.97
22.27
19.72
17.04
13.85
9.92
5.27
0.12
-5.15
-10.22
-14.96
-19.41
-23.79
-28.42
-33.69
-39.94
-47.38
-55.78
-64.31
-71.54
-75.72
-75.34
-69.69
-59.22
-45.48
-30.59
-16.59
-4.81
4.35
11.26
16.67
21.27
25.47
29.4
33.01
36.21
38.92
41.09
42.63
43.43
43.49
42.97
42.21
41.69
41.83
42.81
44.45
46.24
47.58
47.97
47.21
45.46
43.07
40.41
37.67
34.86
31.89
28.64
25.1
21.4
17.73
14.24
11.06
8.15
5.37
2.45
-0.92
-4.97
-9.71
-14.87
-19.96
-24.47
-28.07
-30.82
-33.19
-35.92
-39.78
-45.31
-52.61
-61.14
-69.7
-76.62
-80.16
-79.0
-72.76
-62.15
-48.76
-34.61
-21.44
-10.37
-1.72
4.82
9.86
14.01
17.81
21.53
25.3
29.04
32.51
35.42
37.54
38.76
39.11
38.78
38.09
37.35
36.88
36.9
37.46
38.39
39.36
39.96
39.9
39.05
37.56
35.71
33.82
32.05
30.38
28.57
26.41
23.69
20.43
16.77
13.01
9.45
6.28
3.49
0.88
-1.91
-5.18
-9.03
-13.3
-17.6
-21.49
-24.71
-27.29
-29.57
-32.06
-35.38
-40.01
-46.24
-53.94
-62.41
-70.32
-75.91
-77.51
-74.11
-65.8
-53.83
-40.2
-26.93
-15.49
-6.5
0.2
5.21
9.17
12.65
16.0
19.42
22.89
26.28
29.26
31.52
32.83
33.15
32.68
31.72
30.65
29.77
29.31
29.32
29.75
30.48
31.24
31.75
31.73
30.95
29.34
27.03
24.31
21.56
19.04
16.82
14.78
12.69
10.36
7.72
4.85
1.83
-1.33
-4.71
-8.36
-12.2
-16.01
-19.5
-22.5
-25.06
-27.48
-30.19
-33.66
-38.21
-43.96
-50.69
-57.7
-63.87
-67.79
-68.12
-64.14
-56.0
-44.8
-32.27
-20.2
-9.92
-2.01
3.69
7.82
11.11
14.09
16.99
19.76
22.21
24.15
25.49
26.26
26.55
26.47
26.13
25.67
25.26
25.11
25.36
26.05
27.0
27.88
28.24
27.72
26.08
23.36
19.83
15.94
12.15
8.85
6.19
4.07
2.19
0.16
-2.38
-5.59
-9.42
-13.63
-17.83
-21.67
-24.96
-27.79
-30.49
-33.6
-37.66
-43.08
-49.8
-57.25
-64.22
-69.12
-70.47
-67.34
-59.81
-48.96
-36.55
-24.41
-13.85
-5.42
1.03
5.98
9.92
13.25
16.22
19.04
21.9
24.8
27.55
29.74
31.0
31.16
30.36
29.08
27.89
27.3
27.51
28.46
29.85
31.31
32.47
33.04
32.88
31.93
30.23
27.89
25.06
21.95
18.76
15.68
12.75
9.95
7.14
4.18
0.98
-2.48
-6.16
-10.03
-14.03
-18.1
-22.15
-26.09
-29.84
-33.44
-37.1
-41.19
-46.17
-52.37
-59.65
-67.26
-73.82
-77.65
-77.3
-72.12
-62.55
-50.02
-36.44
-23.59
-12.68
-4.12
2.28
7.06
10.85
14.24
17.67
21.41
25.48
29.56
33.15
35.72
36.91
36.76
35.69
34.33
33.31
33.05
33.65
34.91
36.41
37.7
38.41
38.33
37.45
35.93
34.04
32.07
30.23
28.6
27.07
25.46
23.53
21.11
18.2
14.9
11.37
7.79
4.19
0.54
-3.31
-7.45
-11.92
-16.63
-21.35
-25.83
-29.87
-33.41
-36.64
-39.96
-43.98
-49.26
-56.05
-64.0
-72.02
-78.45
-81.44
-79.62
-72.61
-61.23
-47.27
-32.89
-19.95
-9.5
-1.66
4.08
8.53
12.38
16.09
19.88
23.78
27.71
31.46
34.73
37.22
38.74
39.32
39.23
38.87
38.67
38.93
39.72
40.94
42.25
43.26
43.56
42.9
41.25
38.84
36.0
33.11
30.39
27.85
25.35
22.69
19.69
16.3
12.61
8.81
5.15
1.83
-1.12
-3.85
-6.65
-9.78
-13.34
-17.25
-21.18
-24.82
-27.9
-30.47
-32.81
-35.42
-38.94
-43.85
-50.38
-58.17
-66.25
-73.1
-76.99
-76.5
-71.07
-61.21
-48.36
-34.49
-21.38
-10.24
-1.41
5.42
10.87
15.52
19.7
23.49
26.83
29.6
31.73
33.2
34.04
34.32
34.17
33.76
33.3
32.93
32.8
32.95
33.35
33.9
34.4
34.62
34.29
33.21
31.34
28.78
25.76
22.58
19.49
16.64
14.07
11.62
9.05
6.09
2.53
-1.6
-6.12
-10.64
-14.85
-18.57
-21.86
-25.0
-28.43
-32.61
-37.98
-44.81
-53.0
-61.9
-70.2
-76.15
-78.06
-74.87
-66.62
-54.47
-40.29
-26.06
-13.27
-2.74
5.4
11.47
16.03
19.71
23.08
26.55
30.28
34.06
37.41
39.81
40.9
40.67
39.46
37.85
36.49
35.81
36.02
36.98
38.39
39.84
40.91
41.29
40.81
39.39
37.14
34.28
31.1
27.87
24.71
21.63
18.46
15.06
11.36
7.39
3.24
-1.05
-5.46
-10.03
-14.73
-19.45
-24.04
-28.34
-32.27
-35.87
-39.26
-42.72
-46.64
-51.46
-57.5
-64.72
-72.45
-79.35
-83.64
-83.74
-78.79
-69.04
-55.83
-41.14
-26.95
-14.63
-4.79
2.69
8.39
13.02
17.16
21.23
25.42
29.67
33.74
37.25
39.8
41.17
41.41
40.85
39.97
39.26
39.0
39.26
39.94
40.82
41.69
42.28
42.37
41.77
40.4
38.33
35.82
33.23
30.81
28.64
26.54
24.17
21.28
17.82
13.96
10.03
6.33
2.93
-0.29
-3.6
-7.28
-11.45
-15.99
-20.63
-25.09
-29.15
-32.86
-36.45
-40.27
-44.72
-50.1
-56.58
-64.07
-72.09
-79.63
-85.24
-87.33
-84.64
-76.83
-64.73
-50.11
-35.15
-21.74
-10.88
-2.67
3.52
8.54
13.1
17.63
22.25
26.85
31.22
35.08
38.14
40.25
41.44
41.91
41.97
41.91
41.95
42.22
42.78
43.59
44.52
45.34
45.66
45.18
43.77
41.57
38.9
36.18
33.66
31.37
29.17
26.8
24.07
20.92
17.42
13.78
10.28
7.18
4.64
2.63
0.85
-1.15
-3.86
-7.54
-12.17
-17.36
-22.59
-27.43
-31.68
-35.49
-39.27
-43.6
-49.02
-55.83
-63.91
-72.5
-80.26
-85.47
-86.51
-82.38
-73.12
-59.88
-44.61
-29.45
-16.06
-5.32
2.75
8.67
13.16
16.87
20.26
23.68
27.34
31.24
35.17
38.68
41.25
42.49
42.41
41.39
40.07
39.07
38.76
39.16
40.02
40.92
41.47
41.39
40.56
39.01
36.93
34.55
32.09
29.65
27.14
24.43
21.4
18.07
14.6
11.18
7.9
4.68
1.31
-2.42
-6.6
-11.11
-15.67
-19.98
-23.85
-27.3
-30.58
-34.09
-38.32
-43.73
-50.57
-58.68
-67.26
-74.91
-79.83
-80.3
-75.39
-65.33
-51.59
-36.41
-22.0
-9.94
-0.72
6.07
11.29
15.78
20.01
24.09
27.89
31.21
33.89
35.84
37.03
37.45
37.2
36.48
35.57
34.78
34.38
34.51
35.14
36.07
37.02
37.66
37.73
37.11
35.76
33.74
31.13
28.06
24.68
21.18
17.78
14.57
11.56
8.6
5.46
1.93
-2.12
-6.7
-11.68
-16.87
-21.98
-26.78
-31.03
-34.72
-38.09
-41.62
-45.98
-51.71
-58.97
-67.26
-75.36
-81.55
-84.09
-81.74
-74.3
-62.63
-48.48
-33.89
-20.6
-9.65
-1.29
4.85
9.47
13.3
16.98
20.92
25.26
29.81
34.14
37.66
39.89
40.65
40.1
38.72
37.19
36.11
35.88
36.61
38.04
39.75
41.2
41.96
41.77
40.61
38.65
36.16
33.41
30.58
27.72
24.81
21.72
18.37
14.78
11.09
7.51
4.18
1.08
-2.0
-5.42
-9.42
-13.99
-18.83
-23.49
-27.64
-31.25
-34.63
-38.25
-42.63
-48.16
-54.96
-62.84
-71.17
-78.79
-84.14
-85.63
-82.12
-73.46
-60.68
-45.75
-30.88
-17.85
-7.53
0.17
5.93
10.57
14.73
18.76
22.79
26.82
30.78
34.41
37.38
39.32
40.02
39.57
38.35
36.99
36.05
35.94
36.75
38.32
40.24
42.02
43.16
43.29
42.33
40.45
38.03
35.48
33.07
30.78
28.38
25.59
22.26
18.47
14.5
10.66
7.08
3.63
-0.03
-4.2
-8.99
-14.2
-19.41
-24.19
-28.3
-31.89
-35.37
-39.34
-44.36
-50.74
-58.44
-66.86
-74.89
-80.94
-83.43
-81.19
-73.97
-62.59
-48.69
-34.22
-20.84
-9.46
-0.22
7.27
13.53
18.89
23.42
27.04
29.64
31.26
32.07
32.34
32.27
31.95
31.42
30.68
29.93
29.45
29.61
30.58
32.21
34.04
35.39
35.6
34.37
31.73
28.13
24.24
20.68
17.83
15.69
13.9
11.91
9.23
5.57
1.02
-4.09
-9.29
-14.2
-18.61
-22.53
-26.16
-29.9
-34.22
-39.64
-46.48
-54.64
-63.36
-71.2
-76.38
-77.25
-72.93
-63.66
-50.75
-36.2
-22.07
-9.88
-0.29
6.82
12.16
16.59
20.78
25.0
29.18
33.08
36.39
38.88
40.51
41.32
41.44
41.08
40.48
39.85
39.41
39.29
39.47
39.84
40.18
40.25
39.81
38.69
36.79
34.12
30.79
26.99
22.99
19.06
15.43
12.23
9.41
6.75
3.94
0.62
-3.41
-8.09
-13.17
-18.25
-23.04
-27.45
-31.67
-36.02
-40.93
-46.83
-53.98
-62.31
-71.17
-79.3
-84.96
-86.47
-82.74
-73.82
-60.93
-46.09
-31.38
-18.39
-7.82
0.45
7.03
12.59
17.72
22.74
27.73
32.59
37.09
40.93
43.82
45.55
46.11
45.68
44.61
43.38
42.41
42.02
42.28
43.05
43.94
44.54
44.47
43.54
41.78
39.42
36.76
34.06
31.44
28.83
25.99
22.77
19.09
15.13
11.15
7.4
3.93
0.57
-2.99
-7.07
-11.75
-16.86
-21.99
-26.73
-30.83
-34.33
-37.59
-41.15
-45.65
-51.57
-59.07
-67.71
-76.37
-83.38
-86.85
-85.3
-78.21
-66.28
-51.29
-35.52
-21.07
-9.24
-0.32
6.17
11.14
15.46
19.72
24.19
28.82
33.38
37.52
40.86
43.13
44.18
44.14
43.3
42.15
41.16
40.73
40.99
41.86
43.01
43.99
44.39
43.91
42.48
40.25
37.48
34.5
31.55
28.72
25.92
23.01
19.86
16.46
12.94
9.53
6.42
3.65
1.03
-1.76
-5.05
-9.01
-13.54
-18.33
-23.02
-27.34
-31.31
-35.19
-39.48
-44.73
-51.32
-59.32
-68.18
-76.71
-83.23
-85.94
-83.55
-75.74
-63.4
-48.42
-33.04
-19.2
-8.01
0.37
6.48
11.15
15.09
18.76
22.32
25.77
28.97
31.74
33.86
35.16
35.58
35.27
34.5
33.64
32.99
32.73
32.88
33.28
33.76
34.13
34.16
33.66
32.43
30.36
27.5
24.07
20.47
17.08
14.17
11.75
9.55
7.11
3.97
-0.13
-5.12
-10.57
-15.91
-20.66
-24.67
-28.19
-31.78
-36.11
-41.69
-48.69
-56.79
-65.15
-72.41
-76.96
-77.33
-72.67
-63.21
-50.22
-35.7
-21.73
-9.8
-0.48
6.5
11.92
16.55
20.94
25.29
29.47
33.23
36.27
38.31
39.24
39.09
38.11
36.69
35.33
34.46
34.35
35.01
36.21
37.54
38.53
38.85
38.26
36.82
34.69
32.17
29.52
26.9
24.34
21.75
18.96
15.9
12.61
9.23
5.96
2.88
-0.09
-3.25
-6.9
-11.24
-16.19
-21.44
-26.58
-31.28
-35.45
-39.23
-43.0
-47.23
-52.45
-59.04
-66.96
-75.61
-83.68
-89.37
-90.91
-87.08
-77.84
-64.31
-48.51
-32.69
-18.65
-7.33
1.17
7.37
12.06
16.01
19.82
23.87
28.31
33.01
37.61
41.59
44.4
45.74
45.6
44.35
42.59
41.0
40.09
40.08
40.86
42.08
43.26
43.91
43.69
42.44
40.23
37.3
34.01
30.68
27.53
24.59
21.72
18.76
15.6
12.27
8.95
5.83
2.99
0.3
-2.51
-5.76
-9.62
-14.07
-18.9
-23.76
-28.41
-32.65
-36.47
-39.99
-43.52
-47.47
-52.4
-58.76
-66.6
-75.28
-83.36
-88.83
-89.76
-85.03
-74.8
-60.57
-44.64
-29.33
-16.31
-6.18
1.37
7.15
11.99
16.51
20.99
25.49
29.9
34.01
37.51
40.08
41.51
41.78
41.15
40.05
38.93
38.17
37.99
38.41
39.31
40.42
41.36
41.7
41.1
39.44
36.89
33.84
30.78
28.0
25.53
23.12
20.42
17.28
13.75
10.13
6.67
3.52
0.51
-2.65
-6.26
-10.39
-14.88
-19.39
-23.65
-27.49
-31.04
-34.59
-38.49
-43.14
-48.93
-56.07
-64.42
-73.21
-81.01
-85.95
-86.29
-81.15
-70.86
-56.99
-41.77
-27.31
-15.03
-5.37
2.02
7.78
12.54
16.68
20.36
23.66
26.58
29.12
31.18
32.64
33.38
33.37
32.77
31.91
31.2
31.04
31.61
32.85
34.49
36.06
37.09
37.18
36.11
33.83
30.54
26.57
22.43
18.57
15.23
12.34
9.53
6.29
2.21
-2.82
-8.53
-14.39
-19.85
-24.52
-28.29
-31.46
-34.59
-38.38
-43.54
-50.45
-58.93
-68.07
-76.32
-81.76
-82.75
-78.34
-68.73
-55.19
-39.71
-24.39
-10.89
-0.1
7.89
13.56
17.71
21.1
24.37
27.84
31.52
35.13
38.22
40.32
41.2
40.95
39.98
38.81
37.94
37.65
37.97
38.71
39.6
40.34
40.66
40.39
39.43
37.79
35.55
32.79
29.63
26.21
22.66
19.18
15.88
12.81
9.84
6.76
3.3
-0.7
-5.27
-10.24
-15.37
-20.4
-25.14
-29.58
-33.86
-38.26
-43.17
-48.97
-56.0
-64.28
-73.37
-82.22
-89.15
-92.34
-90.35
-82.7
-70.2
-54.76
-38.76
-24.24
-12.32
-3.1
4.04
9.94
15.27
20.41
25.47
30.44
35.26
39.7
43.4
45.99
47.22
47.13
46.15
44.93
44.1
44.05
44.88
46.32
47.93
49.22
49.73
49.23
47.72
45.4
42.6
39.61
36.57
33.45
30.16
26.58
22.72
18.68
14.65
10.76
7.08
3.55
-0.04
-3.98
-8.51
-13.64
-19.17
-24.64
-29.61
-33.82
-37.4
-40.87
-44.98
-50.47
-57.77
-66.68
-76.26
-84.8
-90.23
-90.72
-85.25
-74.16
-59.0
-42.11
-25.85
-11.93
-1.05
6.95
12.81
17.41
21.49
25.6
30.0
34.68
39.35
43.49
46.53
48.08
48.09
46.9
45.17
43.59
42.73
42.81
43.72
45.04
46.22
46.75
46.33
44.9
42.7
40.07
37.35
34.72
32.14
29.43
26.42
23.03
19.39
15.71
12.21
8.94
5.76
2.36
-1.55
-6.1
-11.25
-16.7
-22.08
-27.03
-31.36
-35.12
-38.6
-42.36
-47.07
-53.25
-60.94
-69.45
-77.28
