0
33.65
31.72
30.21
29.0
28.08
27.42
26.95
26.48
25.68
24.13
21.43
17.34
11.96
5.73
-0.72
-6.81
-12.23
-17.12
-21.93
-27.37
-34.07
-42.37
-52.01
-62.05
-70.87
-76.54
-77.28
-72.03
-60.82
-44.79
-25.89
-6.29
12.05
27.74
39.93
48.28
52.77
53.63
51.38
46.81
40.86
34.54
28.72
23.94
20.42
18.02
16.5
15.53
14.93
14.58
14.44
14.39
14.21
13.54
11.97
9.23
5.24
0.26
-5.27
-10.82
-16.0
-20.71
-25.19
-29.89
-35.35
-41.96
-49.7
-58.07
-65.92
-71.72
-73.79
-70.83
-62.37
-48.91
-31.93
-13.35
4.88
21.23
34.72
44.82
51.31
54.17
53.63
50.24
44.87
38.57
32.3
26.77
22.32
19.02
16.8
15.52
15.04
15.18
15.65
16.12
16.18
15.43
13.51
10.21
5.56
-0.17
-6.45
-12.68
-18.41
-23.52
-28.33
-33.47
-39.68
-47.5
-56.89
-67.09
-76.54
-83.25
-85.23
-81.13
-70.67
-54.77
-35.3
-14.53
5.41
22.98
37.23
47.74
54.44
57.46
57.14
54.08
49.12
43.25
37.4
32.3
28.35
25.62
23.96
23.06
22.65
22.53
22.58
22.73
22.87
22.78
22.15
20.61
17.86
13.82
8.6
2.57
-3.78
-10.03
-15.93
-21.51
-27.04
-32.98
-39.82
-47.88
-57.04
-66.62
-75.31
-81.36
-82.99
-78.88
-68.67
-53.07
-33.75
-12.89
7.36
25.31
39.95
50.83
57.98
61.6
62.1
59.98
55.96
50.87
45.59
40.84
37.12
34.53
32.9
31.88
31.12
30.4
29.68
29.0
28.43
27.87
27.02
25.45
22.77
18.77
13.59
7.62
1.39
-4.69
-10.42
-15.85
-21.21
-26.79
-32.86
-39.63
-47.18
-55.36
-63.62
-70.9
-75.77
-76.74
-72.69
-63.32
-49.31
-32.12
-13.69
4.13
19.85
32.52
41.69
47.25
49.36
48.38
44.97
39.98
34.38
29.02
24.47
20.93
18.27
16.24
14.68
13.56
12.95
12.88
13.21
13.55
13.4
12.29
9.92
6.28
1.64
-3.58
-8.88
-13.93
-18.66
-23.34
-28.45
-34.53
-41.86
-50.22
-58.77
-66.13
-70.73
-71.18
-66.71
-57.35
-43.88
-27.71
-10.47
6.17
20.81
32.42
40.4
44.66
45.51
43.61
39.79
34.9
29.69
24.73
20.42
16.95
14.36
12.61
11.61
11.23
11.3
11.53
11.54
10.86
9.12
6.15
2.09
-2.67
-7.63
-12.44
-17.0
-21.56
-26.6
-32.68
-40.22
-49.24
-59.16
-68.72
-76.14
-79.56
-77.58
-69.69
-56.46
-39.4
-20.51
-1.76
15.22
29.32
39.91
46.77
50.01
50.07
47.61
43.49
38.5
33.34
28.47
24.15
20.48
17.47
15.14
13.52
12.62
12.38
12.59
12.84
12.62
11.42
8.93
5.14
0.37
-4.89
-10.23
-15.44
-20.64
-26.18
-32.5
-39.91
-48.4
-57.41
-65.83
-72.05
-74.31
-71.16
-61.98
-47.24
-28.44
-7.7
12.74
31.08
46.14
57.35
64.61
68.1
68.22
65.61
61.05
55.39
49.43
43.75
38.69
34.35
30.68
27.65
25.23
23.43
22.21
21.4
20.68
19.63
17.85
15.12
11.4
6.88
1.9
-3.3
-8.59
-14.09
-20.11
-27.08
-35.35
-44.9
-55.11
-64.69
-71.89
-74.84
-72.24
-63.68
-49.89
-32.55
-13.75
4.46
20.47
33.31
42.61
48.36
50.84
50.44
47.65
43.05
37.28
31.02
24.93
19.55
15.27
12.26
10.56
9.99
10.22
10.75
11.04
10.57
9.04
6.41
2.88
-1.22
-5.59
-10.05
-14.6
-19.43
-24.82
-31.15
-38.61
-47.06
-55.77
-63.42
-68.27
-68.66
-63.58
-53.05
-38.16
-20.78
-3.03
13.27
26.82
37.02
43.73
47.12
47.51
45.29
40.95
35.12
28.58
22.2
16.76
12.83
10.62
9.9
10.14
10.71
11.04
10.79
9.82
8.17
5.89
2.99
-0.53
-4.74
-9.64
-15.27
-21.73
-29.2
-37.81
-47.46
-57.48
-66.54
-72.8
-74.39
-70.07
-59.7
-44.34
-25.95
-6.78
11.18
26.54
38.51
46.81
51.42
52.6
50.87
46.96
41.78
36.17
30.8
26.09
22.28
19.44
17.56
16.54
16.15
16.01
15.71
14.84
13.13
10.48
6.98
2.83
-1.7
-6.41
-11.23
-16.24
-21.71
-28.05
-35.63
-44.59
-54.49
-64.14
-71.74
-75.24
-72.95
-64.2
-49.59
-30.84
-10.26
9.88
27.86
42.61
53.63
60.74
64.03
63.83
60.8
55.91
50.21
44.62
39.67
35.55
32.22
29.57
27.59
26.36
25.88
26.01
26.4
26.53
25.85
23.95
20.64
15.99
10.35
4.18
-2.05
-8.04
-13.73
-19.4
-25.52
-32.67
-41.21
-50.94
-60.96
-69.63
-74.91
-74.96
-68.75
-56.43
-39.36
-19.74
0.04
17.99
32.77
43.79
50.97
54.52
54.8
52.35
47.87
42.23
36.33
30.93
26.54
23.27
21.03
19.63
18.91
18.78
19.14
19.73
20.16
19.89
18.46
15.68
11.6
6.56
0.99
-4.73
-10.34
-15.82
-21.34
-27.27
-34.06
-41.96
-50.71
-59.35
-66.27
-69.59
-67.84
-60.42
-47.94
-31.98
-14.6
2.23
17.06
29.03
37.8
43.33
45.76
45.41
42.73
38.34
32.97
27.34
22.09
17.74
14.6
12.74
12.06
12.25
12.92
13.62
13.9
13.41
11.89
9.26
5.67
1.45
-3.03
-7.47
-11.85
-16.45
-21.79
-28.4
-36.58
-46.08
-55.93
-64.51
-69.86
-70.23
-64.63
-53.25
-37.42
-19.22
-0.88
15.78
29.63
40.2
47.4
51.25
51.87
49.56
44.92
38.86
32.41
26.49
21.7
18.22
15.99
14.81
14.49
14.84
15.63
16.49
16.9
16.34
14.41
10.96
6.2
0.6
-5.23
-10.75
-15.74
-20.36
-25.19
-31.0
-38.4
-47.51
-57.66
-67.43
-74.87
-78.05
-75.59
-67.09
-53.23
-35.59
-16.27
2.75
19.93
34.32
45.52
53.37
57.86
59.06
57.27
53.13
47.63
41.86
36.74
32.77
29.96
28.05
26.72
25.87
25.52
25.75
26.43
27.17
27.33
26.31
23.71
19.5
14.04
7.91
1.72
-4.11
-9.41
-14.36
-19.36
-24.98
-31.78
-40.04
-49.58
-59.53
-68.38
-74.28
-75.49
-70.94
-60.57
-45.39
-27.16
-8.02
10.06
25.49
37.35
45.29
49.48
50.43
48.8
45.27
40.47
35.03
29.54
24.56
20.54
17.69
15.95
15.09
14.81
14.87
15.14
15.44
15.45
14.79
13.03
9.98
5.77
0.79
-4.44
-9.55
-14.38
-19.09
-24.1
-29.89
-36.82
-44.92
-53.59
-61.63
-67.39
-69.21
-65.98
-57.48
-44.52
-28.63
-11.65
4.7
19.08
30.57
38.63
43.1
44.18
42.35
38.34
32.96
26.99
21.09
15.87
11.78
9.16
8.11
8.45
9.67
11.13
12.15
12.26
11.23
9.09
6.04
2.37
-1.66
-5.85
-10.16
-14.71
-19.83
-25.96
-33.52
-42.57
-52.57
-62.27
-69.87
-73.5
-71.7
-63.96
-50.87
-33.96
-15.26
3.18
19.68
33.12
42.94
49.0
51.48
50.81
47.68
42.9
37.42
32.03
27.32
23.53
20.59
18.34
16.67
15.6
15.22
15.52
16.17
16.6
16.11
14.16
10.57
5.59
-0.26
-6.43
-12.48
-18.25
-23.82
-29.5
-35.74
-43.05
-51.65
-61.25
-70.81
-78.58
-82.54
-80.97
-73.14
-59.52
-41.67
-21.73
-1.82
16.4
31.89
44.08
52.69
57.6
58.86
56.88
52.45
46.72
40.87
35.86
32.16
29.71
28.13
27.03
26.25
25.89
26.13
26.94
27.95
28.47
27.77
25.38
21.22
15.72
9.48
3.18
-2.75
-8.16
-13.21
-18.31
-24.02
-30.85
-39.04
-48.32
-57.8
-66.02
-71.22
-71.86
-66.97
-56.52
-41.43
-23.37
-4.32
13.81
29.53
41.87
50.41
55.12
56.33
54.59
50.65
45.43
39.81
34.56
30.17
26.82
24.41
22.76
21.71
21.21
21.22
21.69
22.37
22.79
22.4
20.67
17.37
12.59
6.78
0.56
-5.44
-10.82
-15.51
-19.78
-24.22
-29.51
-36.19
-44.33
-53.29
-61.72
-67.75
-69.6
-66.08
-57.02
-43.33
-26.67
-8.98
7.99
22.87
34.78
43.21
47.99
49.29
47.66
43.91
39.01
33.85
29.1
25.2
22.36
20.61
19.89
20.11
21.09
22.6
24.36
26.08
27.45
28.2
28.19
27.38
25.77
23.27
19.58
14.21
6.63
-3.55
-16.33
-31.25
-47.49
-63.84
-78.85
-90.92
-98.46
-100.2
-95.58
-84.87
-69.28
-50.66
-31.06
-12.4
3.85
16.74
25.87
31.3
33.44
32.9
30.43
26.8
22.77
18.97
15.92
13.87
12.84
12.64
12.96
13.51
14.17
14.79
15.2
15.1
14.09
11.85
8.32
3.73
-1.5
-6.91
-12.23
-17.42
-22.66
-28.28
-34.68
-42.21
-50.98
-60.71
-70.52
-78.92
-84.06
-84.26
-78.46
-66.69
-50.09
-30.6
-10.5
8.24
24.23
36.8
45.8
51.45
54.08
54.08
51.93
48.25
43.77
39.19
35.08
31.78
29.33
27.66
26.69
26.42
26.85
27.88
29.2
30.23
30.3
28.81
25.54
20.65
14.71
8.43
2.44
-2.97
-7.89
-12.69
-17.96
-24.23
-31.85
-40.81
-50.53
-59.85
-67.08
-70.42
-68.47
-60.68
-47.65
-30.88
-12.43
5.71
21.95
35.25
45.06
51.21
53.81
53.23
50.14
45.38
39.87
34.4
29.57
25.69
22.82
20.84
19.57
18.81
18.45
18.38
18.52
18.65
18.37
17.27
15.01
11.46
6.81
1.39
-4.44
-10.47
-16.63
-23.03
-29.83
-37.22
-45.28
-53.74
-61.9
-68.52
-72.12
-71.38
-65.66
-55.23
-41.27
-25.46
-9.51
5.18
17.67
27.44
34.19
37.86
38.55
36.52
32.25
26.4
19.74
13.17
7.58
3.64
1.71
1.69
3.03
4.95
6.66
7.58
7.41
6.16
4.01
1.24
-1.88
-5.2
-8.73
-12.69
-17.5
-23.59
-31.25
-40.26
-49.78
-58.32
-64.09
-65.4
-61.25
-51.62
-37.52
-20.7
-3.22
13.09
26.91
37.51
44.66
48.46
49.22
47.31
43.28
37.77
31.53
25.31
19.77
15.35
12.22
10.29
9.26
8.72
8.25
7.5
6.19
4.15
1.34
-2.24
-6.44
-11.13
-16.19
-21.63
-27.67
-34.71
-43.17
-53.11
-63.98
-74.38
-82.27
-85.51
-82.51
-72.83
-57.37
-38.1
-17.47
2.32
19.68
33.79
44.42
51.6
55.51
56.42
54.8
51.29
46.67
41.7
36.99
32.97
29.96
28.12
27.5
27.91
28.9
29.81
29.96
28.93
26.63
23.26
19.18
14.66
9.82
4.61
-1.12
-7.56
-14.94
-23.47
-33.17
-43.63
-53.79
-61.99
-66.33
-65.18
-57.84
-44.73
-27.35
-7.8
11.77
29.57
44.43
55.7
63.18
66.87
67.04
64.19
59.11
52.8
46.35
40.67
36.28
33.23
31.24
29.91
28.91
28.13
27.51
26.98
26.25
24.91
22.55
18.97
14.3
8.92
3.3
-2.23
-7.59
-13.03
-19.01
-26.05
-34.52
-44.34
-54.78
-64.39
-71.23
-73.45
-69.83
-60.29
-45.91
-28.58
-10.44
6.7
21.59
33.52
42.12
47.2
48.76
47.11
42.88
37.01
30.51
24.26
18.89
14.78
12.13
10.96
11.09
12.12
13.45
14.44
14.56
13.54
11.41
8.38
4.73
0.68
-3.73
-8.57
-14.01
-20.24
-27.44
-35.52
-44.04
-52.09
-58.33
-61.3
-59.75
-53.13
-41.69
-26.61
-9.59
7.47
22.91
35.54
44.72
50.27
52.35
51.35
47.82
42.42
35.96
29.24
23.0
17.85
14.12
11.86
10.87
10.67
10.68
10.31
9.09
6.83
3.59
-0.36
-4.7
-9.22
-13.91
-18.93
-24.56
-31.14
-38.91
-47.89
-57.71
-67.45
-75.62
-80.39
-80.05
-73.6
-61.13
-43.95
-24.13
-4.02
14.41
29.84
41.62
49.61
53.97
55.04
53.39
49.76
45.0
39.94
35.23
31.28
28.22
25.99
24.48
23.52
22.99
22.68
22.36
21.7
20.32
17.92
14.34
9.74
4.45
-1.06
-6.44
-11.62
-16.87
-22.7
-29.67
-38.06
-47.62
-57.39
-65.81
-71.0
-71.26
-65.55
-53.91
-37.49
-18.22
1.64
20.09
35.72
47.78
56.03
60.57
61.7
59.88
55.87
50.6
45.06
40.05
35.96
32.81
30.37
28.41
26.9
25.9
25.48
25.47
25.44
24.82
23.08
20.0
15.64
10.33
4.49
-1.51
-7.35
-12.88
-18.11
-23.26
-28.83
-35.35
-43.22
-52.3
-61.73
-69.93
-75.01
-75.31
-69.89
-58.91
-43.5
-25.48
-6.88
10.46
25.12
36.22
43.39
46.68
46.47
43.39
38.3
32.09
25.66
19.78
15.01
11.6
9.53
8.59
8.52
9.06
10.01
11.13
12.08
12.41
11.63
9.43
5.78
1.0
-4.41
-10.01
-15.48
-20.81
-26.19
-31.97
-38.46
-45.68
-53.24
-60.17
-65.03
-66.3
-62.76
-54.02
-40.64
-24.04
-6.1
11.3
26.6
38.73
47.15
51.71
52.64
50.48
46.02
40.15
33.78
27.7
22.46
18.42
15.65
14.04
13.31
13.13
13.13
13.01
12.5
11.34
9.28
6.16
1.96
-3.12
-8.7
-14.29
-19.58
-24.52
-29.47
-35.01
-41.78
-50.14
-59.87
-70.07
-79.2
-85.32
-86.58
-81.77
-70.68
-54.29
-34.58
-13.88
5.64
22.47
35.88
45.67
51.92
54.79
54.54
51.63
46.89
41.36
36.11
31.89
29.04
27.44
26.66
26.27
25.92
25.45
24.9
24.38
23.97
23.58
22.86
21.27
18.31
13.7
7.67
0.85
-5.96
-12.13
-17.46
-22.21
-26.92
-32.17
-38.42
-45.89
-54.5
-63.71
-72.42
-79.01
-81.62
-78.76
-69.79
-55.32
-36.99
-17.07
2.29
19.47
33.54
44.19
51.37
55.22
55.99
54.13
50.33
45.53
40.65
36.51
33.56
31.9
31.34
31.56
32.27
33.23
34.29
35.26
35.89
35.88
34.97
33.08
30.23
26.6
22.32
17.48
12.16
6.46
0.58
-5.23
-10.76
-15.95
-20.93
-25.94
-31.27
-37.17
-43.86
-51.46
-59.84
-68.42
-76.06
-81.15
-82.02
-77.46
-67.19
-52.05
-33.72
-14.35
4.11
20.22
33.16
42.68
48.85
51.88
52.04
49.72
45.46
40.02
34.27
29.11
25.18
22.76
21.73
21.7
22.2
22.85
23.45
23.93
24.23
24.2
23.58
22.06
19.4
15.56
10.69
5.12
-0.73
-6.47
-11.82
-16.73
-21.31
-25.87
-30.77
-36.38
-42.96
-50.48
-58.54
-66.28
-72.42
-75.57
-74.5
-68.53
-57.82
-43.33
-26.65
-9.59
6.22
19.61
29.94
36.95
40.69
41.35
39.34
35.29
30.06
24.57
19.6
15.6
12.64
10.53
9.0
7.96
7.44
7.58
8.4
9.7
11.03
11.82
11.48
9.67
6.31
1.68
-3.71
-9.27
-14.6
-19.55
-24.36
-29.53
-35.57
-42.81
-51.11
-59.75
-67.41
-72.5
-73.5
-69.4
-60.08
-46.34
-29.71
-12.02
5.0
20.03
32.19
40.99
46.26
48.1
46.94
43.52
38.78
33.63
28.76
24.55
21.05
18.15
15.7
13.67
12.13
11.24
11.07
11.49
12.1
12.3
11.47
9.14
5.25
0.09
-5.75
-11.68
-17.29
-22.5
-27.58
-33.0
-39.32
-47.0
-56.18
-66.38
-76.49
-84.74
-89.18
-88.18
-80.95
-67.85
-50.3
-30.3
-9.97
8.94
25.17
37.98
46.99
52.14
53.67
52.18
48.52
43.7
38.57
33.78
29.62
26.2
23.56
21.78
20.96
21.1
21.99
23.18
24.09
24.16
23.02
20.56
16.92
12.35
7.2
1.73
-3.86
-9.56
-15.54
-22.18
-29.93
-39.02
-49.23
-59.62
-68.62
-74.32
-75.02
-69.74
-58.6
-42.76
-24.14
-4.89
13.07
28.33
40.13
48.25
52.75
53.96
52.36
48.56
43.3
37.38
31.48
26.12
21.62
18.17
15.9
14.83
14.88
15.73
16.84
17.56
17.33
15.87
13.22
9.65
5.44
0.79
-4.24
-9.69
-15.66
-22.36
-30.02
-38.77
-48.37
-57.98
-66.11
-70.97
-70.94
-65.18
-53.95
-38.55
-20.95
-3.22
12.86
26.04
35.63
41.41
43.53
42.4
38.64
33.01
26.33
19.46
13.23
8.35
5.26
4.01
4.24
5.31
6.47
7.16
7.09
6.27
4.79
2.75
0.17
-3.04
-6.94
-11.57
-17.06
-23.6
-31.4
-40.42
-50.1
-59.2
-65.88
-68.22
-64.73
-54.98
-39.78
-21.0
-1.05
17.73
33.59
45.56
53.4
57.39
58.02
55.84
51.4
45.31
38.32
31.26
24.94
20.0
16.7
14.91
14.17
13.87
13.46
12.58
11.06
8.9
6.16
2.84
-1.07
-5.67
-11.1
-17.52
-25.11
-34.06
-44.4
-55.74
-67.1
-76.88
-83.1
-83.9
-78.09
-65.66
-47.81
-26.65
-4.66
15.94
33.56
47.36
57.12
62.94
65.16
64.24
60.8
55.67
49.73
43.9
38.88
35.09
32.64
31.42
31.19
31.59
32.24
32.7
32.51
31.31
28.9
25.25
20.52
15.03
9.09
2.92
-3.44
-10.24
-17.94
-27.02
-37.61
-49.14
-60.19
-68.61
-72.12
-69.03
-58.87
-42.67
-22.61
-1.43
18.44
35.33
48.49
57.83
63.6
66.08
65.6
62.6
57.76
51.97
46.16
41.05
37.04
34.17
32.29
31.15
30.57
30.36
30.27
29.96
28.99
26.95
23.66
19.21
13.91
8.19
2.35
-3.49
-9.46
-15.91
-23.24
-31.73
-41.38
-51.63
-61.33
-68.8
-72.24
-70.18
-62.02
-48.33
-30.67
-11.26
7.69
24.39
37.72
47.23
52.89
54.95
53.81
50.05
44.4
37.71
30.87
24.67
19.69
16.22
14.24
13.53
13.72
14.37
15.03
15.26
14.65
12.91
9.86
5.51
0.08
-6.0
-12.27
-18.32
-24.05
-29.73
-35.91
-43.13
-51.48
-60.31
-68.11
-72.94
-72.92
-66.96
-55.14
-38.66
-19.53
0.03
18.09
33.21
44.59
51.91
55.27
55.06
51.96
46.77
40.44
33.82
27.67
22.55
18.8
16.53
15.61
15.69
16.2
16.44
15.82
13.88
10.55
6.04
0.8
-4.69
-10.1
-15.38
-20.78
-26.77
-33.89
-42.61
-52.97
-64.43
-75.63
-84.6
-89.11
-87.36
-78.56
-63.29
-43.33
-21.11
0.9
20.8
37.41
50.19
58.97
63.77
64.84
62.71
58.31
52.82
47.4
42.9
39.62
37.37
35.7
34.21
32.8
31.63
30.96
30.9
31.19
31.25
30.32
27.79
23.37
17.27
10.06
2.51
-4.67
-11.02
-16.52
-21.56
-26.86
-33.21
-41.15
-50.64
-60.8
-69.99
-76.16
-77.4
-72.62
-61.83
-46.22
-27.77
-8.61
9.48
25.3
38.21
47.91
54.22
57.08
56.71
53.67
48.95
43.7
38.98
35.4
33.04
31.56
30.45
29.38
28.21
27.06
26.1
25.36
24.68
23.7
21.93
18.96
14.63
9.06
2.71
-3.84
-10.06
-15.69
-20.83
-25.92
-31.55
-38.22
-46.11
-54.92
-63.78
-71.32
-75.96
-76.27
-71.39
-61.37
-47.22
-30.62
-13.48
2.49
16.05
26.54
33.7
37.6
38.48
36.8
33.14
28.24
22.83
17.58
13.05
9.66
7.69
7.19
7.98
9.66
11.64
13.31
14.17
13.9
12.39
9.72
6.09
1.81
-2.78
-7.41
-11.97
-16.56
-21.55
-27.37
-34.38
-42.51
-51.09
-58.83
-64.05
-65.15
-61.06
-51.68
-37.92
-21.5
-4.48
11.28
24.44
34.33
40.83
44.13
44.59
42.65
38.86
33.88
28.47
23.38
19.14
16.04
14.05
12.96
12.48
12.39
12.42
12.32
11.74
10.32
7.81
4.18
-0.34
-5.33
-10.4
-15.33
-20.18
-25.24
-30.95
-37.75
-45.9
-55.27
-65.17
-74.28
-80.83
-82.98
-79.41
-69.78
-54.91
-36.59
-17.04
1.63
17.91
30.95
40.44
46.42
49.11
48.87
46.32
42.25
37.57
33.12
29.51
26.97
25.4
24.53
24.08
23.86
23.81
23.88
23.96
23.77
22.87
20.85
17.49
12.87
7.42
1.7
-3.79
-8.87
-13.75
-18.94
-25.02
-32.44
-41.21
-50.81
-60.13
-67.62
-71.51
-70.34
-63.4
-51.0
-34.5
-15.92
2.58
19.29
33.13
43.66
50.8
54.64
55.4
53.5
49.65
44.77
39.78
35.37
31.82
29.07
26.88
25.09
23.63
22.59
21.99
21.77
21.67
21.38
20.51
18.7
15.71
11.5
6.28
0.52
-5.23
-10.56
-15.36
-19.94
-24.87
-30.78
-38.03
-46.53
-55.58
-63.92
-69.99
-72.17
-69.32
-61.07
-48.09
-31.89
-14.47
2.23
16.74
28.22
36.42
41.37
43.27
42.4
39.15
34.13
28.15
22.07
16.65
12.38
9.44
7.72
6.99
6.96
7.38
7.95
8.35
8.26
7.39
5.59
2.87
-0.6
-4.51
-8.61
-12.75
-16.97
-21.53
-26.84
-33.23
-40.68
-48.64
-55.93
-60.94
-62.08
-58.27
-49.33
-36.07
-20.06
-3.19
12.74
26.38
36.93
44.04
47.76
48.37
46.32
42.21
36.69
30.46
24.19
18.46
13.72
10.22
7.96
6.78
6.31
6.12
5.76
4.82
3.08
0.43
-3.05
-7.17
-11.67
-16.34
-21.07
-25.97
-31.34
-37.64
-45.19
-53.94
-63.15
-71.39
-76.78
-77.54
-72.55
-61.77
-46.28
-27.96
-8.96
8.84
24.1
36.07
44.51
49.46
51.14
49.99
46.65
41.88
36.53
31.3
26.74
23.11
20.52
18.94
18.29
18.46
19.2
20.13
20.76
20.56
19.15
16.45
12.63
8.08
3.23
-1.59
-6.26
-10.92
-15.97
-21.89
-29.07
-37.46
-46.41
-54.57
-60.19
-61.57
-57.62
-48.19
-34.19
-17.31
0.46
17.26
31.73
43.03
50.83
55.14
56.2
54.37
50.23
44.44
37.8
31.11
25.03
20.0
16.19
13.58
11.98
11.22
11.1
11.4
11.81
11.94
11.48
10.16
7.93
4.81
0.92
-3.61
-8.7
-14.39
-20.78
-28.06
-36.29
-45.23
-54.1
-61.6
-66.15
-66.31
-61.37
-51.57
-38.11
-22.72
-7.15
7.19
19.38
28.91
35.52
39.13
39.77
37.7
33.38
27.54
21.04
14.8
9.61
5.96
3.97
3.35
3.58
4.01
4.19
3.88
3.11
1.99
0.59
-1.14
-3.35
-6.26
-10.04
-14.85
-20.78
-27.82
-35.8
-44.21
-52.11
-58.19
-60.98
-59.26
-52.51
-41.09
-26.24
-9.74
6.53
20.97
32.53
40.67
45.35
46.85
45.57
42.07
36.93
30.83
24.49
18.63
13.88
10.61
8.78
7.99
7.64
7.11
6.0
4.15
1.67
-1.3
-4.61
-8.25
-12.31
-16.92
-22.25
-28.5
-35.86
-44.36
-53.7
-63.05
-71.05
-75.96
-76.17
-70.69
-59.52
-43.77
-25.32
-6.37
11.19
26.03
37.52
45.52
50.17
51.78
50.73
47.52
42.81
37.34
31.89
27.1
23.42
21.04
19.92
19.77
20.18
20.64
20.68
19.94
18.26
15.73
12.53
8.9
4.95
0.64
-4.27
-10.13
-17.26
-25.83
-35.61
-45.79
-55.05
-61.66
-63.93
-60.65
-51.48
-37.16
-19.3
-0.0
18.58
34.69
47.22
55.67
60.11
60.96
58.87
54.62
49.0
42.84
36.84
31.63
27.55
24.76
23.14
22.41
22.17
22.02
21.59
20.62
18.94
16.5
13.35
9.63
5.49
1.04
-3.68
-8.75
-14.4
-20.96
-28.73
-37.72
-47.46
-56.79
-64.03
-67.38
-65.45
-57.78
-45.07
-28.91
-11.38
5.51
20.25
31.95
40.27
45.21
46.99
45.87
42.23
36.62
29.78
22.66
16.27
11.42
8.54
7.54
7.86
8.7
9.36
9.36
8.54
7.0
4.87
2.3
-0.66
-4.02
-7.83
-12.23
-17.37
-23.46
-30.64
-38.8
-47.41
-55.38
-61.23
-63.36
-60.53
-52.3
-39.23
-22.84
-5.17
11.73
26.31
37.7
45.62
50.15
51.49
49.91
45.79
39.76
32.73
25.79
19.92
15.73
13.3
12.22
11.79
11.32
10.34
8.68
6.43
3.75
0.82
-2.34
-5.84
-9.88
-14.71
-20.55
-27.62
-36.03
-45.62
-55.77
-65.32
-72.62
-75.9
-73.75
-65.58
-51.93
-34.37
-15.1
3.61
19.94
32.81
41.89
47.43
49.91
49.83
47.68
43.89
38.97
33.53
28.29
23.84
20.57
18.57
17.59
17.2
16.93
16.41
15.4
13.83
11.69
8.96
5.61
1.54
-3.29
-8.86
-15.16
-22.24
-30.2
-39.09
-48.61
-57.89
-65.44
-69.4
-68.14
-60.79
-47.69
-30.3
-10.79
8.56
25.93
40.17
50.83
57.9
61.55
62.06
59.82
55.42
49.63
43.31
37.31
32.24
28.44
25.98
24.7
24.3
24.43
24.66
24.55
23.68
21.79
18.77
14.75
9.97
4.71
-0.8
-6.5
-12.46
-18.93
-26.22
-34.54
-43.72
-53.02
-61.12
-66.32
-67.02
-62.25
-51.99
-37.33
-20.11
-2.47
13.73
27.19
37.3
43.95
47.3
47.6
45.16
40.4
34.02
26.95
20.25
14.91
11.52
10.14
10.3
11.23
12.19
12.63
12.33
11.29
9.61
7.34
4.5
1.02
-3.17
-8.13
-13.93
-20.63
-28.26
-36.71
-45.56
-53.99
-60.74
-64.42
-63.77
-58.14
-47.73
-33.59
-17.4
-1.0
13.99
26.49
35.91
42.04
44.9
44.66
41.65
36.46
29.96
23.19
17.16
12.62
9.89
8.81
8.82
9.21
9.32
8.68
7.15
4.83
1.95
-1.31
-4.83
-8.71
-13.15
-18.39
-24.7
-32.25
-40.99
-50.49
-59.77
-67.34
-71.47
-70.61
-63.94
-51.71
-35.26
-16.72
1.65
17.95
31.02
40.43
46.28
48.88
48.62
45.88
41.22
35.33
29.09
23.36
18.81
15.77
14.18
13.71
13.85
14.04
13.76
12.7
10.74
7.98
4.63
0.86
-3.25
-7.78
-12.89
-18.74
-25.51
-33.31
-42.13
-51.61
-60.8
-68.24
-72.11
-70.79
-63.46
-50.46
-33.23
-13.87
5.38
22.66
36.72
46.92
53.17
55.8
55.51
53.16
49.68
45.83
42.12
38.81
36.03
33.79
32.16
31.12
30.62
30.51
30.52
30.33
29.58
27.97
25.27
21.41
16.51
10.83
4.66
-1.75
-8.36
-15.39
-23.16
-31.97
-41.81
-52.08
-61.56
-68.56
-71.34
-68.66
-60.19
-46.71
-29.88
-11.76
5.66
20.92
33.12
41.9
47.21
49.21
48.25
44.89
39.9
34.11
28.3
23.09
18.84
15.78
13.94
13.22
13.34
13.88
14.31
14.13
12.99
10.8
7.64
3.73
-0.71
-5.52
-10.6
-15.93
-21.63
-27.96
-35.16
-43.26
-51.68
-59.18
-64.05
-64.58
-59.72
-49.53
-35.2
-18.64
-1.91
13.35
26.12
35.89
42.52
45.98
46.39
44.03
39.45
33.48
27.06
21.13
16.42
13.28
11.69
11.25
11.36
11.45
11.07
10.03
8.36
6.18
3.6
0.65
-2.72
-6.59
-11.09
-16.42
-22.9
-30.85
-40.33
-50.83
-61.11
-69.27
-73.33
-71.81
-64.29
-51.61
-35.56
-18.35
-1.98
12.21
23.54
31.87
37.29
39.92
39.86
37.35
32.89
27.26
21.46
16.41
12.73
10.54
9.55
9.22
9.02
8.6
7.77
6.45
4.61
2.21
-0.73
-4.12
-7.85
-11.95
-16.61
-22.24
-29.26
-37.84
-47.62
-57.61
-66.22
-71.65
-72.33
-67.35
-56.77
-41.57
-23.45
-4.43
13.61
29.16
41.29
49.63
54.25
55.54
54.08
50.56
45.76
40.44
35.29
30.82
27.33
24.83
23.22
22.31
21.94
21.98
22.2
22.27
21.75
20.2
17.41
13.42
8.55
3.26
-2.11
-7.47
-12.99
-19.14
-26.42
-35.17
-45.16
-55.41
-64.27
-69.69
-69.92
-64.05
-52.38
-36.36
-18.09
0.29
17.1
31.35
42.58
50.69
55.72
57.74
57.0
53.96
49.37
44.12
39.07
34.85
31.7
29.52
27.98
26.83
25.96
25.37
25.06
24.84
24.29
22.88
20.22
16.21
11.13
5.48
-0.3
-5.93
-11.45
-17.14
-23.39
-30.55
-38.74
-47.69
-56.6
-64.18
-68.86
-69.28
-64.65
-55.12
-41.68
-25.92
-9.53
6.02
19.69
30.76
38.79
43.48
44.76
42.84
38.33
32.18
25.5
19.29
14.3
10.87
8.98
8.36
8.62
9.34
10.14
10.62
10.45
9.4
7.43
4.66
1.39
-2.14
-5.78
-9.57
-13.72
-18.5
-24.2
-30.94
-38.58
-46.49
-53.56
-58.31
-59.27
-55.44
-46.69
-33.88
-18.59
-2.65
12.29
25.04
34.89
41.51
44.85
45.15
42.9
38.83
33.73
28.32
23.14
18.53
14.7
11.81
9.93
8.98
8.66
8.51
8.04
6.89
4.95
2.3
-0.88
-4.46
-8.4
-12.81
-17.83
-23.64
-30.44
-38.31
-47.14
-56.44
-65.22
-72.07
-75.5
-74.31
-67.93
-56.65
-41.53
-24.13
-6.22
10.55
24.87
35.93
43.41
47.43
48.38
46.82
43.3
38.44
32.83
27.21
22.23
18.46
16.19
15.36
15.63
16.46
17.28
17.55
16.91
15.13
12.18
8.27
3.73
-1.05
-5.81
-10.53
-15.48
-21.09
-27.8
-35.81
-44.83
-54.02
-62.01
-67.15
-67.88
-63.22
-53.02
-38.16
-20.32
-1.54
16.21
31.44
43.26
51.3
55.61
56.51
54.58
50.62
45.59
40.42
35.86
32.3
29.77
28.06
26.88
25.96
25.15
24.33
23.44
22.38
21.02
19.21
16.78
13.54
9.43
4.53
-0.87
-6.39
-11.77
-17.04
-22.61
-29.09
-36.95
-46.13
-55.79
-64.38
-70.06
-71.21
-66.87
-57.15
-43.05
-26.23
-8.55
8.31
23.13
35.12
43.88
49.24
51.28
50.27
46.84
41.82
36.2
30.81
26.23
22.64
20.0
18.14
16.94
16.38
16.38
16.77
17.18
17.18
16.33
14.41
11.4
7.49
2.95
-1.94
-7.02
-12.24
-17.72
-23.7
-30.49
-38.21
-46.61
-54.88
-61.71
-65.56
-65.13
-59.78
-49.81
-36.34
-21.02
-5.62
8.36
19.86
28.29
33.48
35.5
34.69
31.53
26.69
20.9
14.98
9.65
5.48
2.76
1.42
1.08
1.25
1.45
1.41
1.12
0.66
0.06
-0.77
-2.1
-4.22
-7.29
-11.4
-16.5
-22.62
-29.76
-37.7
-45.88
-53.18
-58.14
-59.35
-55.91
-47.72
-35.58
-20.95
-5.48
9.24
22.02
32.08
39.08
42.98
43.98
42.44
38.86
33.85
28.09
22.3
17.1
12.92
9.93
8.03
6.93
6.22
5.52
4.47
2.85
0.53
-2.46
-6.01
-9.99
-14.29
-19.02
-24.45
-30.97
-38.81
-47.85
-57.44
-66.34
-72.92
-75.58
-73.16
-65.31
-52.62
-36.46
-18.59
-0.8
15.44
29.09
39.6
46.73
50.48
51.1
49.01
44.9
39.59
33.99
28.88
24.81
22.0
20.36
19.57
19.21
18.89
18.31
17.31
15.83
13.89
11.51
8.67
5.29
1.21
-3.76
-9.85
-17.22
-25.82
-35.21
-44.48
-52.24
-56.85
-56.85
-51.43
-40.74
-25.94
-8.88
8.38
24.13
37.26
47.26
54.05
57.72
58.39
56.3
51.89
45.94
39.48
33.53
28.85
25.71
23.93
23.02
22.41
21.7
20.66
19.21
17.32
14.96
12.08
8.65
4.67
0.19
-4.73
-10.14
-16.23
-23.26
-31.41
-40.5
-49.73
-57.71
-62.71
-63.21
-58.41
-48.55
-34.87
-19.11
-3.1
11.71
24.37
34.3
41.16
44.74
45.07
42.43
37.48
31.15
24.46
18.32
13.41
10.06
8.21
7.55
7.53
7.63
7.45
6.8
5.69
4.15
2.18
-0.35
-3.62
-7.81
-13.04
-19.35
-26.7
-34.85
-43.27
-50.99
-56.64
-58.82
-56.43
-49.16
-37.62
-23.13
-7.39
7.99
21.77
33.14
41.6
46.83
48.67
47.2
42.86
36.52
29.32
22.43
16.8
12.87
10.59
9.5
8.99
8.49
7.61
6.17
4.17
1.68
-1.23
-4.56
-8.43
-13.02
-18.62
-25.45
-33.63
-43.0
-52.94
-62.34
-69.63
-73.07
-71.29
-63.71
-50.87
-34.31
-16.11
1.69
17.56
30.61
40.51
47.17
50.61
50.96
48.52
43.9
37.99
31.83
26.37
22.31
19.96
19.16
19.41
20.01
20.31
19.82
18.34
15.95
12.82
9.11
4.92
0.29
-4.78
-10.32
-16.45
-23.43
-31.45
-40.41
-49.64
-57.75
-62.96
-63.55
-58.47
-47.72
-32.36
-14.25
4.51
22.03
36.93
48.4
56.2
60.44
61.54
60.11
56.83
52.4
47.51
42.73
38.46
34.94
32.23
30.24
28.84
27.88
27.17
26.5
25.59
24.09
21.72
18.31
13.94
8.84
3.35
-2.27
-7.94
-13.83
-20.22
-27.5
-35.89
-45.2
-54.71
-63.09
-68.61
-69.6
-65.05
-54.94
-40.39
-23.33
-5.89
10.21
23.89
34.74
42.68
47.72
49.76
48.81
45.15
39.52
32.97
26.63
21.36
17.6
15.36
14.38
14.32
14.82
15.5
15.92
15.62
14.25
11.65
7.97
3.55
-1.2
-5.98
-10.71
-15.49
-20.66
-26.64
-33.72
-41.87
-50.43
-58.1
-63.19
-64.07
-59.77
-50.3
-36.7
-20.64
-3.99
11.63
25.04
35.49
42.57
46.13
46.32
43.54
38.55
32.3
25.83
20.05
15.62
12.81
11.5
11.32
11.79
12.44
12.87
12.73
11.7
9.57
6.24
1.9
-3.04
-8.13
-13.05
-17.84
-22.9
-28.84
-36.23
-45.24
-55.44
-65.74
-74.47
-79.72
-79.88
-74.05
-62.41
-46.23
-27.5
-8.45
9.04
23.71
34.94
42.64
47.03
48.51
47.61
44.96
41.27
37.14
33.05
29.28
26.0
23.33
21.4
20.33
20.09
20.47
21.06
21.31
20.69
18.85
15.65
11.2
5.85
0.07
