0
-23.06
-26.05
-29.55
-33.29
-36.73
-39.16
-39.81
-38.08
-33.77
-27.2
-19.17
-10.76
-2.99
3.43
8.23
11.58
13.85
15.44
16.61
17.43
17.89
17.97
17.79
17.63
17.83
18.61
19.94
21.56
23.04
24.01
24.3
23.98
23.29
22.42
21.45
20.29
18.82
16.99
14.9
12.8
10.99
9.65
8.82
8.32
7.87
7.15
5.95
4.26
2.23
0.15
-1.72
-3.23
-4.42
-5.54
-6.89
-8.7
-11.0
-13.64
-16.35
-18.82
-20.87
-22.49
-23.84
-25.19
-26.88
-29.23
-32.4
-36.29
-40.47
-44.2
-46.51
-46.49
-43.55
-37.72
-29.64
-20.46
-11.48
-3.82
1.93
5.75
8.16
9.82
11.33
12.99
14.75
16.4
17.75
18.77
19.63
20.53
21.66
22.98
24.32
25.44
26.15
26.4
26.26
25.84
25.21
24.34
23.13
21.53
19.55
17.32
15.08
13.1
11.55
10.51
9.92
9.64
9.44
9.1
8.42
7.29
5.73
3.85
1.89
0.01
-1.69
-3.26
-4.83
-6.53
-8.44
-10.54
-12.75
-14.95
-17.03
-18.9
-20.52
-21.95
-23.39
-25.1
-27.39
-30.42
-34.14
-38.18
-41.89
-44.46
-45.1
-43.23
-38.72
-31.92
-23.64
-14.97
-6.98
-0.44
4.37
7.65
9.91
11.69
13.41
15.21
17.01
18.61
19.85
20.7
21.33
21.98
22.87
24.06
25.41
26.61
27.37
27.53
27.1
26.21
25.02
23.62
22.03
20.24
18.29
16.28
14.37
12.67
11.28
10.22
9.43
8.76
8.0
6.96
5.5
3.66
1.64
-0.26
-1.83
-3.02
-4.02
-5.14
-6.67
-8.75
-11.31
-14.1
-16.78
-19.06
-20.81
-22.1
-23.2
-24.49
-26.32
-28.88
-32.12
-35.65
-38.81
-40.73
-40.61
-37.92
-32.64
-25.32
-16.95
-8.66
-1.43
4.2
8.17
10.74
12.33
13.29
13.82
14.04
14.04
13.97
14.04
14.48
15.42
16.81
18.46
20.06
21.29
21.94
21.99
21.51
20.64
19.5
18.12
16.51
14.7
12.77
10.9
9.24
7.91
6.9
6.06
5.2
4.15
2.87
1.41
-0.1
-1.55
-2.95
-4.33
-5.83
-7.49
-9.28
-11.12
-12.91
-14.57
-16.15
-17.72
-19.39
-21.29
-23.51
-26.14
-29.09
-32.04
-34.4
-35.37
-34.23
-30.62
-24.75
-17.38
-9.6
-2.43
3.43
7.78
10.79
12.8
14.08
14.79
14.95
14.63
14.05
13.54
13.44
14.01
15.23
16.85
18.48
19.74
20.42
20.52
20.16
19.48
18.54
17.32
15.82
14.07
12.21
10.43
8.88
7.62
6.58
5.64
4.61
3.41
2.01
0.47
-1.12
-2.69
-4.21
-5.73
-7.32
-9.06
-11.01
-13.17
-15.47
-17.77
-19.95
-21.93
-23.75
-25.63
-27.86
-30.73
-34.28
-38.19
-41.71
-43.82
-43.54
-40.35
-34.38
-26.43
-17.72
-9.49
-2.6
2.59
6.26
8.83
10.77
12.44
13.95
15.34
16.6
17.74
18.86
20.06
21.41
22.85
24.19
25.16
25.56
25.36
24.74
23.98
23.34
22.87
22.43
21.79
20.74
19.23
17.36
15.35
13.44
11.79
10.45
9.42
8.56
7.71
6.73
5.5
4.06
2.52
1.02
-0.37
-1.74
-3.27
-5.14
-7.42
-10.01
-12.7
-15.21
-17.35
-19.08
-20.53
-21.93
-23.6
-25.75
-28.5
-31.78
-35.27
-38.45
-40.61
-40.98
-38.97
-34.4
-27.64
-19.61
-11.52
-4.46
0.92
4.65
7.27
9.47
11.76
14.26
16.74
18.82
20.26
21.05
21.42
21.68
22.09
22.75
23.56
24.33
24.9
25.16
25.13
24.85
24.34
23.54
22.3
20.53
18.29
15.81
13.4
11.39
9.95
9.08
8.61
8.3
7.91
7.23
6.09
4.44
2.37
0.12
-1.98
-3.63
-4.72
-5.35
-5.82
-6.44
-7.49
-9.02
-10.95
-13.03
-14.98
-16.57
-17.69
-18.42
-19.04
-19.95
-21.51
-23.92
-27.05
-30.44
-33.34
-34.91
-34.42
-31.48
-26.19
-19.15
-11.31
-3.69
2.84
7.82
11.22
13.28
14.37
14.82
14.84
14.57
14.17
13.86
13.87
14.36
15.32
16.56
17.82
18.82
19.38
19.52
19.32
18.92
18.38
17.69
16.81
15.69
14.37
12.95
11.58
10.33
9.21
8.18
7.19
6.19
5.18
4.17
3.14
2.08
0.98
-0.17
-1.35
-2.58
-3.92
-5.46
-7.3
-9.44
-11.75
-13.98
-15.92
-17.5
-18.86
-20.36
-22.39
-25.25
-28.91
-32.95
-36.62
-39.0
-39.27
-36.92
-32.0
-25.08
-17.15
-9.33
-2.58
2.56
6.05
8.23
9.62
10.66
11.58
12.42
13.16
13.77
14.37
15.12
16.15
17.49
19.0
20.45
21.61
22.34
22.59
22.46
22.05
21.48
20.73
19.7
18.26
16.37
14.13
11.81
9.76
8.25
7.37
7.0
6.84
6.56
5.91
4.78
3.26
1.51
-0.31
-2.09
-3.8
-5.51
-7.32
-9.3
-11.44
-13.65
-15.76
-17.63
-19.23
-20.62
-22.01
-23.64
-25.73
-28.43
-31.76
-35.54
-39.36
-42.54
-44.3
-43.88
-40.8
-35.11
-27.4
-18.73
-10.3
-3.09
2.43
6.3
9.0
11.14
13.19
15.33
17.46
19.33
20.73
21.64
22.21
22.68
23.26
24.01
24.8
25.47
25.88
25.98
25.85
25.56
25.16
24.55
23.61
22.23
20.43
18.37
16.31
14.54
13.21
12.32
11.71
11.14
10.4
9.43
8.31
7.23
6.32
5.58
4.85
3.92
2.62
0.93
-0.99
-2.95
-4.74
-6.32
-7.78
-9.29
-10.98
-12.86
-14.83
-16.7
-18.32
-19.65
-20.82
-22.05
-23.67
-25.95
-29.09
-33.02
-37.43
-41.67
-44.87
-46.12
-44.74
-40.51
-33.78
-25.46
-16.73
-8.7
-2.14
2.7
6.02
8.29
10.02
11.55
13.04
14.43
15.63
16.63
17.48
18.31
19.27
20.41
21.7
23.03
24.24
25.18
25.8
26.04
25.91
25.39
24.48
23.19
21.57
19.76
17.91
16.2
14.71
13.48
12.45
11.53
10.62
9.64
8.59
7.47
6.35
5.29
4.33
3.46
2.57
1.56
0.3
-1.2
-2.89
-4.63
-6.33
-7.97
-9.6
-11.29
-13.05
-14.82
-16.49
-17.99
-19.35
-20.7
-22.26
-24.25
-26.8
-29.95
-33.53
-37.19
-40.38
-42.44
-42.69
-40.63
-36.14
-29.53
-21.58
-13.28
-5.61
0.74
5.49
8.71
10.74
11.99
12.71
13.07
13.16
13.1
13.1
13.44
14.33
15.78
17.61
19.45
20.97
21.97
22.48
22.63
22.56
22.29
21.69
20.62
18.99
16.93
14.71
12.63
10.93
9.68
8.81
8.13
7.4
6.43
5.09
3.42
1.57
-0.2
-1.71
-2.93
-4.03
-5.3
-6.99
-9.18
-11.7
-14.26
-16.56
-18.45
-20.03
-21.6
-23.51
-26.05
-29.33
-33.18
-37.14
-40.51
-42.47
-42.27
-39.48
-34.15
-26.88
-18.65
-10.56
-3.53
1.97
5.92
8.66
10.64
12.21
13.52
14.58
15.37
15.92
16.4
17.01
17.89
19.08
20.45
21.82
22.99
23.83
24.31
24.44
24.25
23.76
22.98
21.87
20.45
18.78
17.0
15.27
13.74
12.49
11.49
10.61
9.69
8.62
7.34
5.93
4.47
3.05
1.75
0.55
-0.58
-1.75
-3.06
-4.69
-6.74
-9.26
-12.15
-15.14
-17.95
-20.31
-22.13
-23.51
-24.76
-26.26
-28.36
-31.27
-34.99
-39.18
-43.21
-46.14
-46.95
-44.89
-39.74
-31.98
-22.74
-13.41
-5.24
1.06
5.43
8.29
10.25
11.82
13.28
14.66
15.92
17.02
17.98
18.9
19.86
20.93
22.06
23.18
24.21
25.15
26.01
26.86
27.75
28.6
29.27
29.56
29.29
28.41
27.01
25.29
23.46
21.65
19.91
18.18
16.4
14.5
12.42
10.09
7.46
4.52
1.42
-1.64
-4.43
-6.8
-8.8
-10.64
-12.59
-14.77
-17.13
-19.44
-21.48
-23.11
-24.39
-25.53
-26.75
-28.27
-30.24
-32.78
-35.86
-39.32
-42.68
-45.2
-46.0
-44.3
-39.76
-32.62
-23.75
-14.35
-5.68
1.34
6.33
9.43
11.24
12.45
13.59
14.88
16.25
17.46
18.35
19.0
19.67
20.66
22.05
23.66
25.13
26.1
26.42
26.21
25.72
25.18
24.59
23.79
22.54
20.77
18.61
16.4
14.5
13.12
12.19
11.48
10.67
9.51
7.96
6.13
4.27
2.61
1.25
0.14
-0.87
-2.03
-3.52
-5.44
-7.71
-10.1
-12.36
-14.29
-15.88
-17.26
-18.69
-20.46
-22.76
-25.63
-28.95
-32.41
-35.47
-37.46
-37.71
-35.72
-31.35
-24.97
-17.33
-9.43
-2.21
3.68
7.96
10.74
12.34
13.19
13.62
13.79
13.77
13.62
13.51
13.71
14.47
15.9
17.81
19.8
21.37
22.21
22.28
21.81
21.09
20.34
19.56
18.61
17.34
15.74
13.96
12.23
10.76
9.6
8.64
7.64
6.46
5.07
3.62
2.31
1.21
0.25
-0.8
-2.19
-4.02
-6.2
-8.48
-10.64
-12.53
-14.17
-15.66
-17.18
-18.93
-21.1
-23.84
-27.13
-30.69
-33.9
-35.89
-35.79
-33.06
-27.75
-20.52
-12.42
-4.61
2.05
7.18
10.81
13.24
14.8
15.7
16.04
15.93
15.57
15.27
15.38
16.12
17.48
19.23
21.01
22.51
23.5
23.96
23.92
23.47
22.68
21.61
20.27
18.68
16.85
14.81
12.66
10.55
8.64
7.04
5.73
4.62
3.57
2.44
1.19
-0.13
-1.46
-2.76
-4.02
-5.3
-6.75
-8.49
-10.61
-13.09
-15.76
-18.37
-20.67
-22.58
-24.2
-25.78
-27.64
-30.06
-33.13
-36.7
-40.33
-43.29
-44.72
-43.84
-40.23
-34.03
-25.95
-17.12
-8.73
-1.69
3.6
7.23
9.63
11.32
12.74
14.08
15.39
16.61
17.66
18.58
19.46
20.4
21.45
22.55
23.59
24.44
25.06
25.47
25.71
25.74
25.47
24.77
23.53
21.78
19.67
17.46
15.41
13.7
12.38
11.41
10.66
10.01
9.34
8.57
7.59
6.36
4.9
3.27
1.6
-0.01
-1.52
-2.97
-4.46
-6.08
-7.89
-9.83
-11.78
-13.61
-15.26
-16.73
-18.13
-19.6
-21.32
-23.44
-26.04
-29.13
-32.56
-35.94
-38.62
-39.79
-38.7
-34.95
-28.75
-20.85
-12.45
-4.76
1.34
5.5
7.97
9.38
10.41
11.54
12.94
14.47
15.86
16.92
17.66
18.27
19.04
20.12
21.46
22.79
23.79
24.26
24.23
23.88
23.41
22.91
22.28
21.34
19.97
18.19
16.2
14.28
12.65
11.37
10.4
9.6
8.88
8.19
7.52
6.85
6.14
5.3
4.26
2.98
1.47
-0.18
-1.91
-3.64
-5.33
-7.01
-8.69
-10.41
-12.17
-13.94
-15.64
-17.23
-18.7
-20.13
-21.7
-23.66
-26.18
-29.25
-32.52
-35.28
-36.7
-36.06
-33.03
-27.83
-21.12
-13.79
-6.72
-0.54
4.41
8.03
10.43
11.8
12.39
12.45
12.19
11.84
11.6
11.68
12.25
13.37
14.99
16.88
18.75
20.34
21.45
21.99
21.95
21.33
20.14
18.45
16.39
14.14
11.9
9.9
8.27
7.12
6.42
6.02
5.67
5.06
3.99
2.44
0.6
-1.17
-2.62
-3.63
-4.33
-5.04
-6.05
-7.58
-9.62
-12.01
-14.47
-16.74
-18.64
-20.18
-21.51
-22.96
-24.82
-27.31
-30.39
-33.74
-36.72
-38.59
-38.59
-36.24
-31.48
-24.72
-16.84
-8.9
-1.93
3.42
7.01
9.18
10.55
11.71
12.95
14.27
15.43
16.23
16.66
16.93
17.38
18.24
19.49
20.89
22.11
22.9
23.2
23.1
22.75
22.26
21.59
20.64
19.38
17.83
16.14
14.46
12.91
11.55
10.37
9.35
8.47
7.7
6.96
6.17
5.22
4.05
2.65
1.07
-0.61
-2.27
-3.83
-5.23
-6.47
-7.64
-8.89
-10.4
-12.21
-14.27
-16.39
-18.36
-20.1
-21.66
-23.22
-25.03
-27.26
-29.98
-33.09
-36.29
-39.02
-40.56
-40.16
-37.32
-32.03
-24.86
-16.82
-9.05
-2.46
2.53
5.97
8.25
9.86
11.16
12.34
13.46
14.51
15.49
16.44
17.42
18.5
19.65
20.79
21.76
22.44
22.77
22.8
22.62
22.29
21.79
21.04
19.97
18.57
16.98
15.41
14.05
12.98
12.13
11.38
10.56
9.61
8.56
7.52
6.62
5.93
5.44
5.04
4.56
3.84
2.78
1.36
-0.31
-2.07
-3.72
-5.16
-6.42
-7.68
-9.18
-11.08
-13.36
-15.82
-18.15
-20.12
-21.65
-22.86
-24.04
-25.49
-27.44
-30.02
-33.16
-36.58
-39.72
-41.79
-41.96
-39.61
-34.65
-27.61
-19.51
-11.57
-4.78
0.33
3.73
5.83
7.15
8.17
9.16
10.2
11.21
12.12
12.94
13.77
14.78
16.05
17.52
18.98
20.17
20.93
21.26
21.3
21.2
21.04
20.73
20.06
18.87
17.13
14.99
12.77
10.78
9.27
8.29
7.78
7.55
7.39
7.16
6.72
6.07
5.19
4.11
2.87
1.5
0.1
-1.26
-2.5
-3.66
-4.84
-6.2
-7.84
-9.76
-11.8
-13.72
-15.32
-16.54
-17.51
-18.45
-19.67
-21.36
-23.63
-26.42
-29.47
-32.27
-34.13
-34.32
-32.3
-27.95
-21.66
-14.27
-6.81
-0.24
4.85
8.28
10.25
11.13
11.32
11.14
10.8
10.42
10.11
10.01
10.28
11.07
12.42
14.23
16.25
18.15
19.61
20.46
20.61
20.13
19.15
17.83
16.29
14.67
13.1
11.66
10.42
9.4
8.58
7.89
7.27
6.65
5.96
5.18
4.25
3.16
1.92
0.57
-0.79
-2.07
-3.23
-4.32
-5.42
-6.66
-8.13
-9.89
-11.9
-14.12
-16.4
-18.58
-20.53
-22.14
-23.5
-24.83
-26.52
-28.88
-32.03
-35.7
-39.3
-42.02
-43.01
-41.69
-37.9
-31.93
-24.51
-16.59
-9.17
-3.03
1.49
4.46
6.29
7.5
8.57
9.72
11.02
12.39
13.72
14.97
16.14
17.28
18.44
19.61
20.78
21.89
22.9
23.74
24.32
24.59
24.46
23.9
22.87
21.44
19.76
18.04
16.53
15.36
14.54
13.95
13.4
12.72
11.88
10.92
9.95
9.08
8.29
7.49
6.55
5.35
3.84
2.07
0.17
-1.73
-3.5
-5.07
-6.43
-7.69
-8.98
-10.44
-12.16
-14.15
-16.3
-18.45
-20.44
-22.18
-23.72
-25.28
-27.17
-29.69
-32.93
-36.69
-40.38
-43.16
-44.09
-42.49
-38.16
-31.47
-23.33
-14.92
-7.3
-1.2
3.16
5.99
7.72
8.81
9.66
10.51
11.51
12.75
14.26
15.96
17.76
19.51
21.06
22.35
23.33
24.02
24.44
24.63
24.65
24.53
24.27
23.8
23.04
21.93
20.51
18.96
17.51
16.32
15.45
14.77
14.14
13.45
12.67
11.86
11.09
10.4
9.79
9.19
8.51
7.64
6.51
5.05
3.24
1.22
-0.83
-2.66
-4.12
-5.22
-6.11
-7.06
-8.33
-10.07
-12.23
-14.63
-17.0
-19.07
-20.71
-21.93
-22.96
-24.12
-25.81
-28.31
-31.68
-35.62
-39.47
-42.31
-43.22
-41.51
-37.05
-30.26
-22.05
-13.53
-5.74
0.59
5.2
8.21
10.02
11.11
11.85
12.43
12.9
13.29
13.67
14.25
15.25
16.76
18.7
20.79
22.65
24.04
24.87
25.24
25.3
25.13
24.66
23.79
22.46
20.75
18.87
17.07
15.57
14.45
13.64
12.99
12.35
11.62
10.77
9.86
8.97
8.18
7.5
6.88
6.21
5.37
4.27
2.88
1.28
-0.42
-2.1
-3.72
-5.28
-6.84
-8.44
-10.12
-11.84
-13.57
-15.24
-16.87
-18.47
-20.16
-22.08
-24.41
-27.25
-30.52
-33.85
-36.6
-37.99
-37.33
-34.28
-29.01
-22.17
-14.68
-7.49
-1.35
3.33
6.5
8.37
9.27
9.56
9.44
9.06
8.52
7.98
7.7
7.99
9.05
10.89
13.26
15.7
17.77
19.17
19.8
19.8
19.32
18.55
17.53
16.26
14.71
12.92
11.04
9.3
7.94
7.08
6.7
6.57
6.38
5.91
5.06
3.94
2.72
1.57
0.55
-0.39
-1.32
-2.37
-3.6
-5.13
-7.01
-9.21
-11.62
-14.02
-16.17
-17.97
-19.48
-20.96
-22.76
-25.17
-28.27
-31.89
-35.51
-38.39
-39.69
-38.73
-35.19
-29.31
-21.82
-13.74
-6.12
0.28
5.07
8.28
10.17
11.17
11.69
12.08
12.56
13.25
14.16
15.24
16.45
17.76
19.17
20.63
22.02
23.21
24.05
24.49
24.51
24.16
23.45
22.39
20.96
19.22
17.32
15.48
13.92
12.76
11.98
11.47
11.04
10.53
9.83
8.9
7.72
6.27
4.57
2.7
0.77
-1.05
-2.69
-4.16
-5.59
-7.08
-8.72
-10.51
-12.38
-14.22
-15.99
-17.64
-19.22
-20.79
-22.48
-24.49
-27.0
-30.13
-33.75
-37.44
-40.42
-41.85
-40.97
-37.46
-31.52
-23.89
-15.65
-7.88
-1.45
3.21
6.15
7.82
8.82
9.75
10.96
12.5
14.16
15.66
16.8
17.6
18.28
19.1
20.22
21.6
23.01
24.18
24.92
25.22
25.13
24.74
24.09
23.13
21.81
20.17
18.34
16.54
14.96
13.72
12.8
12.08
11.44
10.77
10.01
9.13
8.09
6.86
5.45
3.91
2.36
0.89
-0.41
-1.61
-2.83
-4.23
-5.92
-7.93
-10.17
-12.47
-14.66
-16.58
-18.2
-19.63
-21.12
-22.98
-25.49
-28.71
-32.38
-35.93
-38.56
-39.48
-38.13
-34.42
-28.67
-21.63
-14.18
-7.19
-1.31
3.16
6.25
8.25
9.57
10.54
11.37
12.08
12.65
13.09
13.55
14.27
15.44
17.05
18.9
20.66
22.02
22.86
23.23
23.32
23.23
22.95
22.34
21.25
19.65
17.68
15.6
13.73
12.28
11.3
10.69
10.26
9.81
9.22
8.43
7.49
6.45
5.35
4.19
2.95
1.64
0.24
-1.23
-2.75
-4.36
-6.1
-8.02
-10.1
-12.21
-14.19
-15.88
-17.24
-18.38
-19.59
-21.18
-23.38
-26.2
-29.38
-32.39
-34.55
-35.15
-33.66
-29.92
-24.2
-17.23
-9.96
-3.34
1.98
5.74
8.1
9.47
10.24
10.65
10.78
10.63
10.3
10.03
10.15
10.9
12.32
14.2
16.16
17.84
19.04
19.73
20.02
19.99
19.66
18.94
17.76
16.14
14.22
12.26
10.5
9.1
8.09
7.33
6.63
5.81
4.75
3.5
2.18
0.94
-0.11
-1.04
-2.0
-3.16
-4.64
-6.43
-8.41
-10.4
-12.27
-13.97
-15.55
-17.07
-18.65
-20.42
-22.58
-25.29
-28.61
-32.25
-35.6
-37.75
-37.85
-35.4
-30.5
-23.82
-16.42
-9.35
-3.39
1.18
4.46
6.8
8.58
10.08
11.47
12.78
13.98
15.05
15.98
16.81
17.59
18.38
19.22
20.1
20.98
21.78
22.39
22.74
22.77
22.47
21.86
20.94
19.77
18.36
16.78
15.11
13.47
11.97
10.66
9.54
8.5
7.4
6.13
4.65
3.05
1.52
0.25
-0.68
-1.32
-1.91
-2.74
-4.05
-5.91
-8.24
-10.77
-13.23
-15.37
-17.12
-18.54
-19.82
-21.23
-22.96
-25.17
-27.87
-30.97
-34.21
-37.15
-39.17
-39.58
-37.82
-33.67
-27.45
-19.96
-12.3
-5.5
-0.21
3.4
5.65
7.1
8.32
9.66
11.26
13.02
14.75
16.31
17.65
18.84
19.98
21.08
22.1
22.89
23.37
23.54
23.54
23.5
23.48
23.34
22.89
21.91
20.37
18.43
16.43
14.7
13.46
12.68
12.19
11.74
11.14
10.33
9.4
8.51
7.77
7.16
6.53
5.65
4.38
2.69
0.76
-1.18
-2.9
-4.35
-5.65
-7.05
-8.7
-10.66
-12.74
-14.7
-16.32
-17.56
-18.53
-19.5
-20.72
-22.39
-24.64
-27.48
-30.78
-34.17
-37.08
-38.76
-38.48
-35.8
-30.73
-23.85
-16.1
-8.57
-2.2
2.51
5.51
7.13
7.95
8.57
9.41
10.65
12.22
13.93
15.53
16.91
18.03
19.01
19.93
20.87
21.81
22.65
23.28
23.59
23.5
22.98
22.04
20.76
19.26
17.69
16.2
14.9
13.85
13.01
12.31
11.67
11.0
10.26
9.46
8.62
7.76
6.91
6.06
5.13
4.07
2.84
1.45
-0.02
-1.47
-2.83
-4.09
-5.31
-6.59
-8.02
-9.58
-11.23
-12.83
-14.28
-15.54
-16.63
-17.7
-18.94
-20.59
-22.77
-25.5
-28.57
-31.56
-33.82
-34.69
-33.62
-30.43
-25.37
-19.08
-12.45
-6.32
-1.25
2.56
5.21
7.0
8.18
8.91
9.27
9.3
9.11
8.92
8.97
9.47
10.51
12.01
13.75
15.46
16.92
18.0
18.68
18.98
18.94
18.56
17.81
16.67
15.19
13.48
11.74
10.2
9.01
8.24
7.78
7.43
6.99
6.27
5.24
3.95
2.57
1.21
-0.04
-1.2
-2.35
-3.57
-4.96
-6.56
-8.37
-10.34
-12.39
-14.44
-16.35
-18.05
-19.51
-20.83
-22.17
-23.8
-25.96
-28.76
-32.05
-35.35
-37.94
-39.01
-37.94
-34.53
-29.07
-22.25
-14.98
-8.13
-2.33
2.14
5.25
7.23
8.44
9.24
9.95
10.79
11.85
13.13
14.56
16.07
17.56
18.95
20.17
21.2
22.05
22.76
23.37
23.86
24.16
24.12
23.63
22.65
21.24
19.58
17.9
16.41
15.23
14.36
13.7
13.06
12.33
11.46
10.54
9.68
9.0
8.43
7.84
7.02
5.85
4.36
2.7
1.07
-0.38
-1.62
-2.76
-3.97
-5.44
-7.29
-9.5
-11.95
-14.39
-16.59
-18.39
-19.8
-21.01
-22.38
-24.29
-27.01
-30.53
-34.45
-38.01
-40.27
-40.39
-37.94
-33.09
-26.51
-19.21
-12.16
-6.1
-1.37
2.01
4.26
5.68
6.63
7.41
8.29
9.44
10.92
12.7
14.65
16.58
18.29
19.61
20.48
20.95
21.19
21.41
21.73
22.13
22.47
22.53
22.15
21.29
20.03
18.49
16.86
15.35
14.15
13.37
13.01
12.95
12.95
12.75
12.2
11.32
10.25
9.16
8.18
7.27
6.32
5.17
3.74
2.07
0.3
-1.4
-2.94
-4.33
-5.75
-7.41
-9.46
-11.91
-14.55
-17.05
-19.11
-20.59
-21.56
-22.33
-23.29
-24.83
-27.22
-30.53
-34.47
-38.45
-41.6
-43.0
-41.98
-38.35
-32.49
-25.27
-17.75
-10.88
-5.28
-1.17
1.62
3.49
4.87
6.12
7.42
8.8
10.18
11.49
12.72
13.9
15.09
16.3
17.48
18.57
19.48
20.2
20.7
21.0
21.08
20.94
20.56
19.93
19.04
17.93
16.67
15.41
14.32
13.54
13.08
12.81
12.54
12.09
11.38
10.5
9.58
8.78
8.16
7.68
7.21
6.6
5.74
4.58
3.15
1.57
-0.03
-1.54
-2.95
-4.34
-5.84
-7.59
-9.65
-11.97
-14.4
-16.76
-18.84
-20.55
-21.92
-23.12
-24.49
-26.35
-28.95
-32.33
-36.25
-40.16
-43.35
-45.03
-44.59
-41.76
-36.68
-29.95
-22.48
-15.22
-8.99
-4.24
-1.01
1.0
2.24
3.11
3.91
4.76
5.69
6.72
7.9
9.31
10.97
12.8
14.63
16.25
17.53
18.46
19.12
19.59
19.87
19.84
19.38
18.43
17.09
15.59
14.19
13.08
12.28
11.72
11.24
10.71
10.07
9.3
8.46
7.58
6.71
5.86
5.0
4.09
3.09
1.95
0.7
-0.63
-1.99
-3.36
-4.79
-6.33
-8.03
-9.91
-11.87
-13.78
-15.48
-16.88
-18.03
-19.11
-20.42
-22.25
-24.8
-28.04
-31.62
-34.99
-37.39
-38.14
-36.79
-33.22
-27.79
-21.16
-14.2
-7.74
-2.35
1.7
4.5
6.26
7.24
7.64
7.57
7.16
6.62
6.26
6.45
7.44
9.27
11.7
14.31
16.62
18.28
19.15
19.31
18.96
18.34
17.62
16.86
16.02
15.07
13.98
12.82
11.69
10.72
9.97
9.43
9.01
8.58
8.02
7.24
6.24
5.06
3.81
2.54
1.31
0.09
-1.14
-2.46
-3.88
-5.44
-7.13
-8.96
-10.94
-13.02
-15.13
-17.18
-19.11
-20.95
-22.86
-25.09
-27.89
-31.3
-35.05
-38.52
-40.89
-41.35
-39.39
-35.01
-28.73
-21.43
-14.06
-7.4
-1.91
2.31
5.4
7.6
9.19
10.38
11.35
12.23
13.11
14.05
15.1
16.28
17.58
18.98
20.42
21.83
23.13
24.28
25.21
25.86
26.15
26.01
25.44
24.46
23.17
21.73
20.29
18.99
17.94
17.13
16.49
15.91
15.29
14.54
13.67
12.68
11.6
10.43
9.15
7.72
6.16
4.49
2.73
0.9
-1.01
-2.99
-5.05
-7.15
-9.24
-11.26
-13.17
-14.93
-16.55
-18.08
-19.62
-21.38
-23.54
-26.26
-29.54
-33.17
-36.67
-39.34
-40.44
-39.36
-35.87
-30.24
-23.19
-15.74
-8.89
-3.33
0.65
3.23
4.82
5.92
6.87
7.87
8.95
10.07
11.19
12.36
13.63
15.08
16.68
18.37
20.0
21.44
22.58
23.39
23.86
24.03
23.89
23.44
22.66
21.57
20.24
18.84
17.55
16.54
15.9
15.6
15.49
15.33
14.9
14.1
12.97
11.7
10.49
9.46
8.61
7.81
6.89
5.75
4.36
2.81
1.24
-0.3
-1.81
-3.34
-4.99
-6.76
-8.63
-10.48
-12.19
-13.69
-15.02
-16.32
-17.83
-19.78
-22.37
-25.61
-29.33
-33.06
-36.11
-37.73
-37.27
-34.46
-29.47
-22.96
-15.81
-8.95
-3.11
1.36
4.43
6.4
7.68
8.69
9.7
10.8
11.92
12.92
13.76
14.51
15.36
16.47
17.85
19.36
20.75
21.77
22.3
22.34
22.01
21.44
20.7
19.8
18.75
17.56
16.26
14.96
13.72
12.62
11.67
10.83
10.04
9.26
8.48
7.74
7.08
6.53
6.01
5.4
4.54
3.37
1.93
0.33
-1.24
-2.69
-3.98
-5.22
-6.53
-7.99
-9.59
-11.23
-12.75
-14.06
-15.18
-16.26
-17.55
-19.32
-21.74
-24.82
-28.29
-31.63
-34.15
-35.09
-33.89
-30.36
-24.81
-18.01
-10.96
-4.64
0.32
3.76
5.87
7.06
7.71
8.01
8.08
7.94
7.72
7.66
7.99
8.88
10.33
12.12
13.98
15.64
16.92
17.78
18.26
18.42
18.24
17.72
16.82
15.58
14.06
12.42
10.83
9.44
8.35
7.56
6.97
6.45
5.87
5.16
4.34
3.46
2.55
1.54
0.32
-1.22
-3.13
-5.33
-7.64
-9.87
-11.87
-13.57
-15.03
-16.41
-17.98
-20.04
-22.77
-26.15
-29.79
-32.99
-34.87
-34.67
-32.02
-27.1
-20.62
-13.59
-7.01
-1.63
2.28
4.8
6.33
7.34
8.21
9.15
10.16
11.16
12.05
12.83
13.59
14.48
15.57
16.84
18.16
19.35
20.29
20.9
21.2
21.22
20.95
20.37
19.46
18.25
16.8
15.23
13.65
12.16
10.85
9.81
9.07
8.59
8.19
7.64
6.72
5.34
3.6
1.73
0.04
-1.32
-2.33
-3.18
-4.14
-5.44
-7.18
-9.25
-11.45
-13.53
-15.33
-16.79
-18.05
-19.33
-20.9
-22.99
-25.71
-28.97
-32.47
-35.64
-37.76
-38.1
-36.17
-31.93
-25.85
-18.79
-11.76
-5.59
-0.76
2.67
4.96
6.51
7.69
8.79
9.99
11.33
12.79
14.29
15.72
17.02
18.19
19.28
20.31
21.26
22.04
22.53
22.69
22.59
22.34
22.05
21.74
21.32
20.65
19.65
18.35
16.91
15.5
14.26
13.2
12.25
11.31
10.34
9.38
8.52
7.85
7.34
6.85
6.21
5.22
3.8
2.02
0.04
-1.92
-3.7
-5.21
-6.51
-7.76
-9.12
-10.68
-12.41
-14.16
-15.74
-17.05
-18.14
-19.25
-20.72
-22.85
-25.76
-29.26
-32.9
-36.01
-37.88
-37.94
-35.92
-31.88
-26.28
-19.79
-13.21
-7.24
-2.36
1.28
3.79
5.49
6.79
8.04
9.42
10.97
12.58
14.12
15.47
16.64
17.68
18.64
19.55
20.37
21.06
21.58
21.92
22.08
22.03
21.72
21.1
20.16
18.94
17.57
16.24
15.15
14.4
13.95
13.64
13.23
12.58
11.66
10.64
9.74
9.16
8.89
8.81
8.64
8.16
7.26
5.96
4.45
2.94
1.59
0.45
-0.55
-1.58
-2.84
-4.4
-6.26
-8.28
-10.31
-12.21
-13.93
-15.48
-16.96
-18.53
-20.36
-22.58
-25.22
-28.12
-30.86
-32.87
-33.48
-32.25
-29.04
-24.17
-18.29
-12.23
-6.71
-2.25
1.02
3.24
4.73
5.81
6.73
7.57
8.3
8.9
9.38
9.88
10.59
11.63
13.0
14.52
15.91
16.88
17.31
17.25
16.87
16.33
15.7
14.93
13.96
12.78
11.54
10.41
9.59
9.13
8.95
8.89
8.77
8.47
7.89
7.03
5.95
4.74
3.5
2.34
1.29
0.32
-0.69
-1.83
-3.17
-4.66
-6.16
-7.53
-8.67
-9.56
-10.32
-11.11
-12.1
-13.41
-15.06
-17.06
-19.39
-21.99
-24.67
-27.04
-28.51
-28.49
-26.56
-22.73
-17.49
-11.63
-6.02
-1.28
2.31
4.82
6.51
7.66
8.5
9.13
9.6
9.93
10.21
10.52
10.96
11.59
12.37
13.24
14.11
14.93
15.68
16.37
16.95
17.34
17.41
17.04
16.2
14.93
13.37
11.73
10.17
8.82
7.76
6.95
6.34
5.82
5.3
4.74
4.11
3.41
2.62
1.69
0.57
-0.75
-2.23
-3.76
-5.2
-6.44
-7.44
-8.29
-9.2
-10.37
-11.91
-13.76
-15.68
-17.4
-18.8
-19.98
-21.25
-22.98
-25.45
-28.6
-32.1
-35.35
-37.65
-38.35
-37.05
-33.66
-28.49
-22.21
-15.64
-9.58
-4.59
-0.9
1.6
3.2
4.31
5.32
6.47
7.83
9.35
10.84
12.15
13.18
13.99
14.7
15.42
16.2
16.96
17.61
18.07
18.31
18.35
18.14
17.61
16.68
15.34
13.69
11.96
10.38
9.15
8.32
7.83
7.59
7.43
7.24
6.94
6.48
5.91
5.29
4.7
4.16
3.59
2.87
1.86
0.54
-1.01
-2.6
-4.05
-5.27
-6.34
-7.43
-8.72
-10.32
-12.17
-14.12
-16.01
-17.69
-19.15
-20.43
-21.67
-23.08
-24.92
-27.4
-30.55
-34.1
-37.44
-39.65
-39.87
-37.57
-32.83
-26.32
-19.11
-12.31
-6.73
-2.73
-0.23
1.19
2.1
3.0
4.24
5.94
8.02
10.22
12.29
14.09
15.56
16.75
17.72
18.49
19.05
19.44
19.76
20.11
20.58
21.07
21.41
21.37
20.79
19.72
18.38
17.05
15.95
15.19
14.7
14.32
13.92
13.43
12.84
12.18
11.5
10.82
10.13
9.39
8.53
7.47
6.16
4.57
2.78
0.93
-0.85
-2.47
-3.95
-5.39
-6.92
-8.63
-10.45
-12.26
-13.91
-15.33
-16.57
-17.77
-19.1
-20.73
-22.8
-25.38
-28.46
-31.9
-35.32
-38.11
-39.5
-38.81
-35.71
-30.39
-23.56
-16.24
-9.43
-3.82
0.33
3.14
4.96
6.2
7.17
8.1
9.08
10.2
11.49
13.0
14.73
16.69
18.79
20.9
22.85
24.46
25.62
26.3
26.59
26.62
26.5
26.29
25.99
25.5
24.77
23.77
22.58
21.32
20.15
19.18
18.45
17.89
17.38
16.78
16.03
15.09
13.94
12.58
11.04
9.35
7.58
5.81
4.04
2.21
0.2
-2.11
-4.76
-7.66
-10.63
-13.48
-16.03
-18.24
-20.15
-21.93
-23.76
-25.88
-28.43
-31.35
-34.34
-36.84
-38.15
-37.64
-35.0
-30.29
-24.04
-17.09
-10.38
-4.68
-0.44
2.28
3.78
4.47
4.75
4.88
5.0
5.19
5.55
6.24
7.37
8.98
10.93
12.97
14.81
16.2
17.02
17.25
17.0
16.4
15.6
14.66
13.58
12.33
10.89
9.34
7.85
6.64
5.87
5.49
5.29
4.94
4.22
3.07
1.6
0.07
-1.35
-2.62
-3.84
-5.21
-6.91
-8.97
-11.31
-13.76
-16.15
-18.37
-20.36
-22.18
-23.92
-25.7
-27.69
-30.07
-33.03
-36.65
-40.8
-45.02
-48.5
-50.24
-49.41
-45.66
-39.31
-31.29
-22.82
-15.03
-8.6
-3.72
-0.13
2.57
4.74
6.6
8.2
9.59
10.82
12.0
13.25
14.69
16.33
18.09
19.8
21.27
22.36
23.03
23.35
23.44
23.41
23.24
22.84
22.07
20.83
19.19
17.3
15.45
13.86
12.66
11.84
11.26
10.78
10.27
9.69
8.97
8.08
6.94
5.5
3.77
1.86
-0.06
-1.84
-3.42
-4.91
-6.51
-8.4
-10.7
-13.35
-16.13
-18.82
-21.24
-23.3
-25.12
-26.91
-28.98
-31.67
-35.12
-39.22
-43.45
-46.97
-48.8
-48.13
-44.64
-38.62
-30.91
-22.64
-14.92
-8.5
-3.63
-0.13
2.47
4.69
6.88
9.14
11.4
13.51
15.4
17.09
18.65
20.18
21.67
23.07
24.37
25.58
26.73
27.84
28.81
29.45
29.54
28.94
27.67
25.9
23.92
22.01
20.39
19.16
18.32
17.78
17.35
16.82
16.05
14.98
13.71
12.4
11.19
10.06
8.87
7.4
5.49
3.16
0.62
-1.84
-4.02
-5.88
-7.54
-9.22
-11.06
-13.06
-15.11
-17.03
-18.68
-20.1
-21.45
-23.04
-25.2
-28.18
-32.02
-36.46
-40.95
-44.67
-46.73
-46.44
-43.48
-38.02
-30.73
-22.57
-14.58
-7.6
-2.1
1.88
4.62
6.59
8.24
9.87
11.55
13.23
14.83
16.28
17.64
19.02
20.52
22.17
23.88
25.48
26.79
27.68
28.09
28.08
27.72
27.11
26.26
25.17
23.85
22.37
20.86
19.48
18.39
17.59
17.02
16.52
15.98
15.37
14.7
13.97
13.11
11.99
10.53
8.72
6.7
4.67
2.79
1.1
-0.47
-2.09
-3.85
-5.81
-7.9
