0
-8.02
-4.5
-1.22
1.58
3.71
5.07
5.65
5.56
4.97
4.13
3.3
2.7
2.49
2.73
3.38
4.28
5.24
6.12
6.82
7.33
7.68
7.85
7.82
7.55
7.03
6.29
5.4
4.42
3.4
2.36
1.37
0.51
-0.16
-0.63
-0.99
-1.36
-1.85
-2.48
-3.16
-3.74
-4.17
-4.46
-4.74
-5.1
-5.52
-5.95
-6.31
-6.69
-7.28
-8.28
-9.73
-11.43
-12.91
-13.64
-13.18
-11.33
-8.22
-4.22
0.17
4.39
7.96
10.6
12.28
13.17
13.58
13.71
13.65
13.34
12.75
11.94
11.1
10.5
10.33
10.62
11.25
11.96
12.55
12.86
12.87
12.58
12.04
11.33
10.49
9.59
8.68
7.75
6.77
5.69
4.45
3.01
1.37
-0.43
-2.27
-4.03
-5.57
-6.87
-8.0
-9.11
-10.42
-12.01
-13.81
-15.59
-17.0
-17.73
-17.51
-16.28
-14.09
-11.16
-7.79
-4.35
-1.22
1.28
3.01
3.97
4.28
4.11
3.62
2.9
2.04
1.2
0.55
0.31
0.64
1.55
2.89
4.41
5.81
6.92
7.64
8.01
8.12
8.09
7.96
7.74
7.35
6.7
5.68
4.29
2.67
1.05
-0.31
-1.3
-2.02
-2.73
-3.68
-5.03
-6.66
-8.35
-9.82
-10.95
-11.83
-12.65
-13.6
-14.8
-16.22
-17.73
-19.16
-20.23
-20.67
-20.2
-18.62
-15.96
-12.42
-8.41
-4.38
-0.75
2.24
4.49
6.02
6.93
7.31
7.3
7.07
6.81
6.68
6.81
7.22
7.83
8.54
9.17
9.63
9.83
9.75
9.38
8.72
7.78
6.64
5.44
4.34
3.5
2.97
2.67
2.45
2.15
1.64
0.91
0.05
-0.83
-1.62
-2.28
-2.87
-3.55
-4.43
-5.6
-7.03
-8.58
-10.11
-11.49
-12.67
-13.7
-14.68
-15.7
-16.84
-18.11
-19.44
-20.68
-21.55
-21.73
-20.9
-18.9
-15.79
-11.92
-7.73
-3.68
-0.06
3.03
5.6
7.68
9.23
10.15
10.34
9.88
9.0
8.11
7.59
7.76
8.68
10.24
12.13
13.99
15.51
16.49
16.91
16.89
16.64
16.33
16.03
15.69
15.21
14.46
13.37
12.02
10.57
9.22
8.12
7.32
6.72
6.15
5.42
4.44
3.23
1.89
0.57
-0.64
-1.78
-2.88
-4.02
-5.24
-6.56
-7.92
-9.22
-10.25
-10.74
-10.43
-9.12
-6.78
-3.61
0.03
3.7
6.98
9.61
11.42
12.41
12.64
12.24
11.31
9.99
8.41
6.77
5.35
4.4
4.13
4.54
5.45
6.54
7.52
8.21
8.57
8.7
8.66
8.5
8.17
7.66
6.95
6.1
5.2
4.36
3.67
3.16
2.81
2.49
2.02
1.21
-0.04
-1.68
-3.54
-5.4
-7.1
-8.62
-10.07
-11.6
-13.33
-15.31
-17.45
-19.61
-21.53
-22.88
-23.31
-22.52
-20.39
-17.06
-12.91
-8.44
-4.17
-0.49
2.35
4.27
5.29
5.55
5.27
4.7
4.13
3.75
3.66
3.87
4.3
4.86
5.48
6.06
6.54
6.86
7.01
7.0
6.84
6.55
6.07
5.4
4.57
3.66
2.77
1.98
1.26
0.55
-0.22
-1.08
-2.04
-3.08
-4.22
-5.49
-6.9
-8.41
-9.89
-11.32
-12.72
-14.25
-16.03
-18.04
-20.02
-21.51
-22.04
-21.24
-19.09
-15.8
-11.84
-7.66
-3.68
-0.18
2.64
4.67
5.88
6.28
5.98
5.17
4.12
3.15
2.55
2.55
3.16
4.25
5.54
6.74
7.65
8.23
8.5
8.5
8.28
7.82
7.15
6.37
5.58
4.91
4.37
3.88
3.34
2.7
2.0
1.37
0.91
0.63
0.48
0.32
0.07
-0.32
-0.79
-1.32
-1.89
-2.62
-3.64
-5.07
-6.96
-9.18
-11.49
-13.59
-15.16
-15.94
-15.72
-14.42
-12.04
-8.8
-5.02
-1.1
2.55
5.67
8.15
10.03
11.38
12.29
12.77
12.86
12.56
11.97
11.19
10.44
9.88
9.69
9.93
10.53
11.31
12.04
12.52
12.63
12.4
11.93
11.33
10.68
9.98
9.27
8.57
7.9
7.29
6.68
5.94
4.97
3.72
2.25
0.73
-0.72
-2.05
-3.32
-4.64
-6.09
-7.69
-9.36
-10.97
-12.37
-13.38
-13.84
-13.58
-12.47
-10.53
-7.91
-4.92
-1.9
0.83
3.04
4.63
5.58
5.9
5.67
4.98
4.02
3.01
2.23
1.88
2.06
2.74
3.75
4.87
5.86
6.55
6.83
6.72
6.3
5.68
4.95
4.15
3.31
2.42
1.55
0.78
0.2
-0.13
-0.24
-0.24
-0.3
-0.53
-1.03
-1.81
-2.85
-4.09
-5.52
-7.05
-8.6
-10.04
-11.29
-12.35
-13.32
-14.38
-15.71
-17.35
-19.13
-20.7
-21.6
-21.42
-19.98
-17.42
-14.14
-10.62
-7.26
-4.25
-1.66
0.55
2.35
3.65
4.38
4.59
4.48
4.31
4.34
4.7
5.37
6.2
7.03
7.72
8.21
8.48
8.53
8.38
8.05
7.57
6.95
6.17
5.25
4.22
3.17
2.22
1.42
0.8
0.32
-0.09
-0.45
-0.73
-0.91
-0.99
-1.0
-1.04
-1.18
-1.5
-1.97
-2.54
-3.19
-3.89
-4.65
-5.5
-6.49
-7.62
-8.92
-10.31
-11.69
-12.86
-13.58
-13.6
-12.7
-10.81
-8.03
-4.64
-1.0
2.5
5.56
8.03
9.88
11.19
12.03
12.45
12.51
12.25
11.83
11.43
11.24
11.42
11.95
12.72
13.51
14.11
14.42
14.46
14.33
14.14
13.9
13.52
12.89
11.88
10.52
8.94
7.32
5.83
4.56
3.52
2.68
2.01
1.47
1.01
0.49
-0.23
-1.3
-2.75
-4.43
-6.17
-7.77
-9.16
-10.43
-11.75
-13.24
-14.89
-16.48
-17.67
-18.16
-17.73
-16.33
-14.06
-11.11
-7.7
-4.1
-0.57
2.62
5.21
7.0
7.89
7.89
7.18
6.02
4.81
3.88
3.51
3.79
4.63
5.81
7.06
8.17
8.98
9.41
9.44
9.05
8.3
7.31
6.28
5.39
4.72
4.24
3.8
3.23
2.45
1.49
0.5
-0.35
-0.96
-1.34
-1.6
-1.86
-2.2
-2.64
-3.18
-3.8
-4.55
-5.52
-6.8
-8.36
-10.07
-11.75
-13.18
-14.31
-15.26
-16.23
-17.45
-18.94
-20.5
-21.7
-22.07
-21.28
-19.25
-16.21
-12.61
-8.94
-5.57
-2.68
-0.38
1.31
2.34
2.63
2.23
1.3
0.16
-0.82
-1.33
-1.19
-0.39
0.92
2.53
4.19
5.68
6.82
7.48
7.72
7.64
7.43
7.24
7.1
6.92
6.58
6.03
5.28
4.43
3.63
2.98
2.55
2.32
2.3
2.44
2.69
2.91
2.97
2.67
1.92
0.69
-0.89
-2.58
-4.09
-5.24
-5.97
-6.48
-7.1
-8.15
-9.75
-11.71
-13.5
-14.45
-14.07
-12.18
-9.07
-5.29
-1.47
1.97
4.86
7.22
9.13
10.64
11.74
12.41
12.73
12.86
12.97
13.12
13.29
13.37
13.31
13.14
13.04
13.17
13.59
14.22
14.82
15.15
15.02
14.39
13.36
12.07
10.68
9.29
7.99
6.82
5.81
4.89
3.97
2.94
1.69
0.19
-1.55
-3.44
-5.37
-7.19
-8.76
-9.98
-10.89
-11.67
-12.62
-13.97
-15.75
-17.75
-19.55
-20.63
-20.67
-19.51
-17.27
-14.21
-10.63
-6.83
-3.09
0.31
3.11
5.08
6.13
6.3
5.77
4.84
3.82
3.0
2.56
2.6
3.09
3.93
4.99
6.14
7.25
8.2
8.9
9.27
9.33
9.1
8.68
8.15
7.52
6.77
5.9
4.93
3.92
2.96
2.12
1.37
0.63
-0.22
-1.2
-2.29
-3.4
-4.47
-5.48
-6.45
-7.46
-8.54
-9.72
-10.96
-12.26
-13.6
-15.01
-16.55
-18.26
-20.08
-21.85
-23.21
-23.74
-23.08
-21.06
-17.83
-13.77
-9.42
-5.32
-1.86
0.78
2.6
3.69
4.24
4.4
4.3
4.05
3.7
3.39
3.27
3.49
4.08
4.91
5.72
6.27
6.43
6.27
6.0
5.83
5.86
6.0
6.13
6.12
5.93
5.63
5.28
4.94
4.61
4.24
3.82
3.32
2.73
2.08
1.41
0.77
0.18
-0.42
-1.09
-1.9
-2.87
-3.93
-4.95
-5.81
-6.52
-7.16
-7.91
-8.96
-10.43
-12.26
-14.2
-15.79
-16.47
-15.75
-13.48
-9.88
-5.54
-1.18
2.63
5.64
7.86
9.47
10.62
11.32
11.47
11.08
10.32
9.56
9.24
9.64
10.7
12.1
13.37
14.12
14.25
13.92
13.43
13.02
12.79
12.67
12.49
12.14
11.56
10.81
9.93
9.0
8.09
7.28
6.67
6.26
5.95
5.52
4.8
3.67
2.17
0.42
-1.39
-3.12
-4.69
-6.09
-7.32
-8.43
-9.51
-10.7
-12.13
-13.82
-15.57
-16.98
-17.56
-16.94
-15.0
-11.95
-8.2
-4.22
-0.44
2.86
5.5
7.36
8.39
8.54
7.9
6.65
5.11
3.65
2.63
2.26
2.56
3.38
4.45
5.54
6.53
7.41
8.22
8.97
9.54
9.74
9.46
8.69
7.64
6.6
5.78
5.27
4.94
4.6
4.06
3.25
2.23
1.14
0.1
-0.8
-1.54
-2.17
-2.76
-3.39
-4.14
-5.09
-6.27
-7.64
-9.13
-10.62
-12.05
-13.41
-14.79
-16.3
-18.08
-20.13
-22.28
-24.19
-25.41
-25.45
-24.01
-21.01
-16.77
-11.82
-6.82
-2.31
1.37
4.12
6.06
7.37
8.15
8.49
8.39
7.87
7.08
6.23
5.55
5.25
5.41
5.99
6.85
7.78
8.55
9.06
9.23
9.1
8.75
8.24
7.64
6.93
6.16
5.36
4.61
3.98
3.49
3.11
2.72
2.2
1.47
0.6
-0.3
-1.08
-1.7
-2.24
-2.87
-3.82
-5.21
-7.04
-9.12
-11.2
-13.04
-14.51
-15.6
-16.44
-17.24
-18.16
-19.3
-20.6
-21.88
-22.85
-23.21
-22.72
-21.19
-18.56
-14.92
-10.54
-5.82
-1.24
2.77
5.93
8.18
9.64
10.54
11.03
11.19
11.06
10.72
10.35
10.2
10.53
11.45
12.88
14.56
16.2
17.54
18.48
19.05
19.36
19.51
19.53
19.35
18.87
17.98
16.69
15.13
13.51
12.06
10.94
10.13
9.47
8.73
7.74
6.45
4.96
3.47
2.16
1.07
0.15
-0.7
-1.59
-2.65
-3.91
-5.43
-7.2
-9.19
-11.26
-13.15
-14.52
-15.03
-14.42
-12.64
-9.83
-6.35
-2.63
0.85
3.71
5.82
7.16
7.88
8.08
7.84
7.2
6.25
5.2
4.36
3.97
4.14
4.75
5.56
6.3
6.82
7.11
7.21
7.13
6.81
6.19
5.32
4.32
3.39
2.68
2.26
2.06
1.95
1.79
1.49
0.99
0.28
-0.63
-1.68
-2.79
-3.9
-5.0
-6.14
-7.38
-8.76
-10.23
-11.68
-12.98
-14.11
-15.15
-16.27
-17.62
-19.25
-21.06
-22.75
-24.0
-24.47
-23.87
-22.04
-18.95
-14.82
-10.04
-5.16
-0.73
2.89
5.58
7.42
8.59
9.23
9.37
9.02
8.24
7.23
6.32
5.82
5.9
6.54
7.51
8.54
9.38
9.91
10.07
9.85
9.3
8.43
7.36
6.2
5.13
4.25
3.54
2.89
2.11
1.05
-0.3
-1.83
-3.27
-4.41
-5.11
-5.39
-5.39
-5.3
-5.31
-5.57
-6.16
-7.16
-8.55
-10.24
-12.05
-13.72
-15.08
-16.1
-16.95
-17.89
-19.12
-20.64
-22.15
-23.15
-23.14
-21.78
-19.05
-15.22
-10.78
-6.24
-2.01
1.63
4.55
6.71
8.14
8.93
9.21
9.18
9.0
8.86
8.88
9.15
9.73
10.64
11.77
12.99
14.11
14.96
15.47
15.66
15.59
15.34
14.92
14.31
13.48
12.49
11.4
10.37
9.49
8.82
8.25
7.64
6.83
5.75
4.42
2.97
1.55
0.3
-0.75
-1.68
-2.63
-3.78
-5.23
-7.0
-9.0
-11.06
-12.98
-14.47
-15.21
-14.92
-13.4
-10.64
-6.93
-2.7
1.48
5.14
7.95
9.86
10.95
11.39
11.35
10.97
10.34
9.58
8.79
8.1
7.63
7.49
7.69
8.18
8.83
9.46
9.93
10.09
9.9
9.37
8.55
7.52
6.37
5.17
4.02
3.0
2.15
1.4
0.63
-0.35
-1.7
-3.4
-5.29
-7.06
-8.37
-9.01
-9.0
-8.56
-8.06
-7.87
-8.23
-9.15
-10.4
-11.54
-12.03
-11.46
-9.62
-6.62
-2.84
1.19
4.99
8.22
10.69
12.33
13.07
12.84
11.67
9.71
7.31
4.96
3.11
2.09
1.95
2.5
3.41
4.32
4.99
5.33
5.42
5.38
5.34
5.35
5.34
5.18
4.75
4.04
3.16
2.31
1.61
1.12
0.74
0.27
-0.49
-1.68
-3.3
-5.24
-7.32
-9.29
-10.96
-12.3
-13.42
-14.61
-16.15
-18.21
-20.65
-23.06
-24.84
-25.42
-24.47
-22.01
-18.35
-14.02
-9.54
-5.39
-1.86
0.86
2.7
3.64
3.71
3.05
1.87
0.54
-0.58
-1.15
-1.01
-0.19
1.09
2.55
3.92
5.01
5.76
6.23
6.47
6.55
6.53
6.43
6.23
5.9
5.4
4.74
3.93
3.06
2.19
1.35
0.54
-0.29
-1.13
-2.01
-2.96
-4.02
-5.21
-6.54
-7.96
-9.48
-11.1
-12.93
-15.0
-17.25
-19.4
-20.94
-21.34
-20.17
-17.3
-12.94
-7.57
-1.78
3.85
8.86
12.92
15.9
17.77
18.66
18.76
18.27
17.43
16.4
15.4
14.6
14.13
14.04
14.24
14.54
14.73
14.67
14.32
13.77
13.14
12.48
11.77
10.97
10.0
8.86
7.62
6.33
5.07
3.89
2.82
1.89
1.11
0.43
-0.23
-0.99
-1.99
-3.33
-5.03
-6.95
-8.8
-10.17
-10.63
-9.94
-8.07
-5.24
-1.87
1.62
4.87
7.68
9.97
11.67
12.76
13.17
12.9
12.02
10.7
9.23
7.92
7.03
6.67
6.81
7.26
7.82
8.29
8.56
8.62
8.49
8.16
7.62
6.85
5.87
4.75
3.64
2.6
1.66
0.74
-0.24
-1.3
-2.39
-3.39
-4.22
-4.9
-5.55
-6.32
-7.32
-8.51
-9.78
-11.05
-12.31
-13.65
-15.18
-16.91
-18.64
-20.03
-20.68
-20.27
-18.65
-15.93
-12.35
-8.27
-4.06
-0.04
3.51
6.37
8.44
9.67
10.09
9.85
9.16
8.27
7.46
6.95
6.9
7.31
8.05
8.87
9.49
9.66
9.32
8.53
7.45
6.27
5.14
4.14
3.29
2.59
2.03
1.57
1.15
0.72
0.21
-0.4
-1.12
-1.92
-2.81
-3.76
-4.75
-5.73
-6.71
-7.65
-8.59
-9.55
-10.56
-11.62
-12.73
-13.9
-15.15
-16.49
-17.92
-19.41
-20.98
-22.6
-24.2
-25.64
-26.6
-26.69
-25.57
-23.06
-19.33
-14.79
-9.98
-5.43
-1.42
1.9
4.52
6.42
7.57
7.93
7.6
6.82
5.95
5.35
5.26
5.67
6.42
7.24
7.93
8.42
8.77
9.12
9.55
10.04
10.41
10.47
10.11
9.34
8.31
7.21
6.2
5.3
4.44
3.57
2.68
1.83
1.13
0.63
0.27
-0.09
-0.63
-1.4
-2.34
-3.24
-3.93
-4.3
-4.47
-4.65
-5.09
-5.96
-7.29
-8.97
-10.89
-12.87
-14.75
-16.29
-17.14
-16.99
-15.62
-13.04
-9.46
-5.29
-0.96
3.1
6.62
9.43
11.48
12.84
13.64
14.02
14.13
14.03
13.77
13.42
13.11
12.98
13.17
13.66
14.3
14.9
15.24
15.26
15.02
14.64
14.16
13.57
12.77
11.7
10.4
8.99
7.61
6.37
5.27
4.25
3.21
2.07
0.81
-0.56
-2.07
-3.71
-5.44
-7.23
-8.99
-10.69
-12.34
-13.97
-15.59
-17.13
-18.4
-19.14
-19.07
-18.01
-15.9
-12.86
-9.2
-5.3
-1.54
1.8
4.57
6.72
8.21
9.0
9.06
8.42
7.3
6.04
5.08
4.74
5.12
6.09
7.31
8.42
9.15
9.36
9.08
8.45
7.66
6.89
6.25
5.75
5.3
4.74
3.97
2.91
1.66
0.37
-0.79
-1.77
-2.61
-3.41
-4.29
-5.25
-6.23
-7.15
-8.02
-8.88
-9.87
-11.03
-12.35
-13.73
-15.1
-16.44
-17.83
-19.31
-20.83
-22.16
-22.93
-22.77
-21.45
-18.9
-15.3
-10.96
-6.28
-1.65
2.58
6.11
8.74
10.4
11.1
10.98
10.23
9.1
7.84
6.65
5.7
5.08
4.78
4.72
4.84
5.08
5.45
5.91
6.41
6.81
6.94
6.67
6.02
5.11
4.14
3.29
2.63
2.14
1.73
1.32
0.88
0.39
-0.13
-0.71
-1.37
-2.16
-3.1
-4.19
-5.4
-6.66
-7.87
-8.98
-9.96
-10.88
-11.85
-12.99
-14.35
-15.86
-17.33
-18.47
-18.94
-18.44
-16.76
-13.91
-10.11
-5.75
-1.34
2.66
5.93
8.37
10.02
11.02
11.51
11.62
11.48
11.19
10.89
10.71
10.74
11.03
11.57
12.28
13.06
13.78
14.31
14.61
14.69
14.59
14.37
14.03
13.52
12.82
11.92
10.88
9.82
8.84
7.98
7.17
6.29
5.17
3.74
2.05
0.24
-1.47
-2.92
-4.1
-5.13
-6.25
-7.69
-9.55
-11.7
-13.85
-15.56
-16.42
-16.09
-14.43
-11.54
-7.79
-3.67
0.27
3.62
6.2
7.97
9.05
9.55
9.54
9.06
8.19
7.11
6.07
5.31
5.0
5.19
5.77
6.54
7.27
7.77
7.92
7.72
7.21
6.48
5.58
4.54
3.35
2.07
0.79
-0.33
-1.19
-1.81
-2.33
-2.97
-3.86
-5.02
-6.32
-7.61
-8.78
-9.77
-10.63
-11.42
-12.23
-13.18
-14.39
-15.94
-17.78
-19.62
-20.96
-21.28
-20.13
-17.47
-13.63
-9.23
-4.98
-1.38
1.34
3.26
4.59
5.56
6.26
6.69
6.81
6.68
6.42
6.22
6.25
6.58
7.16
7.86
8.53
9.03
9.27
9.17
8.75
8.05
7.13
6.07
4.94
3.8
2.75
1.87
1.22
0.76
0.34
-0.24
-1.16
-2.45
-4.0
-5.61
-7.09
-8.37
-9.53
-10.72
-12.1
-13.74
-15.62
-17.63
-19.58
-21.17
-22.02
-21.74
-20.09
-17.06
-12.93
-8.21
-3.49
0.67
3.94
6.13
7.26
7.46
6.94
5.98
4.89
4.02
3.6
3.74
4.36
5.25
6.17
6.95
7.49
7.81
8.02
8.16
8.24
8.21
8.03
7.68
7.23
6.74
6.32
6.0
5.77
5.56
5.31
4.94
4.46
3.87
3.23
2.53
1.7
0.61
-0.86
-2.64
-4.51
-6.03
-6.7
-6.18
-4.34
-1.41
2.17
5.85
9.12
11.66
13.32
14.14
14.24
13.79
12.92
11.79
10.57
9.43
8.56
8.11
8.13
8.54
9.14
9.73
10.16
10.34
10.29
10.0
9.46
8.61
7.41
5.87
4.06
2.12
0.17
-1.72
-3.52
-5.21
-6.75
-8.08
-9.22
-10.22
-11.24
-12.42
-13.81
-15.31
-16.61
-17.34
-17.14
-15.78
-13.28
-9.89
-6.01
-2.08
1.52
4.55
6.89
8.51
9.43
9.7
9.4
8.64
7.64
6.63
5.83
5.42
5.44
5.78
6.23
6.6
6.73
6.62
6.31
5.92
5.48
4.99
4.43
3.81
3.21
2.73
2.4
2.14
1.79
1.18
0.23
-1.02
-2.48
-4.03
-5.61
-7.18
-8.68
-10.07
-11.3
-12.45
-13.7
-15.25
-17.22
-19.52
-21.76
-23.43
-24.02
-23.2
-20.95
-17.54
-13.44
-9.16
-5.16
-1.7
1.09
3.24
4.78
5.74
6.07
5.76
4.91
3.78
2.75
2.19
2.27
2.94
3.95
5.0
5.88
6.53
6.98
7.28
7.44
7.43
7.19
6.66
5.83
4.76
3.55
2.34
1.27
0.42
-0.21
-0.71
-1.21
-1.84
-2.6
-3.44
-4.22
-4.92
-5.63
-6.58
-7.99
-9.94
-12.35
-14.9
-17.19
-18.82
-19.5
-19.05
-17.43
-14.75
-11.21
-7.15
-2.93
1.11
4.63
7.44
9.42
10.56
10.87
10.48
9.57
8.44
7.37
6.66
6.48
6.88
7.76
8.93
10.18
11.28
12.01
12.27
12.04
11.42
10.6
9.8
9.14
8.61
8.1
7.44
6.58
5.58
4.6
3.74
3.06
2.42
1.63
0.51
-1.01
-2.86
-4.85
-6.78
-8.44
-9.57
-9.95
-9.34
-7.62
-4.87
-1.42
2.24
5.61
8.32
10.17
11.17
11.4
10.97
10.04
8.82
7.58
6.58
6.02
5.94
6.28
6.83
7.39
7.81
8.01
7.95
7.63
7.04
6.21
5.11
3.78
2.26
0.67
-0.85
-2.13
-3.04
-3.61
-3.93
-4.24
-4.73
-5.48
-6.45
-7.5
-8.49
-9.38
-10.23
-11.09
-12.0
-12.9
-13.78
-14.66
-15.66
-16.92
-18.46
-20.08
-21.36
-21.79
-20.93
-18.59
-14.95
-10.45
-5.66
-1.17
2.57
5.27
6.91
7.62
7.69
7.4
6.98
6.53
6.04
5.57
5.2
5.09
5.36
5.99
6.82
7.58
8.05
8.11
7.87
7.48
7.1
6.76
6.41
5.92
5.16
4.13
2.88
1.55
0.25
-0.95
-2.05
-3.09
-4.12
-5.21
-6.38
-7.62
-8.9
-10.15
-11.29
-12.26
-13.03
-13.67
-14.3
-15.06
-16.03
-17.21
-18.45
-19.55
-20.21
-20.14
-19.09
-16.87
-13.53
-9.3
-4.63
-0.04
3.97
7.11
9.29
10.55
11.07
10.99
10.47
9.68
8.83
8.18
7.95
8.23
8.99
10.06
11.17
12.13
12.8
13.12
13.11
12.79
12.26
11.54
10.72
9.87
9.04
8.26
7.56
6.95
6.44
6.0
5.61
5.21
4.69
3.97
3.05
1.98
0.9
-0.16
-1.19
-2.32
-3.64
-5.21
-6.91
-8.51
-9.64
-9.97
-9.28
-7.52
-4.87
-1.64
1.79
5.05
7.89
10.16
11.81
12.84
13.27
13.18
12.65
11.85
10.99
10.3
9.93
9.96
10.36
10.97
11.62
12.09
12.25
12.04
11.5
10.73
9.83
8.86
7.82
6.65
5.36
3.96
2.54
1.2
-0.07
-1.32
-2.69
-4.26
-5.98
-7.65
-9.06
-10.06
-10.71
-11.24
-11.9
-12.85
-13.98
-15.05
-15.7
-15.69
-14.85
-13.23
-10.95
-8.24
-5.41
-2.81
-0.71
0.71
1.45
1.67
1.61
1.47
1.43
1.56
1.95
2.64
3.64
4.85
6.13
7.19
7.81
7.88
7.45
6.72
6.0
5.51
5.33
5.35
5.32
4.99
4.27
3.25
2.15
1.22
0.58
0.17
-0.14
-0.55
-1.16
-1.99
-3.0
-4.09
-5.15
-6.12
-6.97
-7.75
-8.54
-9.43
-10.47
-11.66
-12.87
-13.96
-14.77
-15.16
-15.05
-14.36
-13.07
-11.25
-9.04
-6.67
-4.39
-2.42
-0.91
0.11
0.68
0.92
0.99
1.0
1.02
1.07
1.17
1.34
1.69
2.31
3.25
4.42
5.6
6.52
7.01
7.03
6.68
6.15
5.57
5.01
4.46
3.86
3.18
2.4
1.53
0.6
-0.35
-1.23
-1.92
-2.32
-2.38
-2.12
-1.66
-1.16
-0.82
-0.8
-1.17
-1.9
-2.89
-3.99
-5.05
-6.01
-6.89
-7.77
-8.72
-9.76
-10.77
-11.57
-11.97
-11.8
-10.93
-9.41
-7.39
-5.07
-2.69
-0.38
1.75
3.66
5.29
6.55
7.35
7.68
7.68
7.6
7.66
8.0
8.62
9.38
10.11
10.73
11.24
11.67
12.0
12.14
11.95
11.36
10.43
9.28
8.12
7.11
6.31
5.68
5.16
4.67
4.2
3.72
3.17
2.52
1.7
0.72
-0.39
-1.53
-2.58
-3.43
-4.04
-4.48
-4.87
-5.41
-6.26
-7.43
-8.78
-10.04
-10.85
-10.97
-10.33
-9.03
-7.31
-5.42
-3.58
-1.85
-0.28
1.07
2.14
2.83
3.06
2.85
2.3
1.57
0.85
0.33
0.11
0.25
0.68
1.28
1.85
2.24
2.38
2.28
2.06
1.85
1.77
1.83
1.99
2.14
2.22
2.16
1.96
1.63
1.22
0.79
0.42
0.17
0.04
-0.01
-0.1
-0.33
-0.78
-1.5
-2.45
-3.57
-4.78
-5.99
-7.13
-8.19
-9.24
-10.39
-11.74
-13.33
-15.05
-16.67
-17.9
-18.45
-18.16
-16.98
-15.03
-12.54
-9.84
-7.24
-5.02
-3.27
-1.95
-0.93
-0.06
0.73
1.38
1.8
1.9
1.7
1.35
1.01
0.86
0.97
1.35
1.95
2.72
3.57
4.42
5.14
5.65
5.89
5.84
5.57
5.18
4.77
4.46
4.3
4.3
4.4
4.47
4.32
3.79
2.8
1.42
-0.09
-1.45
-2.4
-2.84
-2.85
-2.67
-2.58
-2.8
-3.45
-4.48
-5.74
-7.02
-8.14
-9.02
-9.68
-10.3
-11.11
-12.25
-13.69
-15.2
-16.41
-16.92
-16.45
-14.95
-12.54
-9.44
-5.93
-2.3
1.15
4.15
6.46
7.96
8.7
8.94
9.01
9.16
9.5
9.97
10.48
10.95
11.42
11.97
12.66
13.46
14.24
14.84
15.12
15.03
14.58
13.84
12.89
11.83
10.75
9.76
8.89
8.15
7.52
6.92
6.34
5.75
5.18
4.62
4.03
3.37
2.54
1.52
0.32
-0.97
-2.21
-3.31
-4.24
-5.09
-6.03
-7.22
-8.72
-10.48
-12.34
-14.04
-15.34
-15.97
-15.74
-14.53
-12.4
-9.63
-6.64
-3.89
-1.7
-0.18
0.75
1.25
1.47
1.49
1.32
1.01
0.63
0.29
0.16
0.33
0.87
1.83
3.18
4.81
6.49
7.96
8.93
9.27
9.01
8.36
7.58
6.87
6.35
6.01
5.79
5.58
5.34
5.05
4.69
4.23
3.66
2.96
2.11
1.09
-0.09
-1.43
-2.88
-4.38
-5.86
-7.26
-8.57
-9.83
-11.14
-12.55
-14.09
-15.7
-17.3
-18.79
-20.07
-21.03
-21.56
-21.47
-20.59
-18.78
-16.09
-12.71
-9.01
-5.36
-2.08
0.67
2.88
4.61
5.91
6.77
7.15
7.07
6.62
6.0
5.43
5.12
5.17
5.54
6.08
6.64
7.09
7.37
7.46
7.41
7.27
7.03
6.72
6.31
5.85
5.39
5.0
4.74
4.61
4.51
4.33
3.92
3.2
2.21
1.05
-0.11
-1.15
-2.0
-2.73
-3.42
-4.2
-5.14
-6.23
-7.43
-8.7
-10.02
-11.37
-12.77
-14.19
-15.6
-16.93
-18.12
-19.1
-19.82
-20.08
-19.69
-18.44
-16.22
-13.1
-9.35
-5.3
-1.33
2.31
5.49
8.12
10.15
11.51
12.14
12.06
11.46
10.59
9.81
9.39
9.51
10.17
11.28
12.64
14.02
15.22
16.1
16.59
16.71
16.54
16.19
15.72
15.13
14.41
13.5
12.42
11.24
10.07
9.01
8.08
7.17
6.12
4.77
3.06
1.06
-1.01
-2.89
-4.4
-5.45
-6.2
-6.88
-7.82
-9.24
-11.15
-13.39
-15.6
-17.39
-18.4
-18.37
-17.22
-14.97
-11.76
-7.87
-3.67
0.41
3.98
6.77
8.69
9.76
10.12
9.91
9.32
8.47
7.5
6.58
5.9
5.62
5.82
6.46
7.33
8.16
8.68
8.74
8.39
7.78
7.13
6.58
6.09
5.55
4.86
4.02
3.15
2.39
1.83
1.4
0.96
0.36
-0.47
-1.48
-2.59
-3.77
-5.01
-6.41
-7.98
-9.7
-11.44
-13.09
-14.58
-16.0
-17.43
-18.92
-20.42
-21.67
-22.32
-22.03
-20.56
-17.85
-14.07
-9.57
-4.81
-0.26
3.69
6.77
8.9
10.13
10.61
10.51
10.0
9.25
8.44
7.7
7.17
6.89
6.86
7.01
7.21
7.38
7.41
7.26
6.93
6.49
6.03
5.62
5.25
4.87
4.38
3.72
2.97
2.21
1.58
1.08
0.59
-0.1
-1.14
-2.53
-4.1
-5.64
-6.94
-7.94
-8.69
-9.32
-10.02
-10.94
-12.22
-13.92
-15.96
-18.03
-19.67
-20.39
-19.76
-17.66
-14.29
-10.12
-5.7
-1.55
1.95
4.62
6.41
7.38
7.7
7.53
7.04
6.4
5.76
5.25
5.02
5.16
5.72
6.66
7.87
9.18
10.41
11.39
12.01
12.24
12.08
11.63
11.03
10.43
9.95
9.52
9.03
8.29
7.26
6.01
4.73
3.59
2.64
1.76
0.74
-0.6
-2.31
-4.25
-6.15
-7.75
-8.78
-9.01
-8.3
-6.56
-3.87
-0.51
3.09
6.46
9.23
11.19
12.31
12.64
12.27
11.28
9.82
8.13
6.58
5.49
5.03
5.19
5.72
6.34
6.78
6.94
6.79
6.39
5.78
5.04
4.24
3.49
2.83
2.23
1.52
0.5
-0.91
-2.62
-4.39
-5.9
-7.01
-7.77
-8.42
-9.25
-10.42
-11.9
-13.42
-14.62
-15.13
-14.71
-13.25
-10.86
-7.79
-4.39
-1.0
2.05
4.53
6.32
7.37
7.69
7.37
6.54
5.39
4.17
3.09
2.33
1.97
2.01
2.4
3.1
4.02
5.04
5.97
6.61
6.8
6.48
5.75
4.77
3.73
2.74
1.78
0.72
-0.55
-2.06
-3.7
-5.3
-6.68
-7.77
-8.69
-9.64
-10.84
-12.45
-14.43
-16.54
-18.41
-19.67
-19.97
-19.15
-17.15
-14.12
-10.29
-6.01
-1.66
2.36
5.73
8.24
9.85
10.63
10.76
10.39
9.67
8.69
7.6
6.55
5.79
5.47
5.65
6.18
6.84
7.38
7.68
7.71
7.54
7.21
6.73
6.11
5.37
4.53
3.63
2.66
1.57
0.3
-1.16
-2.7
-4.21
-5.57
-6.77
-7.86
-8.92
-10.05
-11.29
-12.61
-13.91
-14.99
-15.56
-15.3
-13.97
-11.51
-8.11
-4.14
-0.06
3.68
6.79
9.08
10.52
11.16
11.13
10.64
9.9
9.12
8.48
8.06
7.92
8.09
8.55
9.21
9.91
10.46
10.7
10.56
10.09
9.41
8.65
7.86
7.0
6.08
5.11
4.22
3.51
2.99
2.58
2.14
1.58
0.91
0.18
-0.58
-1.44
-2.58
-4.13
-6.03
-7.99
-9.53
-10.2
-9.73
-8.12
-5.64
-2.63
0.52
3.55
6.26
8.51
10.17
11.16
11.49
11.26
10.67
9.95
9.29
8.84
8.69
8.88
9.37
10.04
10.72
11.17
11.21
10.78
9.99
9.06
8.26
7.7
7.32
6.92
6.25
5.17
3.68
1.94
0.17
-1.4
-2.68
-3.7
-4.62
-5.6
-6.81
-8.28
-9.95
-11.69
-13.28
-14.54
-15.27
-15.26
-14.37
-12.55
-9.91
-6.78
-3.56
-0.64
1.75
3.58
4.95
5.98
6.73
7.17
7.24
6.94
6.37
5.73
5.24
5.04
5.2
5.64
6.17
6.62
6.89
6.99
7.0
7.01
7.0
6.87
6.48
5.82
5.0
4.27
3.83
3.75
3.87
3.92
3.59
2.75
1.46
-0.08
-1.64
-3.05
-4.23
-5.23
-6.09
-6.84
-7.46
-8.0
-8.53
-9.19
-10.09
-11.24
-12.55
-13.88
-15.07
-16.1
-16.98
-17.76
-18.38
-18.6
-18.12
-16.7
-14.31
-11.19
-7.78
-4.51
-1.71
0.54
2.28
3.6
4.57
5.17
5.39
5.26
4.94
4.63
4.55
4.77
5.23
5.76
6.18
6.37
6.33
6.13
5.91
5.73
5.6
5.45
5.17
4.63
3.85
2.89
1.92
1.08
0.45
0.02
-0.31
-0.69
-1.19
-1.78
-2.37
-2.81
-3.01
-3.03
-3.03
-3.24
-3.83
-4.8
-6.03
-7.31
-8.44
-9.34
-10.08
-10.83
-11.75
-12.92
-14.24
-15.44
-16.24
-16.32
-15.56
-14.03
-11.9
-9.42
-6.77
-4.05
-1.37
1.15
3.32
4.96
5.94
6.34
6.33
6.18
6.1
6.2
6.45
6.79
7.18
7.58
8.03
8.5
8.95
9.32
9.57
9.7
9.75
9.77
9.77
9.72
9.54
9.18
8.57
7.75
6.79
5.83
5.0
4.39
3.95
3.55
3.04
2.26
1.22
0.02
-1.16
-2.13
-2.8
-3.23
-3.57
-4.03
-4.78
-5.88
-7.26
-8.72
-10.02
-10.92
-11.2
-10.78
-9.62
-7.83
-5.54
-2.96
-0.35
2.03
3.94
5.22
5.87
6.0
5.8
5.45
5.09
4.78
4.55
4.42
4.45
4.71
5.27
6.08
7.02
7.9
8.52
8.82
8.81
8.63
8.38
8.1
7.7
7.01
5.9
4.4
2.71
1.09
-0.23
-1.19
-1.87
-2.46
-3.06
-3.74
-4.44
-5.11
-5.74
-6.4
-7.15
-8.03
-8.99
-9.96
-10.83
-11.55
-12.11
-12.57
-12.98
-13.45
-14.05
-14.81
-15.64
-16.35
-16.62
-16.16
-14.78
-12.51
-9.61
-6.51
-3.64
-1.3
0.44
1.71
2.74
3.73
4.71
5.59
6.15
6.26
5.96
5.44
4.96
4.71
4.77
5.06
5.45
5.88
6.35
6.88
7.41
7.83
7.95
7.67
6.99
6.1
5.23
4.55
4.1
3.79
3.45
2.96
2.27
1.39
0.39
-0.61
-1.51
-2.23
-2.73
-3.04
-3.25
-3.48
-3.9
-4.6
-5.58
-6.77
-8.06
-9.31
-10.43
-11.43
-12.44
-13.6
-15.0
-16.63
-18.3
-19.7
-20.46
-20.3
-19.07
-16.88
-14.01
-10.85
-7.76
-5.02
-2.77
-0.96
0.43
1.53
2.39
3.05
3.55
3.94
4.31
4.73
5.33
6.12
7.08
8.1
9.03
9.74
10.14
10.24
10.1
9.81
9.41
8.94
8.39
7.78
7.17
6.57
5.97
5.29
4.44
3.38
2.2
1.1
0.32
-0.03
-0.01
0.15
0.15
-0.24
-1.06
-2.17
-3.36
-4.45
-5.36
-6.17
-7.0
-7.96
-9.06
-10.24
-11.37
-12.29
-12.82
-12.79
-12.04
-10.48
-8.15
-5.25
-2.07
1.03
3.83
6.19
8.06
9.48
10.4
10.8
10.67
10.14
9.41
8.78
8.47
8.52
8.83
9.19
9.45
9.59
9.71
9.92
10.29
10.72
11.05
11.1
10.78
10.15
9.34
8.49
7.65
6.81
5.91
4.91
3.9
2.93
2.04
1.17
0.2
-1.0
-2.44
