0
-65.92
-59.0
-48.33
-35.59
-22.71
-11.36
-2.43
4.0
8.45
11.59
13.95
15.75
17.08
18.01
18.8
19.78
21.25
23.29
25.73
28.23
30.45
32.23
33.58
34.61
35.38
35.83
35.8
35.1
33.67
31.6
29.18
26.78
24.7
23.06
21.77
20.56
19.1
17.2
14.85
12.25
9.67
7.37
5.43
3.7
1.86
-0.44
-3.41
-6.96
-10.8
-14.47
-17.58
-20.06
-22.19
-24.55
-27.79
-32.41
-38.53
-45.73
-52.99
-58.91
-61.96
-61.0
-55.65
-46.5
-34.95
-22.82
-11.72
-2.68
4.0
8.63
11.78
14.0
15.61
16.81
17.7
18.45
19.29
20.46
22.08
24.11
26.32
28.42
30.14
31.38
32.17
32.61
32.74
32.5
31.69
30.12
27.75
24.81
21.75
19.16
17.45
16.72
16.64
16.62
16.09
14.74
12.7
10.38
8.22
6.4
4.69
2.59
-0.34
-4.25
-8.84
-13.54
-17.8
-21.3
-24.13
-26.65
-29.38
-32.8
-37.24
-42.88
-49.59
-56.82
-63.49
-68.2
-69.5
-66.44
-58.98
-48.11
-35.52
-23.07
-12.24
-3.75
2.41
6.73
9.8
12.08
13.86
15.32
16.59
17.89
19.46
21.43
23.78
26.29
28.65
30.59
32.02
33.05
33.89
34.74
35.55
36.08
35.96
34.89
32.83
30.02
26.88
23.86
21.26
19.15
17.45
15.94
14.35
12.49
10.27
7.77
5.24
2.98
1.19
-0.13
-1.25
-2.61
-4.62
-7.46
-11.02
-14.96
-18.91
-22.59
-25.97
-29.22
-32.62
-36.52
-41.23
-46.9
-53.27
-59.61
-64.68
-67.03
-65.4
-59.3
-49.29
-36.87
-23.99
-12.41
-3.19
3.51
8.18
11.55
14.22
16.54
18.58
20.35
21.93
23.41
25.0
26.78
28.72
30.69
32.42
33.74
34.59
35.1
35.51
35.99
36.53
36.79
36.37
34.92
32.4
29.18
25.82
22.89
20.68
19.21
18.24
17.42
16.4
14.99
13.07
10.73
8.11
5.43
2.85
0.4
-2.04
-4.69
-7.7
-11.14
-14.91
-18.82
-22.68
-26.36
-29.89
-33.45
-37.33
-41.93
-47.52
-53.98
-60.64
-66.2
-69.09
-67.99
-62.35
-52.7
-40.55
-27.8
-16.14
-6.57
0.72
6.07
9.98
12.8
14.69
15.75
16.23
16.54
17.17
18.51
20.6
23.22
25.92
28.29
30.09
31.32
32.17
32.79
33.3
33.6
33.48
32.8
31.52
29.81
27.99
26.29
24.81
23.41
21.85
19.93
17.63
15.17
12.85
10.95
9.45
8.14
6.62
4.54
1.77
-1.58
-5.2
-8.77
-12.13
-15.32
-18.52
-21.98
-25.9
-30.45
-35.73
-41.65
-47.76
-53.15
-56.49
-56.47
-52.26
-43.95
-32.64
-20.03
-7.94
2.25
9.91
15.06
18.13
19.69
20.21
20.08
19.6
19.08
18.85
19.17
20.3
22.25
24.83
27.65
30.22
32.14
33.22
33.47
33.01
32.01
30.55
28.7
26.55
24.29
22.15
20.34
18.93
17.78
16.57
14.93
12.63
9.73
6.5
3.38
0.65
-1.64
-3.71
-5.91
-8.5
-11.55
-14.9
-18.34
-21.68
-24.9
-28.11
-31.55
-35.46
-40.12
-45.66
-51.91
-58.27
-63.58
-66.44
-65.62
-60.55
-51.61
-40.08
-27.64
-15.92
-6.0
1.64
7.08
10.69
12.9
14.19
15.03
15.84
17.0
18.66
20.86
23.41
26.08
28.61
30.78
32.41
33.39
33.66
33.26
32.31
30.95
29.33
27.54
25.64
23.68
21.73
19.79
17.86
15.85
13.69
11.39
9.05
6.88
5.03
3.53
2.23
0.83
-1.0
-3.45
-6.51
-10.02
-13.69
-17.23
-20.49
-23.52
-26.55
-29.96
-34.18
-39.5
-45.93
-53.06
-59.96
-65.3
-67.62
-65.8
-59.42
-49.07
-36.19
-22.69
-10.34
-0.31
7.06
12.09
15.49
17.97
20.01
21.8
23.37
24.73
25.96
27.21
28.64
30.32
32.17
33.93
35.33
36.16
36.39
36.11
35.5
34.65
33.51
32.01
30.08
27.78
25.28
22.8
20.53
18.51
16.65
14.81
12.84
10.68
8.41
6.2
4.22
2.54
1.0
-0.69
-2.91
-5.84
-9.44
-13.39
-17.25
-20.69
-23.61
-26.27
-29.16
-32.85
-37.73
-43.82
-50.63
-57.09
-61.79
-63.37
-60.9
-54.29
-44.32
-32.41
-20.21
-9.17
-0.2
6.45
11.02
14.04
16.12
17.7
19.04
20.29
21.51
22.78
24.2
25.84
27.68
29.61
31.43
32.98
34.14
34.9
35.27
35.22
34.67
33.54
31.82
29.63
27.17
24.69
22.41
20.39
18.61
16.94
15.26
13.51
11.74
10.06
8.6
7.36
6.25
5.0
3.31
0.95
-2.15
-5.85
-9.87
-13.86
-17.6
-21.05
-24.42
-28.12
-32.56
-37.97
-44.1
-50.15
-54.86
-56.84
-55.07
-49.27
-40.08
-28.83
-17.15
-6.45
2.38
9.04
13.68
16.67
18.39
19.18
19.38
19.28
19.19
19.38
20.05
21.27
22.94
24.85
26.7
28.21
29.24
29.76
29.9
29.74
29.32
28.59
27.47
25.97
24.22
22.43
20.79
19.36
18.04
16.65
15.04
13.15
11.05
8.9
6.81
4.84
2.96
1.06
-0.97
-3.26
-5.94
-9.03
-12.5
-16.16
-19.79
-23.11
-25.95
-28.4
-30.81
-33.75
-37.77
-43.14
-49.56
-56.13
-61.49
-64.16
-63.04
-57.76
-48.82
-37.45
-25.28
-13.88
-4.33
2.86
7.79
10.91
12.82
14.07
15.08
16.13
17.41
18.94
20.7
22.57
24.36
25.95
27.28
28.36
29.27
30.12
30.93
31.63
32.07
32.02
31.31
29.84
27.7
25.11
22.42
19.96
17.93
16.36
15.14
14.03
12.82
11.37
9.65
7.75
5.83
4.02
2.35
0.69
-1.2
-3.57
-6.56
-10.04
-13.69
-17.12
-20.04
-22.44
-24.66
-27.17
-30.5
-34.99
-40.62
-46.99
-53.19
-57.99
-60.08
-58.5
-52.97
-44.08
-33.22
-22.05
-12.06
-4.13
1.62
5.62
8.5
10.78
12.69
14.25
15.41
16.26
17.01
17.96
19.28
20.98
22.84
24.56
25.91
26.81
27.37
27.7
27.87
27.83
27.39
26.36
24.71
22.57
20.25
18.1
16.37
15.06
13.93
12.6
10.75
8.34
5.56
2.77
0.3
-1.74
-3.49
-5.19
-7.07
-9.21
-11.58
-14.08
-16.64
-19.26
-22.01
-24.97
-28.19
-31.77
-35.85
-40.51
-45.59
-50.58
-54.4
-55.77
-53.56
-47.31
-37.54
-25.63
-13.42
-2.62
5.7
11.28
14.52
16.16
16.92
17.28
17.47
17.61
17.8
18.2
18.96
20.19
21.85
23.73
25.55
27.08
28.2
28.91
29.25
29.21
28.72
27.7
26.09
23.89
21.19
18.12
14.92
11.84
9.2
7.21
5.92
5.18
4.61
3.79
2.35
0.1
-2.89
-6.37
-9.93
-13.14
-15.71
-17.55
-18.88
-20.14
-21.94
-24.83
-29.18
-35.01
-41.88
-48.85
-54.54
-57.5
-56.56
-51.29
-42.29
-31.0
-19.32
-8.99
-1.05
4.3
7.46
9.21
10.19
10.84
11.3
11.64
11.94
12.35
13.08
14.24
15.82
17.59
19.28
20.66
21.64
22.3
22.78
23.16
23.43
23.44
22.98
21.99
20.53
18.76
16.92
15.22
13.72
12.36
11.0
9.48
7.72
5.71
3.53
1.19
-1.38
-4.31
-7.73
-11.61
-15.67
-19.45
-22.48
-24.58
-25.97
-27.27
-29.25
-32.61
-37.65
-44.19
-51.46
-58.2
-62.96
-64.4
-61.73
-54.96
-45.03
-33.5
-22.12
-12.37
-4.98
0.04
3.21
5.28
6.9
8.4
9.93
11.5
13.08
14.73
16.5
18.4
20.34
22.17
23.72
24.93
25.8
26.38
26.76
26.97
26.94
26.52
25.59
24.04
21.93
19.44
16.9
14.6
12.73
11.27
10.09
9.0
7.86
6.62
5.26
3.66
1.65
-0.96
-4.24
-8.07
-12.13
-16.04
-19.48
-22.4
-24.95
-27.46
-30.36
-34.05
-38.8
-44.56
-50.85
-56.71
-60.79
-61.71
-58.51
-51.1
-40.34
-27.9
-15.68
-5.23
2.65
7.98
11.32
13.36
14.64
15.45
15.97
16.36
16.85
17.69
19.08
21.02
23.35
25.78
28.03
29.92
31.34
32.33
32.91
33.05
32.68
31.74
30.24
28.33
26.3
24.43
22.85
21.5
20.19
18.75
17.15
15.51
13.98
12.62
11.28
9.7
7.62
4.96
1.84
-1.49
-4.74
-7.73
-10.42
-12.92
-15.42
-18.19
-21.56
-25.8
-31.0
-36.86
-42.59
-46.95
-48.67
-46.77
-41.06
-32.25
-21.74
-11.16
-1.85
5.41
10.53
13.81
15.72
16.65
16.94
16.88
16.75
16.87
17.48
18.7
20.51
22.73
25.13
27.46
29.49
31.04
32.01
32.42
32.32
31.84
31.07
30.03
28.69
27.0
24.92
22.47
19.77
16.98
14.26
11.74
9.52
7.57
5.82
4.05
2.04
-0.39
-3.34
-6.78
-10.54
-14.4
-18.12
-21.47
-24.37
-26.89
-29.35
-32.28
-36.25
-41.59
-48.05
-54.74
-60.2
-62.89
-61.7
-56.37
-47.59
-36.67
-25.2
-14.51
-5.5
1.47
6.4
9.59
11.44
12.47
13.16
13.98
15.26
17.14
19.57
22.35
25.18
27.75
29.81
31.25
32.08
32.45
32.57
32.61
32.63
32.54
32.12
31.17
29.58
27.49
25.15
22.82
20.65
18.6
16.52
14.32
12.06
9.91
8.04
6.44
4.84
2.9
0.33
-2.89
-6.54
-10.23
-13.68
-16.78
-19.7
-22.77
-26.43
-30.99
-36.6
-43.13
-50.08
-56.58
-61.51
-63.7
-62.27
-56.91
-48.08
-36.92
-25.01
-13.91
-4.78
1.89
6.33
9.19
11.29
13.21
15.22
17.27
19.18
20.82
22.25
23.64
25.16
26.85
28.64
30.3
31.65
32.57
33.1
33.26
33.13
32.69
31.86
30.58
28.83
26.62
24.09
21.38
18.65
16.05
13.65
11.53
9.66
7.91
6.12
4.13
1.84
-0.78
-3.62
-6.59
-9.54
-12.43
-15.24
-18.03
-20.91
-24.07
-27.77
-32.24
-37.56
-43.5
-49.33
-53.93
-56.01
-54.54
-49.16
-40.4
-29.52
-18.18
-7.84
0.61
6.94
11.49
14.79
17.24
19.04
20.24
20.9
21.28
21.75
22.76
24.55
27.07
29.93
32.57
34.5
35.45
35.49
34.9
34.03
33.11
32.2
31.17
29.82
27.98
25.57
22.65
19.41
16.12
13.03
10.34
8.03
6.0
4.03
1.89
-0.57
-3.37
-6.45
-9.63
-12.79
-15.85
-18.83
-21.89
-25.23
-29.13
-33.73
-39.05
-44.8
-50.33
-54.69
-56.76
-55.64
-50.92
-42.97
-32.83
-21.99
-11.81
-3.23
3.43
8.29
11.7
13.98
15.36
16.05
16.33
16.54
17.02
17.94
19.37
21.18
23.15
25.04
26.64
27.75
28.27
28.19
27.58
26.58
25.32
23.9
22.38
20.84
19.35
17.99
16.7
15.39
13.88
12.03
9.89
7.59
5.35
3.33
1.55
-0.11
-1.88
-3.98
-6.54
-9.58
-12.94
-16.43
-19.82
-22.97
-25.9
-28.84
-32.16
-36.29
-41.47
-47.53
-53.76
-58.95
-61.66
-60.73
-55.68
-47.0
-36.08
-24.71
-14.5
-6.42
-0.65
3.3
6.14
8.51
10.77
12.97
15.03
16.88
18.58
20.26
22.12
24.24
26.56
28.85
30.82
32.27
33.14
33.57
33.74
33.74
33.54
32.93
31.72
29.83
27.43
24.87
22.57
20.81
19.65
18.82
17.92
16.58
14.66
12.3
9.89
7.82
6.27
5.13
4.02
2.52
0.28
-2.7
-6.18
-9.77
-13.03
-15.77
-17.97
-19.88
-21.95
-24.67
-28.51
-33.77
-40.35
-47.69
-54.66
-59.73
-61.41
-58.8
-51.88
-41.7
-30.05
-18.82
-9.41
-2.45
2.31
5.52
7.84
9.65
11.02
11.94
12.51
12.99
13.78
15.08
16.9
18.89
20.67
21.96
22.69
23.01
23.15
23.25
23.31
23.25
22.96
22.37
21.53
20.5
19.41
18.35
17.39
16.47
15.46
14.18
12.54
10.62
8.64
6.85
5.36
4.0
2.43
0.29
-2.59
-6.04
-9.71
-13.2
-16.24
-18.81
-21.16
-23.68
-26.78
-30.8
-35.78
-41.36
-46.72
-50.66
-51.91
-49.56
-43.4
-34.06
-22.84
-11.34
-1.04
7.16
12.97
16.67
18.79
19.86
20.27
20.23
19.98
19.75
19.85
20.49
21.77
23.53
25.46
27.24
28.58
29.36
29.58
29.26
28.49
27.36
25.95
24.3
22.5
20.62
18.73
16.86
15.03
13.14
11.11
8.92
6.65
4.46
2.45
0.63
-1.18
-3.28
-5.92
-9.15
-12.81
-16.6
-20.24
-23.55
-26.56
-29.52
-32.78
-36.79
-41.85
-47.96
-54.59
-60.64
-64.66
-65.24
-61.5
-53.5
-42.3
-29.63
-17.33
-6.86
1.06
6.47
9.88
11.95
13.25
14.14
14.85
15.58
16.51
17.79
19.39
21.19
22.91
24.33
25.4
26.26
27.16
28.25
29.48
30.54
31.0
30.48
28.95
26.67
24.11
21.76
19.92
18.6
17.58
16.53
15.13
13.19
10.66
7.72
4.69
1.92
-0.33
-2.05
-3.46
-4.99
-7.01
-9.74
-13.07
-16.63
-20.0
-22.89
-25.28
-27.4
-29.71
-32.73
-36.9
-42.39
-48.94
-55.79
-61.74
-65.34
-65.33
-61.0
-52.6
-41.26
-28.76
-16.92
-7.11
0.07
4.83
7.79
9.72
11.17
12.51
13.93
15.52
17.38
19.48
21.72
23.88
25.73
27.16
28.22
29.01
29.75
30.56
31.44
32.29
32.8
32.66
31.61
29.61
26.92
23.98
21.24
18.97
17.15
15.58
13.99
12.25
10.38
8.5
6.71
5.05
3.41
1.66
-0.38
-2.86
-5.84
-9.31
-13.08
-16.88
-20.41
-23.52
-26.29
-29.03
-32.2
-36.24
-41.39
-47.49
-53.9
-59.48
-62.92
-62.96
-58.9
-50.88
-39.89
-27.58
-15.68
-5.58
2.07
7.32
10.71
12.87
14.28
15.17
15.69
16.01
16.43
17.27
18.68
20.59
22.72
24.71
26.36
27.65
28.75
29.8
30.79
31.53
31.7
31.09
29.67
27.64
25.32
23.04
20.97
19.13
17.44
15.76
14.07
12.39
10.74
9.12
7.42
5.49
3.2
0.52
-2.44
-5.47
-8.37
-11.01
-13.45
-15.87
-18.62
-22.06
-26.46
-31.95
-38.32
-44.95
-50.79
-54.56
-55.03
-51.49
-44.06
-33.74
-22.13
-10.93
-1.39
5.91
11.05
14.39
16.35
17.2
17.21
16.71
16.16
16.06
16.74
18.23
20.31
22.61
24.79
26.68
28.25
29.54
30.58
31.3
31.52
31.08
29.89
27.98
25.58
22.99
20.48
18.15
16.0
13.96
11.98
10.15
8.56
7.24
6.0
4.48
2.3
-0.78
-4.73
-9.22
-13.75
-17.89
-21.35
-24.16
-26.61
-29.16
-32.32
-36.57
-42.16
-48.98
-56.39
-63.29
-68.18
-69.61
-66.57
-58.96
-47.73
-34.59
-21.6
-10.41
-1.94
3.8
7.41
9.75
11.53
13.2
14.94
16.79
18.76
20.91
23.31
25.95
28.71
31.33
33.55
35.16
36.14
36.61
36.78
36.83
36.78
36.51
35.82
34.59
32.85
30.76
28.57
26.42
24.32
22.15
19.79
17.19
14.48
11.91
9.71
7.94
6.41
4.7
2.42
-0.68
-4.51
-8.76
-13.0
-16.93
-20.51
-23.86
-27.25
-30.97
-35.33
-40.55
-46.69
-53.45
-60.03
-65.09
-67.14
-65.0
-58.34
-47.89
-35.27
-22.38
-10.87
-1.66
5.09
9.75
12.89
15.03
16.55
17.72
18.75
19.81
21.07
22.57
24.32
26.22
28.17
30.04
31.74
33.19
34.34
35.17
35.57
35.39
34.49
32.78
30.39
27.57
24.7
22.06
19.78
17.81
16.02
14.26
12.47
10.64
8.81
6.97
5.05
2.96
0.58
-2.14
-5.19
-8.39
-11.46
-14.1
-16.17
-17.77
-19.3
-21.26
-24.21
-28.52
-34.24
-41.03
-48.03
-53.93
-57.24
-56.68
-51.67
-42.6
-30.8
-18.07
-6.18
3.7
11.06
16.01
18.94
20.31
20.54
20.0
19.13
18.42
18.33
19.18
21.07
23.77
26.85
29.73
31.92
33.15
33.42
32.99
32.16
31.16
29.99
28.53
26.54
23.9
20.67
17.11
13.57
10.4
7.81
5.81
4.19
2.6
0.74
-1.64
-4.57
-7.88
-11.27
-14.43
-17.19
-19.6
-21.95
-24.66
-28.17
-32.81
-38.71
-45.66
-53.05
-59.81
-64.54
-65.83
-62.76
-55.32
-44.51
-32.05
-19.85
-9.37
-1.23
4.67
8.87
11.95
14.29
16.07
17.36
18.26
18.96
19.74
20.88
22.52
24.64
27.1
29.57
31.77
33.46
34.55
35.05
34.97
34.3
33.0
31.07
28.65
25.97
23.31
20.82
18.56
16.44
14.4
12.41
10.46
8.55
6.62
4.53
2.12
-0.75
-4.14
-7.93
-11.9
-15.77
-19.29
-22.39
-25.2
-28.1
-31.58
-36.06
-41.79
-48.6
-55.84
-62.41
-66.86
-67.77
-64.23
-56.22
-44.76
-31.66
-18.91
-8.1
0.09
5.86
9.92
13.04
15.7
18.02
19.92
21.43
22.72
24.06
25.69
27.61
29.58
31.3
32.5
33.11
33.31
33.35
33.42
33.57
33.59
33.19
32.15
30.39
28.08
25.52
23.02
20.8
18.86
17.07
15.22
13.22
11.06
8.82
6.58
4.4
2.19
-0.15
-2.75
-5.64
-8.79
-12.08
-15.37
-18.52
-21.52
-24.48
-27.67
-31.45
-36.17
-41.99
-48.67
-55.5
-61.26
-64.53
-64.09
-59.34
-50.59
-39.03
-26.39
-14.42
-4.42
3.03
8.09
11.31
13.29
14.53
15.3
15.72
15.98
16.31
17.06
18.48
20.64
23.31
26.02
28.25
29.59
29.96
29.59
28.89
28.22
27.71
27.24
26.52
25.29
23.48
21.24
18.89
16.74
15.04
13.77
12.76
11.64
10.02
7.64
4.53
0.92
-2.74
-6.08
-8.91
-11.35
-13.68
-16.31
-19.6
-23.81
-29.11
-35.41
-42.25
-48.72
-53.5
-55.16
-52.69
-45.92
-35.67
-23.57
-11.45
-0.86
7.34
13.07
16.71
18.87
20.04
20.58
20.74
20.7
20.76
21.18
22.18
23.73
25.6
27.42
28.85
29.69
29.95
29.83
29.53
29.18
28.71
27.97
26.79
25.08
22.86
20.29
17.57
14.86
12.3
9.95
7.88
6.08
4.5
3.04
1.41
-0.7
-3.59
-7.32
-11.71
-16.3
-20.58
-24.16
-26.98
-29.32
-31.72
-34.78
-39.0
-44.62
-51.48
-58.92
-65.77
-70.55
-71.74
-68.4
-60.46
-48.93
-35.59
-22.38
-10.86
-1.82
4.71
9.23
12.35
14.59
16.27
17.66
19.0
20.53
22.38
24.5
26.7
28.68
30.22
31.26
31.93
32.41
32.89
33.41
33.85
34.0
33.65
32.67
31.05
28.94
26.54
24.1
21.85
19.9
18.25
16.76
15.26
13.63
11.89
10.09
8.29
6.43
4.33
1.79
-1.31
-4.93
-8.82
-12.66
-16.17
-19.26
-22.02
-24.68
-27.62
-31.28
-36.06
-42.14
-49.32
-56.79
-63.22
-66.98
-66.7
-61.73
-52.47
-40.24
-26.96
-14.58
-4.55
2.51
6.75
8.83
9.65
10.02
10.58
11.76
13.74
16.53
19.88
23.4
26.61
29.13
30.73
31.45
31.57
31.44
31.37
31.48
31.73
31.93
31.84
31.2
29.88
27.89
25.43
22.85
20.49
18.61
17.23
16.16
15.13
13.89
12.42
10.81
9.19
7.62
5.97
3.98
1.43
-1.74
-5.37
-9.17
-12.86
-16.22
-19.25
-22.13
-25.16
-28.65
-32.88
-38.05
-44.06
-50.48
-56.41
-60.61
-61.76
-58.91
-51.79
-41.1
-28.36
-15.47
-4.17
4.49
10.33
13.89
15.98
17.32
18.28
18.96
19.35
19.52
19.7
20.2
21.28
23.01
25.31
27.92
30.57
32.93
34.71
35.63
35.53
34.42
32.47
30.0
27.3
24.63
22.09
19.7
17.42
15.27
13.31
11.61
10.2
8.99
7.68
5.91
3.41
0.12
-3.74
-7.81
-11.75
-15.35
-18.67
-21.85
-25.09
-28.61
-32.64
-37.43
-43.15
-49.69
-56.38
-62.05
-65.22
-64.55
-59.44
-50.28
-38.36
-25.52
-13.5
-3.51
3.98
9.15
12.56
14.77
16.22
17.19
17.88
18.57
19.52
20.93
22.75
24.78
26.72
28.31
29.47
30.28
30.9
31.42
31.8
31.85
31.34
30.1
28.06
25.39
22.38
19.39
16.72
14.51
12.72
11.18
9.69
8.17
6.64
5.09
3.47
1.56
-0.88
-4.04
-7.83
-11.95
-15.96
-19.45
-22.26
-24.49
-26.55
-28.98
-32.35
-37.04
-43.1
-50.14
-57.28
-63.24
-66.54
-65.98
-61.02
-52.05
-40.27
-27.48
-15.45
-5.49
1.83
6.64
9.57
11.38
12.68
13.93
15.37
17.14
19.29
21.73
24.31
26.77
28.89
30.48
31.6
32.36
32.97
33.56
34.12
34.52
34.51
33.84
32.38
30.17
27.46
24.65
22.13
20.18
18.79
17.7
16.57
15.11
13.28
11.19
9.03
6.87
4.65
2.19
-0.7
-4.05
-7.76
-11.58
-15.31
-18.8
-22.0
-25.03
-28.11
-31.57
-35.75
-40.94
-47.11
-53.8
-60.07
-64.57
-66.0
-63.45
-56.81
-46.86
-35.08
-23.14
-12.47
-3.88
2.44
6.75
9.52
11.19
12.17
12.76
13.27
13.92
14.85
16.19
17.92
20.07
22.5
25.03
27.37
29.25
30.5
31.09
31.13
30.73
29.93
28.73
27.14
25.24
23.22
21.28
19.55
18.05
16.68
15.31
13.87
12.32
10.69
9.01
7.26
5.44
3.47
1.33
-1.04
-3.6
-6.31
-9.07
-11.78
-14.41
-17.01
-19.73
-22.78
-26.51
-31.16
-36.77
-42.92
-48.68
-52.7
-53.57
-50.37
-43.03
-32.46
-20.25
-8.23
2.15
10.04
15.31
18.31
19.57
19.61
18.85
17.67
16.44
15.63
15.61
16.62
18.64
21.35
24.27
26.97
29.12
30.61
31.44
31.68
31.35
30.43
28.93
26.93
24.52
21.87
19.12
16.44
13.89
11.56
9.45
7.56
5.76
3.91
1.87
-0.5
-3.22
-6.25
-9.44
-12.64
-15.76
-18.78
-21.69
-24.53
-27.35
-30.35
-33.87
-38.34
-44.05
-50.75
-57.5
-62.71
-64.66
-62.11
-54.88
-43.93
-31.09
-18.43
-7.54
0.79
6.63
10.52
13.08
14.79
15.84
16.41
16.72
17.11
17.95
19.44
21.45
23.65
25.61
27.09
28.15
29.05
30.01
31.04
31.87
32.06
31.22
29.27
26.49
23.41
20.61
18.44
16.92
15.78
14.62
13.1
11.1
8.74
6.23
3.83
1.69
-0.2
-2.0
-3.9
-6.14
-8.79
-11.81
-15.04
-18.24
-21.26
-24.1
-26.93
-30.05
-33.85
-38.62
-44.4
-50.88
-57.29
-62.41
-64.86
-63.47
-57.7
-47.95
-35.6
-22.51
-10.55
-1.01
5.68
9.91
12.5
14.3
15.85
17.36
18.78
20.07
21.29
22.62
24.25
26.16
28.22
30.17
31.75
32.9
33.68
34.17
34.46
34.46
34.0
32.89
31.06
28.65
26.03
23.61
21.62
20.1
18.76
17.2
15.1
12.45
9.51
6.71
4.41
2.64
1.13
-0.61
-2.98
-6.14
-9.9
-13.85
-17.55
-20.75
-23.45
-25.89
-28.43
-31.46
-35.32
-40.22
-46.14
-52.62
-58.73
-63.1
-64.29
-61.26
-53.86
-42.98
-30.26
-17.59
-6.48
2.26
8.53
12.68
15.19
16.45
16.8
16.57
16.2
16.2
16.93
18.53
20.81
23.41
25.89
27.94
29.46
30.47
31.09
31.34
31.19
30.6
29.59
28.27
26.77
25.17
23.45
21.48
19.13
16.48
13.71
11.15
9.0
7.28
5.81
4.29
2.46
0.2
-2.39
-5.18
-8.02
-10.87
-13.76
-16.79
-20.03
-23.57
-27.49
-31.95
-37.12
-42.96
-49.07
-54.54
-58.06
-58.27
-54.32
-46.28
-35.17
-22.77
-10.86
-0.83
6.7
11.83
14.97
16.69
17.36
17.28
16.76
16.15
15.81
16.1
17.15
18.9
21.11
23.43
25.53
27.2
28.36
29.01
29.22
28.99
28.31
27.12
25.42
23.29
20.86
18.31
15.78
13.37
11.11
8.98
6.97
5.09
3.31
1.65
0.0
-1.73
-3.66
-5.9
-8.46
-11.31
-14.33
-17.41
-20.45
-23.42
-26.46
-29.81
-33.87
-39.01
-45.41
-52.72
-60.03
-65.91
-68.76
-67.36
-61.3
-51.26
-38.75
-25.7
-13.84
-4.31
2.58
7.14
10.06
12.05
13.66
15.13
16.55
17.93
19.33
20.87
22.64
24.64
26.75
28.79
30.57
32.0
33.12
33.94
34.46
34.52
33.92
32.57
30.57
28.18
25.8
23.72
22.01
20.54
19.07
17.39
15.42
13.2
10.82
8.36
5.83
3.21
0.5
-2.29
-5.11
-7.96
-10.9
-14.0
-17.31
-20.82
-24.53
-28.5
-32.91
-38.04
-44.04
-50.71
-57.36
-62.77
-65.53
-64.47
-59.13
-49.97
-38.3
-25.91
-14.44
-5.09
1.77
6.35
9.25
11.12
12.47
13.6
14.66
15.75
16.96
18.37
20.07
22.02
24.13
26.23
28.16
29.82
31.14
32.14
32.78
33.04
32.82
32.04
30.66
28.76
26.49
24.05
21.6
19.22
16.95
14.83
12.87
11.06
9.36
7.62
5.63
3.22
0.41
-2.67
-5.74
-8.5
-10.79
-12.7
-14.51
-16.65
-19.53
-23.43
-28.43
-34.27
-40.37
-45.74
-49.15
-49.39
-45.7
-38.12
-27.59
-15.73
-4.31
5.28
12.38
17.04
19.77
21.09
21.38
20.81
19.59
18.09
16.84
16.41
17.14
19.05
21.73
24.58
27.09
28.92
30.04
30.56
30.63
30.26
29.41
27.98
25.99
23.57
20.92
18.23
15.62
13.11
10.73
8.48
6.38
4.37
2.35
0.12
-2.49
-5.6
-9.19
-13.05
-16.89
-20.43
-23.47
-26.05
-28.46
-31.2
-34.86
-39.9
-46.39
-53.8
-60.9
-66.06
-67.64
-64.66
-57.09
-45.99
-33.17
-20.57
-9.71
-1.37
4.49
8.32
10.74
12.23
13.18
13.83
14.45
15.32
16.67
18.6
21.04
23.7
26.25
28.34
29.84
30.79
31.38
31.8
32.13
32.29
32.06
31.21
29.64
27.35
24.51
21.35
18.11
15.02
12.25
9.87
7.86
6.02
4.11
1.86
-0.82
-3.93
-7.3
-10.67
-13.85
-16.72
-19.31
-21.8
-24.47
-27.74
-32.03
-37.67
-44.65
-52.36
-59.61
-64.74
-66.18
-62.96
-55.15
-43.85
-30.89
-18.22
-7.28
1.18
7.24
11.41
14.33
16.53
18.28
19.74
20.96
22.01
22.99
23.99
25.13
26.49
28.05
29.77
31.53
33.17
34.57
35.59
36.16
36.22
35.73
34.65
33.0
30.84
28.24
25.36
22.38
19.41
16.52
13.7
10.88
7.99
5.05
2.1
-0.77
-3.52
-6.17
-8.83
-11.55
-14.36
-17.17
-19.86
-22.36
-24.73
-27.22
-30.25
-34.27
-39.52
-45.76
-52.19
-57.45
-60.02
-58.72
-53.14
-43.85
-32.25
-20.03
-8.7
0.78
8.11
13.4
16.97
19.14
20.18
20.4
20.19
19.99
20.23
21.21
22.97
25.31
27.81
29.95
31.38
31.94
31.81
31.37
30.99
30.89
30.94
30.75
29.82
27.89
25.0
21.61
18.34
15.73
13.96
12.82
11.81
10.42
8.34
5.57
2.35
-0.98
-4.12
-6.98
-9.56
-12.06
-14.74
-17.96
-22.07
-27.32
-33.63
-40.46
-46.71
-50.98
-51.93
-48.76
-41.55
-31.32
-19.67
-8.32
1.42
8.89
14.06
17.27
18.92
19.38
18.94
17.95
16.82
16.04
16.03
17.01
18.91
21.42
24.09
26.48
28.33
29.46
29.91
29.75
29.07
27.97
26.49
24.68
22.57
20.21
17.64
14.97
12.33
9.88
7.77
6.01
4.46
2.84
0.84
-1.75
-4.95
-8.59
-12.34
-15.85
-18.92
-21.51
-23.83
-26.26
-29.25
-33.28
-38.64
-45.34
-52.91
-60.32
-66.07
-68.62
-66.77
-60.21
-49.69
-36.84
-23.69
-12.01
-2.87
3.58
7.81
10.65
12.78
14.64
16.39
18.04
19.6
21.16
22.84
24.68
26.61
28.43
29.95
31.12
32.0
32.82
33.64
34.44
34.94
34.8
33.74
31.65
28.69
25.22
21.71
18.66
16.44
15.14
14.51
14.1
13.36
11.96
9.9
7.55
5.39
3.69
2.4
1.11
-0.69
-3.3
-6.69
-10.5
-14.29
-17.73
-20.79
-23.69
-26.86
-30.7
-35.53
-41.44
-48.22
-55.3
-61.64
-65.95
-66.91
-63.66
-56.13
-45.21
-32.48
-19.8
-8.64
0.18
6.63
11.14
14.27
16.39
17.74
18.42
18.63
18.74
19.16
20.21
21.97
24.22
26.58
28.64
30.19
31.21
31.86
32.27
32.5
32.38
31.69
30.3
28.27
25.91
23.63
21.74
20.29
19.08
17.67
15.79
13.33
10.54
7.85
5.63
3.99
2.76
1.51
-0.15
-2.49
-5.52
-9.03
-12.74
-16.35
-19.7
-22.77
-25.7
-28.75
-32.23
-36.45
-41.5
-47.16
-52.71
-57.03
-58.84
-57.06
-51.22
-41.7
-29.73
-16.99
-5.15
4.6
11.74
16.38
18.99
20.11
20.23
19.78
19.14
18.71
18.85
19.78
21.52
23.9
26.63
29.36
31.75
33.52
34.52
34.69
34.1
32.92
31.32
29.48
27.51
25.49
23.49
21.54
19.62
17.69
15.61
13.26
10.64
7.88
5.19
2.74
0.55
-1.59
-3.93
-6.74
-10.03
-13.63
-17.24
-20.6
-23.65
-26.56
-29.66
-33.37
-38.05
-43.81
-50.4
-57.08
-62.58
-65.46
-64.48
-59.07
-49.69
-37.73
-25.04
-13.36
-3.84
3.25
8.19
11.6
13.94
15.5
16.42
16.86
17.1
17.48
18.33
19.8
21.78
24.01
26.16
28.02
29.49
30.59
31.35
31.7
31.49
30.59
29.0
26.84
24.39
21.99
19.89
18.14
16.68
15.3
13.72
11.8
9.51
7.03
4.62
2.52
0.72
-1.0
-3.05
-5.72
-9.12
-13.0
-16.99
-20.74
-24.12
-27.29
-30.56
-34.34
-38.98
-44.6
-51.06
-57.71
-63.44
-66.76
-66.33
-61.36
-52.08
-39.73
-26.22
-13.52
-3.01
4.77
10.04
13.46
15.68
17.1
17.94
18.41
18.78
19.45
20.76
22.81
25.41
28.13
30.49
32.19
33.16
33.49
33.39
33.03
32.48
31.72
30.65
29.16
27.23
24.96
22.56
20.32
18.36
16.68
15.1
13.39
11.41
9.25
7.07
5.06
3.27
1.52
-0.44
-2.89
-5.91
-9.41
-13.08
-16.64
-19.87
-22.75
-25.48
-28.33
-31.71
-35.95
-41.27
-47.48
-53.92
-59.37
-62.34
-61.55
-56.42
-47.39
-35.84
-23.58
-12.26
-2.91
4.19
9.27
12.76
14.99
16.14
16.37
15.94
15.29
14.94
15.35
16.7
18.88
21.48
24.02
26.09
27.51
28.34
28.75
28.93
28.93
28.64
27.86
26.41
24.25
21.5
18.39
15.28
12.45
10.1
8.21
6.63
5.03
3.1
0.62
-2.39
-5.75
-9.15
-12.3
-15.06
-17.49
-19.86
-22.59
-26.09
-30.71
-36.53
-43.12
-49.55
-54.43
-56.35
-54.27
-47.99
-38.25
-26.51
-14.52
-3.76
4.85
11.06
15.11
17.42
18.47
18.62
18.17
17.41
16.67
16.36
16.8
18.13
20.24
22.69
24.93
26.52
27.32
27.5
27.39
27.25
27.06
26.54
25.31
23.14
20.1
16.59
13.09
10.04
7.65
5.84
4.29
2.59
0.41
-2.46
-5.97
-9.89
-13.87
-17.61
-20.9
-23.76
-26.39
-29.26
-32.88
-37.72
-43.94
-51.1
-58.14
-63.51
-65.6
-63.27
-56.32
-45.65
-32.91
-20.02
-8.58
0.55
7.26
12.0
15.34
17.77
19.59
20.93
21.93
22.79
23.72
24.93
26.47
28.2
29.93
31.4
32.48
33.12
33.39
33.4
33.2
32.75
31.93
30.61
28.69
26.19
23.32
20.35
17.58
15.21
13.28
11.6
9.86
7.71
4.9
1.44
-2.49
-6.48
-10.22
-13.5
-16.37
-19.06
-21.9
-25.22
-29.34
-34.48
-40.72
-47.79
-54.96
-61.0
-64.37
-63.76
-58.56
-49.23
-37.21
-24.46
-12.81
-3.4
3.49
8.28
11.69
14.29
16.36
17.93
18.98
19.65
20.2
21.0
22.27
24.0
25.92
27.71
29.06
29.84
30.08
29.97
29.72
29.53
29.47
29.44
29.18
28.41
26.86
24.5
21.52
18.27
15.17
12.48
10.27
8.35
6.41
4.1
1.22
-2.2
-5.94
-9.67
-13.07
-15.98
-18.45
-20.76
-23.32
-26.56
-30.9
-36.53
-43.33
-50.66
-57.35
-61.88
-62.76
-59.09
-50.92
-39.36
-26.21
-13.4
-2.4
6.09
12.13
16.22
18.87
20.44
21.1
20.99
20.41
19.88
20.01
21.22
23.58
26.79
30.17
33.05
34.99
35.9
36.02
35.68
35.16
34.47
33.43
31.76
29.28
26.1
22.56
19.11
16.18
13.95
12.31
10.96
9.48
7.58
5.07
1.93
-1.7
-5.59
-9.46
-13.08
-16.29
-19.17
-21.97
-25.2
-29.41
-35.0
-41.86
-49.26
-55.83
-59.89
-60.07
-55.7
-47.22
-35.94
-23.62
-11.87
-1.77
6.25
12.28
16.56
19.38
21.0
21.71
21.93
22.14
22.76
24.0
25.78
27.86
29.93
31.74
33.18
34.23
34.91
35.25
35.19
34.69
33.67
32.14
30.15
27.82
25.31
22.74
20.18
17.63
15.06
12.46
9.93
7.67
5.82
4.39
3.09
1.54
-0.67
-3.69
-7.37
-11.33
-15.2
-18.78
-22.06
-25.23
-28.52
-32.11
-36.29
-41.3
-47.34
-54.23
-61.22
-66.9
-69.61
-67.94
-61.39
-50.64
-37.36
-23.67
-11.4
-1.62
5.46
10.28
13.52
15.78
17.43
18.69
19.75
20.81
22.1
23.77
25.81
28.04
