0
20.46
21.03
20.92
20.03
18.39
16.13
13.52
10.89
8.56
6.71
5.33
4.17
2.88
1.2
-0.91
-3.18
-5.25
-6.78
-7.75
-8.45
-9.36
-10.99
-13.62
-17.17
-21.28
-25.29
-28.4
-29.83
-28.96
-25.5
-19.62
-11.88
-3.15
5.65
13.66
20.29
25.08
27.8
28.37
26.92
23.85
19.8
15.59
11.99
9.6
8.69
9.18
10.76
12.97
15.36
17.59
19.45
20.78
21.52
21.62
21.08
19.95
18.34
16.36
14.17
11.86
9.5
7.1
4.63
2.08
-0.52
-3.07
-5.42
-7.44
-9.1
-10.53
-11.98
-13.73
-16.0
-18.94
-22.47
-26.35
-30.1
-33.04
-34.38
-33.43
-29.82
-23.69
-15.68
-6.77
1.96
9.6
15.6
19.69
21.84
22.16
20.88
18.33
14.96
11.31
7.94
5.32
3.82
3.57
4.49
6.28
8.5
10.68
12.48
13.73
14.45
14.74
14.71
14.38
13.7
12.62
11.13
9.26
7.08
4.65
2.0
-0.77
-3.55
-6.13
-8.35
-10.1
-11.42
-12.45
-13.47
-14.77
-16.61
-19.13
-22.23
-25.47
-28.13
-29.4
-28.58
-25.37
-19.98
-13.07
-5.49
1.88
8.38
13.53
17.06
18.83
18.84
17.27
14.48
11.0
7.44
4.37
2.23
1.22
1.29
2.18
3.43
4.63
5.48
5.93
6.07
6.08
6.06
5.96
5.58
4.73
3.28
1.3
-1.03
-3.42
-5.63
-7.55
-9.16
-10.61
-12.08
-13.73
-15.71
-18.08
-20.84
-23.93
-27.13
-30.04
-32.08
-32.54
-30.84
-26.73
-20.53
-13.04
-5.37
1.48
6.86
10.58
12.78
13.7
13.47
12.15
9.83
6.78
3.56
0.79
-0.98
-1.55
-1.02
0.21
1.71
3.14
4.31
5.22
5.86
6.25
6.32
5.94
4.91
3.1
0.5
-2.71
-6.16
-9.43
-12.2
-14.39
-16.16
-17.81
-19.64
-21.86
-24.54
-27.66
-31.11
-34.61
-37.62
-39.39
-39.12
-36.19
-30.51
-22.57
-13.37
-4.09
4.23
10.9
15.6
18.36
19.35
18.8
17.02
14.35
11.24
8.13
5.51
3.73
2.99
3.28
4.42
6.1
7.93
9.58
10.8
11.46
11.55
11.11
10.2
8.85
7.11
5.04
2.74
0.3
-2.23
-4.86
-7.59
-10.37
-13.09
-15.57
-17.73
-19.64
-21.65
-24.15
-27.45
-31.54
-35.97
-39.91
-42.38
-42.47
-39.63
-33.79
-25.5
-15.74
-5.74
3.3
10.52
15.53
18.35
19.29
18.77
17.26
15.21
13.11
11.46
10.61
10.75
11.77
13.34
15.07
16.65
17.95
18.98
19.77
20.31
20.47
20.1
19.13
17.57
15.6
13.43
11.23
9.04
6.77
4.32
1.63
-1.24
-4.08
-6.73
-9.06
-11.12
-13.06
-15.07
-17.36
-20.11
-23.5
-27.55
-32.03
-36.36
-39.59
-40.64
-38.67
-33.43
-25.36
-15.48
-5.05
4.77
13.18
19.74
24.32
26.95
27.73
26.88
24.79
22.04
19.34
17.34
16.47
16.78
17.99
19.61
21.17
22.38
23.23
23.92
24.61
25.34
25.92
26.03
25.38
23.8
21.36
18.35
15.14
12.07
9.32
6.9
4.65
2.43
0.16
-2.11
-4.22
-6.05
-7.54
-8.77
-9.91
-11.23
-13.01
-15.48
-18.81
-22.99
-27.72
-32.36
-35.98
-37.65
-36.59
-32.57
-25.82
-17.12
-7.43
2.23
10.98
18.15
23.31
26.28
27.11
26.06
23.55
20.14
16.49
13.27
11.15
10.54
11.54
13.83
16.75
19.6
21.86
23.32
24.08
24.4
24.45
24.24
23.64
22.51
20.77
18.5
15.87
13.14
10.57
8.28
6.32
4.56
2.8
0.84
-1.41
-3.88
-6.35
-8.61
-10.56
-12.26
-13.9
-15.73
-17.98
-20.8
-24.23
-28.08
-31.94
-35.09
-36.66
-35.88
-32.31
-26.11
-18.0
-9.06
-0.37
7.25
13.36
17.81
20.56
21.59
20.91
18.79
15.76
12.58
10.01
8.47
8.06
8.51
9.5
10.81
12.39
14.27
16.35
18.41
20.06
20.94
20.81
19.63
17.53
14.75
11.63
8.5
5.66
3.25
1.24
-0.58
-2.43
-4.47
-6.69
-9.0
-11.27
-13.46
-15.59
-17.75
-19.99
-22.42
-25.12
-28.18
-31.56
-34.9
-37.55
-38.6
-37.26
-33.11
-26.29
-17.52
-7.82
1.67
10.01
16.5
20.75
22.66
22.46
20.55
17.52
14.01
10.68
8.07
6.58
6.37
7.34
9.13
11.25
13.25
14.87
16.07
16.94
17.56
17.9
17.8
17.06
15.6
13.52
11.07
8.49
5.95
3.49
1.04
-1.48
-4.14
-6.92
-9.77
-12.58
-15.24
-17.65
-19.79
-21.79
-23.93
-26.54
-29.9
-33.98
-38.31
-42.04
-44.09
-43.53
-39.88
-33.24
-24.34
-14.26
-4.23
4.73
11.87
16.88
19.73
20.68
20.09
18.39
16.03
13.51
11.32
9.93
9.61
10.38
11.95
13.85
15.64
17.09
18.18
19.1
19.99
20.85
21.48
21.55
20.78
19.02
16.37
13.14
9.75
6.63
4.06
2.1
0.56
-0.92
-2.68
-4.89
-7.49
-10.22
-12.8
-15.03
-16.92
-18.59
-20.26
-22.15
-24.46
-27.36
-30.84
-34.62
-38.07
-40.28
-40.32
-37.55
-31.86
-23.72
-14.06
-3.99
5.47
13.53
19.62
23.47
25.05
24.57
22.44
19.28
15.81
12.71
10.56
9.71
10.19
11.73
13.85
16.03
17.87
19.19
20.0
20.4
20.47
20.21
19.6
18.61
17.25
15.61
13.76
11.79
9.78
7.79
5.83
3.82
1.65
-0.8
-3.54
-6.4
-9.11
-11.37
-13.09
-14.36
-15.46
-16.71
-18.44
-20.87
-24.16
-28.24
-32.81
-37.13
-40.19
-40.91
-38.59
-33.13
-25.2
-15.92
-6.53
1.95
8.95
14.24
17.79
19.7
20.12
19.28
17.54
15.36
13.2
11.44
10.33
10.01
10.47
11.62
13.23
15.07
16.89
18.5
19.79
20.65
20.91
20.37
18.86
16.4
13.25
9.94
7.0
4.76
3.18
1.92
0.53
-1.27
-3.52
-6.03
-8.59
-11.11
-13.63
-16.23
-18.98
-21.88
-24.95
-28.23
-31.71
-35.14
-38.03
-39.61
-39.15
-36.18
-30.72
-23.25
-14.56
-5.52
3.08
10.62
16.61
20.73
22.84
23.01
21.5
18.72
15.22
11.62
8.52
6.46
5.78
6.52
8.41
10.99
13.72
16.12
17.86
18.79
18.84
18.07
16.56
14.47
12.02
9.46
7.01
4.85
3.02
1.37
-0.35
-2.46
-5.14
-8.39
-11.92
-15.32
-18.2
-20.37
-22.0
-23.52
-25.53
-28.47
-32.43
-37.05
-41.45
-44.44
-44.88
-41.97
-35.61
-26.44
-15.72
-4.86
4.9
12.81
18.59
22.28
24.05
24.1
22.67
20.17
17.19
14.44
12.52
11.76
12.11
13.25
14.75
16.3
17.75
19.11
20.33
21.34
21.99
22.1
21.6
20.46
18.76
16.56
13.94
11.02
7.94
4.94
2.17
-0.33
-2.7
-5.15
-7.87
-10.85
-13.93
-16.82
-19.38
-21.66
-23.94
-26.54
-29.73
-33.51
-37.54
-41.21
-43.66
-44.04
-41.7
-36.44
-28.66
-19.24
-9.32
0.06
8.21
14.79
19.74
23.02
24.54
24.26
22.36
19.34
15.94
12.98
11.04
10.39
10.97
12.49
14.62
16.99
19.29
21.25
22.7
23.6
23.93
23.68
22.78
21.14
18.78
15.94
12.99
10.33
8.17
6.38
4.61
2.44
-0.37
-3.76
-7.42
-10.91
-13.9
-16.21
-17.93
-19.3
-20.71
-22.57
-25.21
-28.72
-32.84
-36.93
-40.01
-41.06
-39.3
-34.45
-26.89
-17.51
-7.49
2.01
10.1
16.28
20.36
22.43
22.67
21.43
19.13
16.28
13.48
11.32
10.2
10.3
11.44
13.2
15.1
16.76
18.08
19.15
20.07
20.82
21.2
20.9
19.75
17.78
15.32
12.74
10.3
8.03
5.78
3.37
0.69
-2.14
-4.93
-7.49
-9.7
-11.58
-13.22
-14.76
-16.43
-18.51
-21.26
-24.72
-28.64
-32.29
-34.69
-34.87
-32.24
-26.8
-19.2
-10.44
-1.64
6.31
12.8
17.55
20.46
21.61
21.16
19.4
16.77
13.77
10.95
8.8
7.61
7.51
8.38
9.93
11.85
13.8
15.53
16.85
17.66
17.9
17.55
16.66
15.31
13.6
11.61
9.36
6.86
4.11
1.19
-1.77
-4.64
-7.31
-9.75
-12.06
-14.4
-16.93
-19.8
-23.13
-26.87
-30.76
-34.27
-36.6
-36.9
-34.55
-29.46
-22.1
-13.43
-4.5
3.8
10.95
16.75
21.15
24.05
25.33
24.93
23.03
20.1
16.81
13.83
11.65
10.47
10.26
10.84
11.92
13.25
14.63
15.87
16.8
17.27
17.15
16.3
14.72
12.51
9.89
7.14
4.49
2.05
-0.23
-2.47
-4.81
-7.31
-9.93
-12.65
-15.49
-18.5
-21.82
-25.53
-29.66
-34.04
-38.27
-41.72
-43.57
-43.04
-39.67
-33.47
-25.06
-15.47
-5.83
2.88
10.09
15.58
19.39
21.61
22.39
21.86
20.27
18.02
15.6
13.53
12.23
11.93
12.61
14.07
15.97
18.0
19.89
21.49
22.68
23.35
23.32
22.45
20.69
18.2
15.3
12.38
9.69
7.23
4.77
2.01
-1.21
-4.79
-8.41
-11.68
-14.36
-16.53
-18.46
-20.55
-23.15
-26.49
-30.6
-35.3
-40.09
-44.11
-46.31
-45.67
-41.63
-34.37
-24.78
-14.23
-4.06
4.78
11.89
17.23
20.97
23.19
23.9
23.2
21.34
18.8
16.22
14.19
13.15
13.25
14.4
16.29
18.54
20.77
22.7
24.2
25.2
25.68
25.57
24.77
23.22
20.96
18.22
15.33
12.63
10.29
8.23
6.18
3.82
0.97
-2.27
-5.59
-8.64
-11.18
-13.21
-14.95
-16.78
-19.09
-22.15
-26.11
-30.79
-35.75
-40.16
-42.99
-43.28
-40.45
-34.49
-26.0
-16.06
-5.84
3.63
11.61
17.67
21.62
23.49
23.47
21.93
19.4
16.52
13.94
12.19
11.57
12.09
13.5
15.38
17.35
19.17
20.81
22.35
23.77
24.91
25.41
24.92
23.27
20.59
17.3
13.93
10.91
8.43
6.43
4.66
2.82
0.7
-1.74
-4.41
-7.09
-9.52
-11.56
-13.18
-14.6
-16.14
-18.17
-20.95
-24.52
-28.62
-32.67
-35.87
-37.4
-36.57
-33.07
-27.07
-19.19
-10.32
-1.42
6.73
13.6
18.87
22.39
24.03
23.74
21.65
18.19
14.09
10.24
7.44
6.17
6.44
7.91
10.06
12.4
14.59
16.43
17.8
18.57
18.6
17.8
16.26
14.22
12.03
9.98
8.16
6.43
4.49
2.0
-1.13
-4.78
-8.55
-11.94
-14.58
-16.34
-17.39
-18.16
-19.19
-20.93
-23.69
-27.44
-31.78
-35.92
-38.76
-39.22
-36.52
-30.54
-21.9
-11.84
-1.8
6.96
13.68
18.16
20.58
21.26
20.49
18.53
15.69
12.42
9.31
6.91
5.64
5.6
6.62
8.35
10.39
12.39
14.13
15.48
16.34
16.66
16.4
15.55
14.2
12.41
10.33
8.05
5.67
3.21
0.66
-2.03
-4.92
-7.98
-11.1
-14.12
-16.86
-19.25
-21.38
-23.46
-25.8
-28.71
-32.38
-36.74
-41.35
-45.38
-47.71
-47.33
-43.63
-36.73
-27.45
-17.04
-6.78
2.38
9.94
15.7
19.65
21.75
22.06
20.79
18.37
15.45
12.65
10.46
9.07
8.48
8.55
9.16
10.23
11.73
13.54
15.49
17.27
18.56
19.06
18.62
17.31
15.35
13.07
10.73
8.51
6.39
4.26
1.98
-0.57
-3.39
-6.38
-9.38
-12.23
-14.81
-17.1
-19.2
-21.31
-23.72
-26.7
-30.33
-34.38
-38.2
-40.88
-41.46
-39.25
-34.08
-26.42
-17.16
-7.43
1.75
9.61
15.75
20.01
22.42
23.13
22.36
20.47
17.94
15.31
13.12
11.81
11.6
12.45
14.1
16.18
18.31
20.23
21.79
22.9
23.49
23.47
22.73
21.3
19.3
16.95
14.5
12.17
9.99
7.89
5.68
3.15
0.18
-3.23
-6.87
-10.41
-13.5
-15.94
-17.77
-19.29
-20.97
-23.27
-26.43
-30.37
-34.6
-38.31
-40.54
-40.36
-37.22
-31.14
-22.72
-13.04
-3.32
5.41
12.53
17.82
21.34
23.16
23.39
22.16
19.78
16.79
13.86
11.61
10.42
10.35
11.2
12.64
14.34
16.08
17.72
19.17
20.32
20.99
21.02
20.27
18.74
16.56
13.99
11.33
8.8
6.5
4.32
2.11
-0.31
-2.99
-5.81
-8.55
-10.97
-12.94
-14.54
-16.01
-17.7
-19.93
-22.84
-26.27
-29.67
-32.25
-33.12
-31.61
-27.47
-20.95
-12.83
-4.13
4.16
11.27
16.83
20.75
23.09
23.91
23.28
21.25
18.1
14.32
10.56
7.49
5.62
5.16
6.01
7.87
10.29
12.82
15.02
16.54
17.19
16.95
15.96
14.46
12.66
10.68
8.52
6.14
3.51
0.71
-2.14
-4.9
-7.46
-9.79
-11.96
-14.03
-16.12
-18.32
-20.76
-23.56
-26.82
-30.54
-34.48
-38.1
-40.61
-41.13
-39.01
-34.08
-26.74
-17.87
-8.59
0.16
7.69
13.68
18.01
20.63
21.57
20.92
18.97
16.2
13.2
10.56
8.67
7.76
7.87
8.94
10.8
13.22
15.81
18.13
19.75
20.36
19.92
18.62
16.81
14.85
12.97
11.23
9.53
7.67
5.53
2.99
0.07
-3.13
-6.42
-9.53
-12.23
-14.39
-16.04
-17.48
-19.2
-21.69
-25.29
-29.89
-34.91
-39.28
-41.75
-41.3
-37.47
-30.53
-21.38
-11.29
-1.49
7.12
14.03
19.06
22.19
23.44
22.94
20.98
18.1
15.04
12.54
11.16
11.07
12.08
13.81
15.85
17.93
19.89
21.65
23.11
24.1
24.47
24.07
22.92
21.09
18.77
16.17
13.54
11.09
8.97
7.2
5.61
3.96
1.97
-0.45
-3.16
-5.87
-8.27
-10.21
-11.82
-13.38
-15.33
-18.01
-21.61
-26.03
-30.85
-35.36
-38.65
-39.81
-38.2
-33.67
-26.6
-17.9
-8.7
-0.04
7.32
13.02
17.03
19.48
20.58
20.49
19.39
17.52
15.25
13.01
11.27
10.38
10.45
11.37
12.84
14.55
16.26
17.85
19.21
20.2
20.62
20.22
18.91
16.82
14.25
11.62
9.26
7.33
5.75
4.35
2.94
1.4
-0.33
-2.27
-4.37
-6.54
-8.63
-10.53
-12.17
-13.64
-15.17
-17.04
-19.45
-22.49
-25.94
-29.33
-31.95
-32.99
-31.82
-28.12
-22.09
-14.41
-6.07
1.95
8.85
14.19
17.83
19.78
20.15
19.11
17.0
14.28
11.61
9.55
8.48
8.49
9.39
10.83
12.51
14.2
15.77
17.12
18.13
18.66
18.64
18.03
16.9
15.29
13.29
10.93
8.29
5.52
2.73
0.04
-2.54
-5.05
-7.48
-9.74
-11.72
-13.33
-14.66
-15.98
-17.73
-20.24
-23.6
-27.56
-31.49
-34.56
-35.94
-34.98
-31.45
-25.55
-17.93
-9.47
-1.04
6.65
13.14
18.19
21.66
23.47
23.67
22.47
20.3
17.69
15.21
13.24
11.97
11.42
11.52
12.19
13.26
14.52
15.65
16.3
16.19
15.25
13.6
11.49
9.24
7.07
5.03
3.05
1.0
-1.27
-3.75
-6.32
-8.8
-11.04
-12.98
-14.76
-16.58
-18.67
-21.18
-24.14
-27.47
-30.92
-34.08
-36.39
-37.16
-35.79
-31.95
-25.75
-17.78
-9.0
-0.46
6.97
12.76
16.73
18.94
19.59
18.94
17.33
15.14
12.83
10.87
9.57
9.06
9.28
10.04
11.1
12.31
13.55
14.68
15.55
15.97
15.78
14.93
13.48
11.56
9.36
7.01
4.63
2.3
0.08
-2.0
-4.01
-6.05
-8.23
-10.62
-13.14
-15.69
-18.17
-20.63
-23.22
-26.16
-29.6
-33.4
-37.14
-40.1
-41.48
-40.57
-37.01
-30.93
-22.96
-14.05
-5.26
2.56
8.86
13.45
16.4
17.82
17.88
16.76
14.77
12.35
10.07
8.43
7.71
7.92
8.84
10.16
11.61
13.07
14.46
15.78
16.96
17.83
18.21
17.98
17.06
15.55
13.66
11.69
9.91
8.47
7.3
6.16
4.71
2.7
0.08
-2.99
-6.19
-9.18
-11.77
-14.0
-16.13
-18.56
-21.71
-25.82
-30.85
-36.3
-41.3
-44.7
-45.45
-42.85
-36.84
-28.01
-17.43
-6.38
3.93
12.64
19.25
23.62
25.92
26.48
25.71
24.05
21.92
19.76
17.94
16.75
16.36
16.77
17.74
18.92
19.94
20.6
20.9
21.0
21.05
21.06
20.85
20.13
18.7
16.64
14.27
12.04
10.29
9.11
8.28
7.45
6.28
4.58
2.37
-0.18
-2.83
-5.36
-7.66
-9.73
-11.74
-13.98
-16.75
-20.22
-24.36
-28.8
-32.87
-35.75
-36.63
-34.95
-30.62
-24.03
-15.97
-7.44
0.59
7.43
12.67
16.13
17.87
17.99
16.78
14.65
12.16
9.89
8.33
7.68
7.94
8.9
10.28
11.88
13.54
15.18
16.69
17.91
18.65
18.71
17.99
16.48
14.31
11.73
9.05
6.6
4.59
3.05
1.8
0.5
-1.13
-3.22
-5.66
-8.17
-10.45
-12.35
-13.91
-15.35
-16.96
-19.0
-21.63
-24.85
-28.4
-31.71
-33.99
-34.32
-32.04
-27.01
-19.72
-11.23
-2.71
4.86
10.94
15.39
18.27
19.65
19.57
18.1
15.56
12.48
9.56
7.38
6.29
6.31
7.22
8.7
10.42
12.13
13.6
14.68
15.23
15.21
14.63
13.54
11.98
10.05
7.88
5.65
3.54
1.64
-0.16
-2.05
-4.22
-6.7
-9.33
-11.82
-13.91
-15.53
-16.86
-18.22
-19.99
-22.44
-25.66
-29.45
-33.29
-36.38
-37.79
-36.76
-32.97
-26.66
-18.63
-9.96
-1.65
5.57
11.36
15.59
18.2
19.2
18.64
16.77
14.01
11.01
8.37
6.59
5.93
6.35
7.65
9.47
11.44
13.3
14.88
16.13
17.03
17.53
17.51
16.84
15.42
13.32
10.77
8.09
5.53
3.24
1.15
-0.91
-3.1
-5.5
-8.09
-10.75
-13.29
-15.53
-17.38
-18.86
-20.18
-21.67
-23.72
-26.65
-30.52
-35.0
-39.37
-42.62
-43.69
-41.8
-36.74
-28.98
-19.53
-9.67
-0.53
7.13
13.04
17.27
19.99
21.28
21.14
19.63
17.03
13.96
11.21
9.5
9.22
10.25
12.13
14.28
16.28
17.95
19.32
20.41
21.17
21.45
21.09
20.05
18.43
16.39
14.12
11.75
9.35
6.98
4.72
2.57
0.48
-1.72
-4.1
-6.66
-9.22
-11.53
-13.41
-14.84
-15.96
-17.06
-18.45
-20.4
-23.19
-26.94
-31.55
-36.54
-40.98
-43.74
-43.75
-40.43
-33.91
-25.02
-14.94
-4.93
4.05
11.41
16.92
20.53
22.31
22.39
21.01
18.6
15.73
13.09
11.27
10.67
11.37
13.16
15.6
18.24
20.72
22.84
24.49
25.61
26.09
25.88
24.98
23.49
21.58
19.46
17.28
15.1
12.95
10.83
8.75
6.72
4.7
2.6
0.3
-2.25
-5.02
-7.82
-10.45
-12.78
-14.78
-16.58
-18.37
-20.38
-22.82
-25.82
-29.4
-33.33
-37.12
-39.96
-40.91
-39.18
-34.43
-26.94
-17.57
-7.48
2.17
10.52
17.07
21.62
24.16
24.81
23.79
21.51
18.57
15.64
13.32
12.01
11.82
12.61
14.07
15.82
17.54
19.0
20.11
20.84
21.25
21.37
21.17
20.58
19.49
17.84
15.69
13.21
10.62
8.18
6.03
4.2
2.63
1.15
-0.45
-2.32
-4.5
-6.9
-9.3
-11.51
-13.4
-15.07
-16.76
-18.79
-21.44
-24.73
-28.41
-31.89
-34.36
-34.98
-33.13
-28.62
-21.82
-13.53
-4.78
3.47
10.56
16.08
19.86
21.87
22.16
20.94
18.62
15.78
13.02
10.84
9.47
8.92
9.06
9.73
10.77
12.05
13.39
14.57
15.33
15.49
14.93
13.67
11.84
9.62
7.21
4.75
2.31
-0.11
-2.58
-5.14
-7.8
-10.46
-12.91
-14.92
-16.34
-17.13
-17.42
-17.49
-17.63
-18.19
-19.37
-21.17
-23.26
-24.99
-25.45
-23.84
-19.71
-13.26
-5.26
3.16
10.9
17.26
22.0
25.21
27.07
27.61
26.77
24.54
21.12
17.07
13.17
10.15
8.5
8.25
9.05
10.39
11.82
13.1
14.15
14.99
15.55
15.65
15.06
13.69
11.57
8.97
6.15
3.34
0.57
-2.21
-5.09
-8.08
-11.12
-14.1
-16.97
-19.7
-22.34
-24.95
-27.63
-30.49
-33.74
-37.45
-41.45
-45.17
-47.7
-48.03
-45.46
-39.84
-31.76
-22.22
-12.42
-3.33
4.42
10.49
14.78
17.25
18.02
17.32
15.6
13.41
11.26
9.57
8.55
8.26
8.66
9.67
11.13
12.88
14.76
16.58
18.2
19.48
20.2
20.17
19.24
17.43
14.98
12.23
9.52
6.97
4.49
1.92
-0.84
-3.73
-6.53
-9.03
-11.12
-12.87
-14.48
-16.17
-18.19
-20.78
-24.13
-28.21
-32.63
-36.6
-39.07
-39.07
-36.09
-30.27
-22.29
-13.17
-3.92
4.62
11.86
17.44
21.17
23.05
23.25
22.14
20.15
17.79
15.47
13.56
12.28
11.79
12.08
13.03
14.43
16.03
17.62
19.0
20.02
20.54
20.47
19.81
18.63
17.06
15.24
13.24
11.11
8.9
6.63
4.38
2.14
-0.13
-2.49
-4.99
-7.57
-10.09
-12.4
-14.41
-16.24
-18.14
-20.42
-23.27
-26.65
-30.21
-33.25
-34.94
-34.45
-31.28
-25.4
-17.38
-8.22
0.9
8.96
15.3
19.7
22.24
23.08
22.44
20.53
17.73
14.55
11.64
9.55
8.6
8.75
9.72
11.14
12.75
14.4
16.04
17.6
18.87
19.54
19.35
18.19
16.2
13.71
11.12
8.77
6.82
5.23
3.87
2.58
1.15
-0.51
-2.45
-4.65
-7.02
-9.43
-11.77
-14.02
-16.26
-18.7
-21.5
-24.64
-27.78
-30.25
-31.23
-30.03
-26.35
-20.44
-13.01
-5.0
2.67
9.32
14.59
18.3
20.43
21.01
20.21
18.32
15.82
13.25
11.09
9.68
9.12
9.29
10.03
11.17
12.59
14.2
15.81
17.16
17.91
17.8
16.75
14.88
12.5
9.98
7.62
5.57
3.8
2.13
0.36
-1.69
-4.11
-6.83
-9.63
-12.25
-14.47
-16.23
-17.69
-19.19
-21.09
-23.72
-27.14
-31.11
-34.97
-37.78
-38.48
-36.32
-31.09
-23.3
-14.02
-4.5
4.19
11.48
17.16
21.25
23.71
24.47
23.51
21.12
17.93
14.77
12.42
11.31
11.45
12.5
13.97
15.47
16.74
17.75
18.48
18.94
19.09
18.86
18.19
16.99
15.27
13.04
10.42
7.58
4.69
1.93
-0.62
-2.99
-5.21
-7.33
-9.36
-11.28
-13.1
-14.84
-16.6
-18.48
-20.57
-23.0
-25.87
-29.26
-33.07
-36.9
-40.04
-41.57
-40.66
-36.86
-30.39
-22.02
-12.81
-3.84
4.15
10.71
15.68
18.97
20.58
20.6
19.28
17.09
14.56
12.21
10.43
9.45
9.35
10.05
11.36
13.03
14.77
16.37
17.69
18.74
19.48
19.87
19.74
18.96
17.48
15.44
13.09
10.72
8.53
6.6
4.92
3.34
1.71
-0.18
-2.47
-5.17
-8.11
-10.98
-13.46
-15.38
-16.79
-17.97
-19.32
-21.18
-23.78
-27.19
-31.27
-35.66
-39.69
-42.44
-42.95
-40.54
-35.08
-27.08
-17.55
-7.69
1.43
9.09
14.91
18.78
20.74
20.99
19.86
17.79
15.31
12.89
10.87
9.49
8.83
8.94
9.75
11.12
12.81
14.56
16.16
17.47
18.44
19.01
19.07
18.42
16.98
14.79
12.16
9.53
7.26
5.54
4.23
3.03
1.62
-0.18
-2.33
-4.64
-6.9
-8.96
-10.73
-12.24
-13.57
-14.89
-16.4
-18.32
-20.9
-24.2
-28.06
-32.04
-35.38
-37.18
-36.67
-33.38
-27.44
-19.46
-10.38
-1.28
6.96
13.75
18.75
21.82
22.97
22.33
20.25
17.29
14.08
11.23
9.18
8.12
8.02
8.75
10.06
11.71
13.42
14.94
16.08
16.76
17.01
16.92
16.51
15.71
14.4
12.5
10.13
7.53
5.0
2.69
0.59
-1.47
-3.66
-6.0
-8.35
-10.5
-12.29
-13.71
-14.91
-16.19
-17.9
-20.33
-23.63
-27.7
-32.08
-36.01
-38.51
-38.73
-36.16
-30.84
-23.33
-14.6
-5.71
2.42
9.19
14.34
17.89
20.02
20.87
20.59
19.31
17.25
14.8
12.44
10.59
9.56
9.36
9.82
10.64
11.62
12.68
13.83
15.1
16.36
17.34
17.67
17.03
15.31
12.72
9.69
6.75
4.27
2.34
0.8
-0.75
-2.61
-4.96
-7.73
-10.75
-13.78
-16.69
-19.45
-22.13
-24.92
-28.0
-31.55
-35.61
-39.95
-44.0
-46.88
-47.62
-45.46
-40.15
-32.1
-22.3
-11.95
-2.16
6.36
13.28
18.52
22.09
23.97
24.15
22.79
20.31
17.36
14.65
12.71
11.77
11.71
12.26
13.17
14.28
15.59
17.14
18.87
20.57
21.92
22.54
22.18
20.76
18.43
15.52
12.45
9.58
7.09
4.9
2.74
0.26
-2.75
-6.24
-9.91
-13.35
-16.22
-18.37
-19.9
-21.1
-22.41
-24.31
-27.22
-31.36
-36.52
-41.99
-46.59
-48.97
-48.05
-43.41
-35.45
-25.24
-14.13
-3.4
6.02
13.67
19.39
23.18
25.12
25.36
24.15
21.87
19.07
16.34
14.21
12.97
12.73
13.36
14.64
16.32
18.2
20.14
22.0
23.66
24.94
25.63
25.58
24.63
22.75
20.05
16.84
13.5
10.44
7.87
5.78
3.88
1.8
-0.69
-3.6
-6.7
-9.62
-12.14
-14.21
-16.12
-18.21
-20.79
-24.03
-27.9
-32.19
-36.51
-40.28
-42.79
-43.32
-41.28
-36.43
-29.01
-19.72
-9.54
0.46
9.38
16.61
21.83
24.98
26.09
25.32
23.03
19.75
16.18
13.08
11.09
10.51
11.32
13.17
15.56
18.04
20.22
21.87
22.91
23.32
23.09
22.3
21.0
19.27
17.19
14.9
12.58
10.38
8.28
6.15
3.72
0.8
-2.6
-6.2
-9.58
-12.38
-14.49
-16.08
-17.57
-19.44
-22.1
-25.72
-30.15
-34.84
-38.89
-41.25
-40.94
-37.51
-31.11
-22.53
-12.9
-3.34
5.25
12.32
17.59
20.94
22.38
22.09
20.37
17.69
14.58
11.59
9.17
7.67
7.26
7.92
9.48
11.62
14.03
16.39
18.49
20.11
21.05
21.11
20.16
18.29
15.7
12.74
9.69
6.68
3.65
0.49
-2.87
-6.37
-9.81
-12.98
-15.73
-18.06
-20.15
-22.29
-24.81
-28.04
-32.17
-37.06
-42.18
-46.6
-49.17
-48.87
-45.18
-38.23
-28.83
-18.13
-7.34
2.53
10.84
17.25
21.62
23.96
24.39
23.14
20.63
17.41
14.09
11.3
9.54
9.06
9.84
11.65
14.12
16.86
19.53
21.83
23.54
24.42
24.26
23.03
20.86
18.08
15.06
12.1
9.28
6.48
3.51
0.23
-3.31
-6.94
-10.4
-13.48
-16.15
-18.46
-20.63
-22.98
-25.9
-29.69
-34.37
-39.53
-44.23
-47.25
-47.36
-43.88
-36.86
-27.08
-15.79
-4.32
6.21
15.07
21.84
26.38
28.76
29.18
28.0
25.64
22.63
19.49
16.73
14.77
13.92
14.21
15.44
17.29
19.37
21.44
23.37
25.05
26.3
26.84
26.38
24.76
22.1
18.76
15.25
11.98
9.16
6.74
4.46
2.06
-0.66
-3.71
-6.89
-9.91
-12.5
-14.56
-16.26
-18.02
-20.39
-23.81
-28.39
-33.72
-38.84
-42.48
-43.42
-40.85
-34.68
-25.59
-14.79
-3.67
6.57
15.15
21.75
26.35
29.05
29.94
29.12
26.84
23.55
19.95
16.84
14.88
14.41
15.34
17.23
19.55
21.84
23.88
25.61
27.02
28.03
28.38
27.83
26.28
23.85
20.91
17.89
15.16
12.81
10.7
8.54
6.07
3.17
-0.02
-3.19
-6.03
-8.38
-10.35
-12.24
-14.44
-17.3
-20.96
-25.36
-30.2
-34.9
-38.65
-40.5
-39.61
-35.51
-28.41
-19.19
-9.16
0.38
8.53
14.93
19.7
23.01
24.95
25.4
24.32
21.86
18.59
15.26
12.62
11.13
10.93
11.81
13.43
15.44
17.53
19.45
21.01
22.04
22.4
22.05
20.99
19.29
17.1
14.56
11.86
9.15
6.47
3.78
1.02
-1.84
-4.72
-7.43
-9.77
-11.7
-13.33
-15.01
-17.16
-20.09
-23.87
-28.19
-32.36
-35.46
-36.58
-35.01
-30.54
-23.48
-14.64
-5.07
4.15
12.18
18.51
22.91
25.33
25.87
24.74
22.22
18.78
14.99
11.49
8.82
7.38
7.31
8.48
10.55
13.04
15.41
17.24
18.24
18.37
17.75
16.58
15.03
13.19
11.06
8.63
5.94
3.04
-0.02
-3.17
-6.4
-9.67
-12.9
-15.99
-18.9
-21.72
-24.72
-28.19
-32.32
-36.99
-41.65
-45.39
-47.18
-46.16
-41.91
-34.6
-25.01
-14.23
-3.47
6.24
14.21
20.12
23.9
25.64
25.52
23.9
21.22
18.06
15.0
12.49
10.81
10.05
10.2
11.22
12.97
15.24
17.63
19.66
20.88
20.99
19.93
17.91
15.25
12.3
9.34
6.52
3.84
1.21
-1.55
-4.6
-7.93
-11.41
-14.74
-17.66
-20.03
-21.92
-23.64
-25.6
-28.2
-31.66
-35.94
-40.54
-44.6
-47.03
-46.77
-43.18
-36.24
-26.64
-15.58
-4.4
5.7
13.91
19.82
23.38
24.72
24.19
22.21
19.35
16.24
13.49
11.57
10.74
11.01
12.13
13.76
15.49
17.07
18.42
19.57
20.53
21.18
21.25
20.46
18.72
16.2
13.31
10.5
8.07
5.97
3.93
1.56
-1.33
-4.65
-8.1
-11.33
-14.09
-16.34
-18.26
-20.16
-22.41
-25.34
-29.14
-33.76
-38.74
-43.21
-46.05
-46.17
-42.93
-36.41
-27.37
-17.07
-6.82
2.37
9.96
15.77
19.86
22.32
23.23
22.74
21.12
18.84
16.49
14.65
13.72
13.83
14.83
16.35
18.03
19.57
20.83
21.81
22.48
22.78
22.57
21.66
20.01
17.71
15.05
12.36
9.9
7.71
5.62
3.38
0.78
-2.24
-5.54
-8.86
-11.92
-14.49
-16.51
-18.09
-19.51
-21.16
-23.44
-26.68
-30.9
-35.75
-40.41
-43.75
-44.64
-42.31
-36.64
-28.23
-18.19
-7.8
1.84
9.95
16.19
20.45
22.74
23.17
21.95
19.5
16.46
13.56
11.43
10.46
10.71
11.93
13.74
15.75
17.65
19.24
20.44
21.19
21.44
21.11
20.19
18.72
16.84
14.75
12.66
10.67
8.75
6.75
4.49
1.85
-1.09
-4.13
-6.97
-9.4
-11.36
-12.95
-14.32
-15.73
-17.47
-19.83
-23.04
-27.08
-31.53
-35.52
-37.96
-37.84
-34.64
-28.56
-20.4
-11.31
-2.4
5.55
12.1
17.11
20.52
22.29
22.44
21.12
18.72
15.82
13.04
10.91
9.7
9.42
9.94
11.01
12.43
14.04
15.7
17.19
18.23
18.53
17.88
16.26
13.86
11.03
8.13
5.44
3.07
0.99
-0.93
-2.87
-4.97
-7.35
-10.01
-12.83
-15.62
-18.15
-20.36
-22.38
-24.58
-27.36
-30.92
-35.09
-39.2
-42.33
-43.49
-41.97
-37.52
-30.48
-21.63
-11.96
-2.5
5.93
12.79
17.89
21.2
22.79
22.8
21.42
19.05
16.27
13.8
12.25
11.98
12.93
14.7
16.8
18.77
20.41
21.68
22.59
23.09
22.99
22.12
20.38
17.89
14.93
11.92
9.18
6.94
5.13
3.54
1.8
-0.39
-3.17
-6.42
-9.85
-13.07
-15.81
-18.0
-19.83
-21.64
-23.86
-26.82
-30.64
-35.12
-39.64
-43.27
-44.92
-43.71
-39.29
-31.93
-22.51
-12.18
-2.11
6.85
14.13
19.47
22.81
24.22
23.93
22.33
19.98
17.52
15.51
14.34
14.14
14.85
16.21
17.87
19.51
20.93
22.06
22.97
23.69
24.2
24.26
23.61
22.03
19.57
16.52
13.33
10.38
7.78
5.4
3.01
0.41
-2.41
-5.32
-8.14
-10.77
-13.18
-15.42
-17.56
-19.74
-22.16
-25.12
-28.86
-33.34
-38.11
-42.32
-44.85
-44.78
-41.58
-35.36
-26.77
-16.85
-6.72
2.64
10.54
16.6
20.7
22.88
23.31
22.27
20.14
17.45
14.79
12.7
11.53
11.36
12.03
13.24
14.71
16.24
17.72
19.08
20.21
20.91
20.98
20.25
18.71
16.5
13.92
11.29
8.86
6.73
4.82
2.92
0.76
-1.78
-4.63
-7.54
-10.22
-12.46
-14.28
-15.89
-17.66
-19.93
-22.89
-26.56
-30.65
-34.62
-37.69
-39.01
-37.84
-33.85
-27.24
-18.75
-9.46
-0.45
7.46
13.8
18.41
21.28
22.51
22.25
20.71
18.3
15.49
12.82
10.73
9.54
9.36
10.08
11.46
13.14
14.75
16.02
16.8
17.04
16.76
15.99
14.7
12.97
10.93
8.77
6.66
4.66
2.69
0.56
-1.92
-4.82
-8.02
-11.27
-14.23
-16.67
-18.49
-19.87
-21.17
-22.91
-25.62
-29.58
-34.59
-39.89
-44.28
-46.49
-45.52
-41.08
-33.58
-24.02
-13.63
-3.54
5.42
12.7
18.02
21.25
22.44
21.86
19.99
17.5
15.02
13.05
11.84
11.37
11.49
11.99
12.73
13.67
14.85
16.32
18.02
19.72
21.04
21.55
21.01
19.36
16.87
13.92
10.95
8.22
5.79
3.48
1.1
-1.52
-4.38
-7.36
-10.28
-13.01
-15.56
-18.06
-20.7
-23.64
-26.96
-30.62
-34.5
-38.36
-41.81
-44.28
-45.01
-43.29
-38.71
-31.39
-22.04
-11.79
-1.84
6.84
13.69
18.51
21.35
22.35
21.71
19.75
16.96
13.93
11.33
9.59
8.95
9.32
10.45
12.02
13.77
15.53
17.12
18.43
19.29
19.57
19.24
18.35
17.03
15.43
13.67
11.79
9.79
7.59
5.16
2.41
-0.65
