0
6.18
6.95
8.36
10.1
11.82
13.3
14.46
15.34
16.05
16.58
16.83
16.63
15.85
14.51
12.79
10.93
9.12
7.48
6.03
4.72
3.51
2.35
1.23
0.12
-1.03
-2.24
-3.58
-5.02
-6.52
-7.99
-9.38
-10.73
-12.18
-13.92
-16.09
-18.57
-20.98
-22.73
-23.22
-22.09
-19.36
-15.42
-10.86
-6.28
-2.15
1.27
3.94
5.91
7.26
8.07
8.4
8.35
8.1
7.84
7.75
7.9
8.26
8.74
9.27
9.82
10.44
11.12
11.8
12.33
12.54
12.33
11.69
10.68
9.42
8.02
6.56
5.11
3.74
2.49
1.38
0.4
-0.44
-1.19
-1.91
-2.69
-3.65
-4.87
-6.34
-7.92
-9.43
-10.67
-11.6
-12.36
-13.19
-14.32
-15.9
-17.94
-20.3
-22.7
-24.79
-26.14
-26.37
-25.2
-22.58
-18.71
-14.09
-9.35
-5.08
-1.71
0.65
2.13
3.04
3.64
4.11
4.5
4.84
5.19
5.63
6.32
7.29
8.52
9.86
11.1
12.08
12.74
13.04
13.04
12.78
12.31
11.69
10.93
10.08
9.13
8.11
7.06
6.02
5.08
4.27
3.61
3.08
2.66
2.3
1.96
1.56
1.01
0.23
-0.81
-2.05
-3.38
-4.71
-5.97
-7.14
-8.28
-9.45
-10.75
-12.28
-14.1
-16.18
-18.38
-20.39
-21.82
-22.27
-21.49
-19.43
-16.32
-12.55
-8.64
-5.02
-2.01
0.33
2.07
3.42
4.54
5.49
6.24
6.72
6.92
6.95
6.99
7.26
7.88
8.83
9.95
11.03
11.9
12.45
12.66
12.57
12.23
11.65
10.78
9.63
8.26
6.81
5.49
4.42
3.61
2.89
2.08
1.0
-0.35
-1.85
-3.35
-4.73
-5.98
-7.13
-8.17
-9.06
-9.7
-10.08
-10.29
-10.5
-10.92
-11.67
-12.78
-14.19
-15.77
-17.35
-18.66
-19.36
-19.07
-17.51
-14.66
-10.83
-6.59
-2.57
0.76
3.24
5.01
6.32
7.35
8.1
8.46
8.35
7.87
7.25
6.85
6.91
7.47
8.39
9.43
10.4
11.18
11.77
12.15
12.29
12.18
11.79
11.19
10.47
9.72
8.98
8.3
7.69
7.17
6.7
6.21
5.58
4.68
3.47
1.99
0.33
-1.42
-3.17
-4.89
-6.5
-7.9
-9.02
-9.86
-10.53
-11.28
-12.35
-13.93
-15.99
-18.3
-20.43
-21.85
-22.1
-20.93
-18.37
-14.79
-10.71
-6.71
-3.2
-0.39
1.7
3.14
4.03
4.46
4.53
4.44
4.36
4.42
4.68
5.12
5.66
6.28
6.93
7.61
8.34
9.07
9.74
10.31
10.71
10.87
10.8
10.52
10.05
9.44
8.67
7.77
6.8
5.87
5.13
4.69
4.48
4.35
4.08
3.53
2.72
1.77
0.82
-0.09
-1.01
-2.05
-3.27
-4.66
-6.11
-7.51
-8.81
-9.96
-10.96
-11.89
-12.88
-14.12
-15.78
-17.9
-20.26
-22.45
-23.96
-24.34
-23.31
-20.88
-17.29
-12.96
-8.42
-4.19
-0.7
1.81
3.31
3.96
4.05
3.93
3.84
3.97
4.37
5.01
5.81
6.71
7.72
8.83
10.04
11.26
12.32
13.04
13.32
13.22
12.86
12.44
12.04
11.59
11.01
10.23
9.29
8.37
7.63
7.19
7.03
7.01
6.98
6.81
6.46
5.96
5.4
4.84
4.29
3.67
2.85
1.7
0.18
-1.63
-3.58
-5.51
-7.32
-9.01
-10.62
-12.21
-13.87
-15.63
-17.58
-19.73
-22.04
-24.26
-26.02
-26.86
-26.44
-24.64
-21.62
-17.8
-13.67
-9.64
-5.98
-2.76
-0.0
2.28
4.04
5.21
5.77
5.8
5.54
5.25
5.16
5.38
5.92
6.66
7.53
8.45
9.39
10.29
11.08
11.66
11.99
12.09
12.02
11.82
11.47
10.93
10.12
9.04
7.77
6.45
5.22
4.18
3.36
2.76
2.32
1.95
1.51
0.84
-0.12
-1.4
-2.86
-4.37
-5.74
-6.91
-7.85
-8.63
-9.38
-10.24
-11.35
-12.76
-14.38
-15.97
-17.13
-17.47
-16.67
-14.6
-11.36
-7.27
-2.77
1.6
5.39
8.26
10.06
10.82
10.68
9.87
8.62
7.22
5.95
5.08
4.84
5.3
6.38
7.86
9.49
11.04
12.34
13.36
14.06
14.41
14.37
13.85
12.87
11.57
10.17
8.93
7.95
7.18
6.37
5.31
3.88
2.18
0.46
-1.06
-2.23
-3.1
-3.8
-4.5
-5.33
-6.36
-7.59
-8.97
-10.45
-11.89
-13.23
-14.49
-15.8
-17.34
-19.31
-21.73
-24.45
-27.11
-29.23
-30.33
-29.98
-27.93
-24.23
-19.22
-13.46
-7.63
-2.33
2.04
5.31
7.47
8.65
9.01
8.79
8.24
7.65
7.24
7.17
7.5
8.26
9.44
11.0
12.86
14.87
16.79
18.42
19.61
20.25
20.35
19.93
19.03
17.76
16.22
14.59
13.06
11.77
10.72
9.88
9.12
8.33
7.44
6.42
5.28
4.07
2.8
1.52
0.25
-1.04
-2.39
-3.87
-5.54
-7.41
-9.45
-11.6
-13.78
-15.93
-18.11
-20.45
-23.09
-26.07
-29.2
-32.0
-33.86
-34.19
-32.62
-29.19
-24.29
-18.49
-12.44
-6.63
-1.41
3.03
6.57
9.12
10.67
11.29
11.16
10.62
10.01
9.69
9.85
10.51
11.58
12.9
14.39
15.97
17.64
19.32
20.83
21.97
22.51
22.35
21.53
20.22
18.64
17.02
15.51
14.18
12.99
11.77
10.37
8.7
6.82
4.93
3.27
2.0
1.07
0.27
-0.68
-1.99
-3.7
-5.71
-7.85
-9.97
-12.01
-14.02
-16.05
-18.19
-20.5
-23.05
-25.9
-28.93
-31.89
-34.3
-35.56
-35.1
-32.6
-28.11
-22.09
-15.29
-8.5
-2.4
2.56
6.16
8.39
9.33
9.15
8.18
6.82
5.55
4.79
4.8
5.65
7.22
9.29
11.55
13.74
15.64
17.13
18.17
18.84
19.19
19.24
18.91
18.07
16.62
14.57
12.12
9.57
7.2
5.13
3.33
1.62
-0.17
-2.15
-4.27
-6.43
-8.5
-10.4
-12.16
-13.82
-15.5
-17.27
-19.29
-21.68
-24.56
-27.86
-31.28
-34.23
-35.94
-35.69
-33.08
-28.2
-21.63
-14.25
-6.96
-0.45
4.89
8.96
11.84
13.65
14.52
14.59
14.04
13.17
12.31
11.77
11.81
12.58
14.04
16.02
18.27
20.52
22.5
24.06
25.1
25.63
25.68
25.27
24.4
23.04
21.19
18.93
16.41
13.82
11.32
9.01
6.85
4.78
2.68
0.49
-1.78
-4.04
-6.18
-8.12
-9.88
-11.51
-13.14
-14.9
-16.93
-19.37
-22.36
-26.0
-30.25
-34.79
-39.06
-42.17
-43.26
-41.67
-37.22
-30.33
-21.89
-12.96
-4.56
2.61
8.24
12.3
14.98
16.55
17.22
17.22
16.77
16.16
15.71
15.75
16.46
17.82
19.57
21.39
22.98
24.28
25.37
26.4
27.42
28.27
28.62
28.15
26.71
24.39
21.56
18.64
15.97
13.75
11.95
10.45
9.1
7.79
6.43
4.95
3.22
1.11
-1.45
-4.41
-7.53
-10.48
-12.92
-14.73
-16.07
-17.37
-19.14
-21.82
-25.54
-30.08
-34.84
-39.01
-41.7
-42.12
-39.8
-34.69
-27.24
-18.27
-8.83
0.06
7.63
13.4
17.24
19.3
19.93
19.63
18.93
18.28
17.97
18.11
18.66
19.55
20.72
22.18
23.92
25.82
27.68
29.18
30.1
30.31
29.82
28.74
27.2
25.31
23.14
20.75
18.22
15.67
13.2
10.92
8.89
7.14
5.63
4.3
3.04
1.76
0.36
-1.24
-3.04
-5.0
-7.0
-8.93
-10.72
-12.4
-14.14
-16.17
-18.72
-21.89
-25.6
-29.57
-33.23
-35.88
-36.78
-35.38
-31.5
-25.43
-17.92
-9.93
-2.42
3.9
8.61
11.55
12.82
12.65
11.39
9.54
7.61
6.08
5.3
5.44
6.43
8.08
10.09
12.15
13.99
15.5
16.64
17.46
17.99
18.16
17.9
17.08
15.71
13.9
11.84
9.75
7.76
5.92
4.17
2.45
0.69
-1.1
-2.83
-4.41
-5.78
-6.95
-8.07
-9.37
-11.06
-13.22
-15.87
-18.89
-22.07
-25.19
-27.87
-29.64
-29.93
-28.31
-24.62
-19.16
-12.63
-5.87
0.4
5.73
9.99
13.2
15.42
16.6
16.7
15.79
14.13
12.19
10.5
9.52
9.47
10.37
11.98
13.98
16.01
17.79
19.09
19.78
19.84
19.29
18.22
16.78
15.16
13.5
11.87
10.22
8.47
6.54
4.45
2.35
0.51
-0.87
-1.77
-2.34
-2.95
-3.96
-5.59
-7.84
-10.47
-13.15
-15.59
-17.67
-19.49
-21.32
-23.47
-26.19
-29.51
-33.19
-36.7
-39.35
-40.36
-39.2
-35.67
-30.05
-23.03
-15.48
-8.24
-1.96
3.04
6.73
9.26
10.86
11.78
12.19
12.24
12.1
11.97
12.06
12.58
13.61
15.11
16.91
18.75
20.44
21.87
23.02
23.87
24.32
24.22
23.43
21.93
19.89
17.59
15.34
13.35
11.67
10.23
8.9
7.58
6.25
4.92
3.65
2.45
1.29
0.05
-1.36
-3.07
-5.08
-7.28
-9.51
-11.58
-13.44
-15.18
-16.99
-19.09
-21.68
-24.85
-28.5
-32.35
-35.84
-38.22
-38.72
-36.77
-32.31
-25.77
-18.07
-10.26
-3.24
2.4
6.5
9.13
10.55
11.02
10.84
10.26
9.52
8.86
8.48
8.56
9.17
10.27
11.65
13.09
14.35
15.31
15.94
16.29
16.37
16.17
15.61
14.59
13.1
11.13
8.78
6.2
3.58
1.18
-0.8
-2.19
-2.98
-3.35
-3.56
-3.93
-4.69
-5.93
-7.54
-9.28
-10.88
-12.16
-13.18
-14.13
-15.28
-16.81
-18.77
-21.08
-23.61
-26.12
-28.28
-29.61
-29.53
-27.58
-23.59
-17.85
-11.11
-4.28
1.88
6.9
10.68
13.3
14.88
15.51
15.23
14.2
12.7
11.14
9.92
9.33
9.49
10.29
11.56
13.1
14.75
16.41
17.96
19.23
20.03
20.23
19.76
18.72
17.29
15.65
13.87
11.95
9.87
7.68
5.52
3.61
2.06
0.84
-0.25
-1.48
-3.06
-5.06
-7.37
-9.81
-12.2
-14.4
-16.38
-18.18
-19.9
-21.68
-23.68
-26.06
-28.97
-32.42
-36.25
-40.02
-43.02
-44.44
-43.56
-40.08
-34.2
-26.62
-18.34
-10.31
-3.26
2.44
6.71
9.63
11.35
12.01
11.84
11.12
10.23
9.58
9.56
10.37
12.01
14.24
16.69
18.98
20.87
22.27
23.25
23.9
24.24
24.22
23.73
22.73
21.28
19.57
17.83
16.2
14.69
13.16
11.46
9.53
7.47
5.52
3.96
2.91
2.27
1.75
1.0
-0.26
-2.1
-4.4
-6.92
-9.44
-11.81
-13.97
-15.94
-17.81
-19.72
-21.85
-24.39
-27.48
-31.01
-34.6
-37.56
-39.06
-38.37
-35.08
-29.36
-21.86
-13.6
-5.64
1.16
6.39
10.01
12.3
13.63
14.3
14.49
14.31
13.85
13.28
12.84
12.81
13.41
14.71
16.59
18.77
20.94
22.81
24.23
25.15
25.56
25.38
24.54
22.97
20.72
18.04
15.27
12.76
10.74
9.2
7.97
6.81
5.51
3.98
2.26
0.44
-1.35
-3.06
-4.69
-6.31
-7.99
-9.77
-11.65
-13.6
-15.54
-17.44
-19.28
-21.14
-23.15
-25.49
-28.23
-31.27
-34.2
-36.37
-37.02
-35.53
-31.7
-25.78
-18.47
-10.69
-3.3
3.08
8.13
11.77
14.06
15.11
15.08
14.18
12.68
10.97
9.48
8.62
8.68
9.71
11.54
13.82
16.15
18.22
19.84
20.97
21.63
21.81
21.54
20.8
19.62
18.07
16.26
14.27
12.18
10.02
7.85
5.73
3.74
1.92
0.27
-1.25
-2.75
-4.3
-5.96
-7.72
-9.59
-11.55
-13.63
-15.85
-18.21
-20.71
-23.3
-26.05
-29.1
-32.6
-36.6
-40.8
-44.5
-46.72
-46.48
-43.28
-37.21
-29.06
-19.96
-11.06
-3.22
3.1
7.83
11.1
13.14
14.2
14.49
14.25
13.75
13.26
13.11
13.54
14.66
16.36
18.37
20.39
22.16
23.63
24.87
25.97
26.91
27.5
27.48
26.62
24.92
22.6
20.06
17.7
15.8
14.37
13.21
12.0
10.5
8.64
6.58
4.57
2.84
1.4
0.1
-1.29
-2.97
-4.99
-7.21
-9.48
-11.64
-13.65
-15.55
-17.45
-19.47
-21.72
-24.34
-27.43
-31.08
-35.23
-39.5
-43.18
-45.3
-44.9
-41.41
-34.84
-25.95
-15.93
-6.08
2.59
9.54
14.7
18.21
20.29
21.13
20.93
19.96
18.64
17.4
16.62
16.56
17.28
18.69
20.6
22.75
24.87
26.72
28.12
28.98
29.28
29.02
28.22
26.89
25.1
22.96
20.64
18.29
16.01
13.84
11.71
9.54
7.26
4.89
2.56
0.51
-1.09
-2.15
-2.81
-3.36
-4.19
-5.61
-7.71
-10.39
-13.33
-16.27
-19.0
-21.48
-23.83
-26.25
-28.96
-32.1
-35.63
-39.24
-42.32
-44.08
-43.76
-40.87
-35.41
-27.93
-19.32
-10.66
-2.84
3.57
8.33
11.46
13.1
13.44
12.72
11.26
9.52
8.0
7.17
7.34
8.54
10.57
13.09
15.72
18.2
20.34
22.05
23.25
23.86
23.84
23.17
21.89
20.11
17.93
15.45
12.79
10.07
7.43
5.02
2.93
1.16
-0.38
-1.89
-3.59
-5.62
-8.01
-10.63
-13.25
-15.66
-17.75
-19.62
-21.53
-23.88
-26.97
-30.89
-35.45
-40.09
-44.01
-46.31
-46.22
-43.31
-37.69
-29.92
-20.91
-11.67
-3.04
4.37
10.25
14.47
17.08
18.2
18.08
17.14
15.84
14.7
14.11
14.24
15.07
16.46
18.18
20.05
21.95
23.78
25.48
26.87
27.74
27.92
27.27
25.88
23.93
21.68
19.37
17.12
14.96
12.84
10.72
8.6
6.52
4.52
2.65
0.94
-0.63
-2.07
-3.45
-4.87
-6.46
-8.35
-10.62
-13.26
-16.07
-18.83
-21.3
-23.43
-25.44
-27.75
-30.79
-34.77
-39.44
-44.04
-47.47
-48.6
-46.66
-41.44
-33.38
-23.4
-12.69
-2.43
6.46
13.43
18.27
21.1
22.25
22.2
21.5
20.74
20.4
20.74
21.7
22.95
24.06
24.78
25.15
25.47
26.12
27.26
28.73
30.01
30.57
30.07
28.51
26.24
23.72
21.29
19.08
17.0
14.86
12.56
10.13
7.75
5.61
3.84
2.43
1.27
0.2
-0.93
-2.26
-3.92
-5.98
-8.45
-11.22
-14.08
-16.78
-19.17
-21.24
-23.17
-25.25
-27.76
-30.92
-34.76
-39.05
-43.22
-46.38
-47.55
-45.92
-41.2
-33.81
-24.78
-15.4
-6.84
0.15
5.31
8.71
10.57
11.07
10.38
8.71
6.45
4.2
2.61
2.21
3.23
5.53
8.66
12.05
15.22
17.88
19.93
21.37
22.2
22.36
21.8
20.52
18.62
16.33
13.87
11.44
9.15
7.03
5.05
3.16
1.29
-0.59
-2.48
-4.4
-6.31
-8.15
-9.85
-11.41
-12.87
-14.34
-16.05
-18.27
-21.23
-25.02
-29.42
-33.92
-37.68
-39.76
-39.35
-36.0
-29.81
-21.4
-11.81
-2.2
6.42
13.35
18.32
21.36
22.7
22.62
21.45
19.55
17.33
15.26
13.78
13.22
13.67
15.05
17.11
19.52
21.98
24.22
26.01
27.2
27.65
27.37
26.42
24.94
23.11
21.06
18.82
16.44
13.91
11.31
8.76
6.36
4.19
2.24
0.43
-1.32
-3.08
-4.86
-6.71
-8.7
-10.92
-13.49
-16.4
-19.52
-22.68
-25.78
-28.85
-32.12
-35.9
-40.34
-45.28
-50.14
-54.0
-55.78
-54.61
-50.05
-42.33
-32.29
-21.21
-10.44
-1.07
6.29
11.56
15.02
17.09
18.14
18.41
18.08
17.34
16.53
16.07
16.35
17.59
19.72
22.42
25.22
27.72
29.73
31.25
32.39
33.2
33.57
33.3
32.2
30.24
27.65
24.81
22.09
19.7
17.59
15.59
13.46
11.11
8.61
6.19
4.1
2.45
1.17
0.02
-1.3
-3.02
-5.23
-7.83
-10.6
-13.3
-15.81
-18.1
-20.32
-22.69
-25.43
-28.74
-32.66
-37.05
-41.45
-45.14
-47.21
-46.77
-43.26
-36.64
-27.5
-16.92
-6.24
3.35
11.04
16.53
19.97
21.74
22.24
21.8
20.68
19.16
17.57
16.31
15.77
16.19
17.57
19.69
22.17
24.61
26.73
28.38
29.56
30.3
30.57
30.27
29.29
27.59
25.27
22.56
19.76
17.06
14.52
12.07
9.64
7.24
4.97
2.95
1.27
-0.12
-1.36
-2.66
-4.16
-5.95
-8.05
-10.38
-12.8
-15.18
-17.43
-19.57
-21.76
-24.25
-27.34
-31.22
-35.82
-40.71
-45.09
-47.9
-48.14
-45.17
-39.02
-30.39
-20.45
-10.49
-1.57
5.7
11.12
14.7
16.55
16.78
15.59
13.36
10.69
8.31
6.9
6.9
8.39
11.06
14.33
17.53
20.16
21.99
23.09
23.67
23.95
23.98
23.69
22.91
21.52
19.53
17.09
14.36
11.55
8.77
6.12
3.65
1.34
-0.85
-2.97
-5.1
-7.23
-9.34
-11.39
-13.33
-15.19
-17.07
-19.11
-21.53
-24.52
-28.22
-32.64
-37.58
-42.54
-46.78
-49.34
-49.37
-46.28
-40.07
-31.35
-21.22
-10.95
-1.63
6.09
12.07
16.42
19.35
20.97
21.33
20.56
19.01
17.23
15.85
15.36
15.93
17.45
19.56
21.87
24.08
26.0
27.57
28.74
29.48
29.69
29.27
28.17
26.44
24.23
21.76
19.23
16.74
14.27
11.71
9.04
6.32
3.74
1.48
-0.33
-1.76
-3.05
-4.49
-6.34
-8.69
-11.45
-14.42
-17.34
-20.06
-22.55
-24.89
-27.28
-29.95
-33.11
-36.89
-41.25
-45.86
-50.07
-52.95
-53.52
-51.05
-45.32
-36.8
-26.46
-15.56
-5.26
3.58
10.52
15.44
18.51
20.01
20.28
19.72
18.74
17.78
17.23
17.39
18.38
20.12
22.38
24.85
27.22
29.28
30.87
31.93
32.4
32.28
31.56
30.29
28.57
26.54
24.35
22.17
20.16
18.39
16.82
15.31
13.64
11.66
9.4
7.04
4.84
2.96
1.37
-0.15
-1.92
-4.15
-6.89
-9.98
-13.14
-16.13
-18.8
-21.22
-23.58
-26.23
-29.53
-33.72
-38.75
-44.17
-49.09
-52.37
-52.93
-50.1
-43.89
-35.05
-24.79
-14.46
-5.17
2.41
8.12
12.08
14.52
15.67
15.67
14.75
13.22
11.49
10.06
9.36
9.6
10.79
12.71
15.04
17.41
19.56
21.34
22.69
23.61
24.05
23.95
23.23
21.8
19.68
16.97
13.88
10.7
7.74
5.2
3.18
1.59
0.25
-1.08
-2.57
-4.26
-6.09
-7.92
-9.63
-11.16
-12.52
-13.79
-15.03
-16.36
-18.0
-20.22
-23.24
-27.06
-31.28
-35.05
-37.29
-36.99
-33.62
-27.32
-18.88
-9.45
-0.25
7.81
14.18
18.64
21.22
22.03
21.32
19.41
16.78
14.0
11.67
10.24
9.98
10.9
12.77
15.23
17.83
20.15
21.86
22.77
22.85
22.19
20.99
19.43
17.65
15.74
13.67
11.45
9.06
6.56
4.02
1.59
-0.63
-2.58
-4.32
-5.98
-7.74
-9.73
-11.97
-14.36
-16.7
-18.83
-20.62
-22.12
-23.47
-24.9
-26.71
-29.19
-32.58
-36.85
-41.62
-46.06
-49.08
-49.58
-46.83
-40.78
-32.07
-21.87
-11.53
-2.23
5.25
10.63
14.0
15.69
16.13
15.75
14.93
14.04
13.38
13.21
13.68
14.84
16.54
18.55
20.64
22.57
24.24
25.62
26.71
27.47
27.83
27.62
26.72
25.08
22.79
20.09
17.28
14.6
12.19
10.05
8.08
6.18
4.32
2.51
0.81
-0.74
-2.22
-3.74
-5.44
-7.46
-9.76
-12.23
-14.65
-16.77
-18.53
-20.08
-21.79
-24.1
-27.34
-31.57
-36.45
-41.34
-45.32
-47.49
-47.05
-43.54
-37.06
-28.24
-18.15
-8.02
1.11
8.64
14.39
18.51
21.27
22.86
23.43
23.16
22.32
21.3
20.52
20.24
20.57
21.39
22.49
23.68
24.85
25.94
26.95
27.84
28.48
28.72
28.38
27.38
25.76
23.64
21.28
18.86
16.52
14.32
12.25
10.24
8.26
6.3
4.38
2.53
0.82
-0.7
-2.06
-3.32
-4.65
-6.21
-8.15
-10.46
-12.99
-15.52
-17.82
-19.81
-21.67
-23.76
-26.53
-30.25
-34.85
-39.75
-43.99
-46.48
-46.34
-43.19
-37.28
-29.44
-20.83
-12.56
-5.45
0.1
4.06
6.64
8.05
8.48
8.09
7.12
5.92
4.95
4.67
5.34
6.96
9.25
11.79
14.21
16.26
17.9
19.13
19.98
20.45
20.48
20.02
19.03
17.55
15.66
13.5
11.22
8.98
6.9
5.03
3.3
1.62
-0.17
-2.15
-4.31
-6.52
-8.64
-10.56
-12.33
-14.07
-15.98
-18.22
-20.84
-23.82
-27.11
-30.57
-33.92
-36.64
-38.0
-37.24
-33.89
-28.02
-20.29
-11.74
-3.46
3.74
9.44
13.6
16.31
17.7
17.88
17.05
15.53
13.79
12.36
11.61
11.75
12.71
14.25
16.04
17.8
19.38
20.72
21.8
22.53
22.76
22.33
21.17
19.37
17.19
14.9
12.71
10.67
8.74
6.88
5.1
3.48
2.07
0.85
-0.33
-1.69
-3.43
-5.66
-8.36
-11.33
-14.29
-16.96
-19.16
-20.93
-22.5
-24.24
-26.56
-29.72
-33.74
-38.35
-42.96
-46.77
-48.86
-48.48
-45.22
-39.2
-31.07
-21.84
-12.63
-4.34
2.46
7.61
11.24
13.61
15.01
15.7
15.88
15.76
15.59
15.6
16.03
16.97
18.42
20.25
22.27
24.32
26.3
28.17
29.82
31.12
31.84
31.79
30.87
29.14
26.88
24.44
22.21
20.41
19.1
18.12
17.19
16.04
14.52
12.69
10.72
8.89
7.35
6.11
5.02
3.78
2.13
-0.1
-2.9
-6.07
-9.36
-12.47
-15.26
-17.7
-19.94
-22.28
-25.04
-28.49
-32.67
-37.28
-41.58
-44.58
-45.25
-42.95
-37.68
-30.08
-21.25
-12.36
-4.3
2.45
7.75
11.7
14.39
15.91
16.33
15.81
14.71
13.49
12.67
12.63
13.52
15.19
17.29
19.42
21.3
22.84
24.05
24.97
25.53
25.62
25.1
23.99
22.38
20.49
18.49
16.5
14.57
12.72
11.04
9.51
8.16
6.91
5.64
4.28
2.78
1.15
-0.59
-2.43
-4.4
-6.51
-8.72
-10.96
-13.09
-15.05
-16.91
-18.82
-21.05
-23.78
-27.01
-30.46
-33.52
-35.45
-35.56
-33.41
-28.96
-22.6
-15.03
-7.1
0.36
6.69
11.51
14.69
16.32
16.64
15.97
14.63
12.97
11.33
10.03
9.35
9.46
10.38
11.93
13.82
15.73
17.37
18.57
19.29
19.56
19.42
18.91
17.99
16.61
14.79
12.63
10.34
8.12
6.15
4.43
2.91
1.47
0.03
-1.45
-2.93
-4.46
-6.1
-7.94
-9.99
-12.17
-14.3
-16.24
-17.96
-19.57
-21.31
-23.41
-26.05
-29.26
-32.87
-36.48
-39.46
-41.03
-40.48
-37.37
-31.78
-24.29
-15.89
-7.68
-0.55
4.99
8.88
11.32
12.64
13.09
12.9
12.27
11.48
10.9
10.84
11.52
12.89
14.69
16.55
18.14
19.33
20.15
20.75
21.2
21.47
21.38
20.76
19.52
17.8
15.84
13.9
12.17
10.64
9.18
7.63
5.94
4.16
2.41
0.79
-0.69
-2.06
-3.39
-4.7
-5.99
-7.3
-8.72
-10.33
-12.19
-14.28
-16.48
-18.68
-20.83
-22.95
-25.18
-27.66
-30.51
-33.66
-36.83
-39.48
-40.92
-40.48
-37.73
-32.72
-25.92
-18.12
-10.21
-2.94
3.18
7.87
11.06
12.84
13.46
13.3
12.8
12.38
12.36
12.89
13.94
15.36
16.91
18.34
19.5
20.39
21.15
21.93
22.84
23.78
24.51
24.78
24.39
23.33
21.72
19.75
17.59
15.37
13.13
10.89
8.66
6.49
4.4
2.47
0.76
-0.7
-1.93
-3.01
-4.1
-5.38
-6.98
-8.94
-11.19
-13.57
-15.88
-17.94
-19.69
-21.23
-22.77
-24.59
-26.93
-29.85
-33.18
-36.46
-39.06
-40.19
-39.24
-35.94
-30.47
-23.52
-16.08
-9.12
-3.34
0.95
3.8
5.45
6.1
5.88
4.89
3.26
1.31
-0.56
-1.89
-2.38
-1.89
-0.52
1.46
3.72
5.99
8.06
9.84
11.31
12.47
13.26
13.63
13.49
12.79
11.53
9.82
7.81
5.72
3.73
1.99
0.49
-0.87
-2.23
-3.7
-5.32
-7.0
-8.62
-10.02
-11.18
-12.17
-13.16
-14.36
-16.0
-18.24
-21.16
-24.65
-28.36
-31.68
-33.87
-34.2
-32.19
-27.77
-21.3
-13.51
-5.31
2.43
9.01
14.01
17.26
18.81
18.92
17.91
16.19
14.18
12.28
10.88
10.23
10.47
11.55
13.27
15.33
17.43
19.33
20.87
21.99
22.65
22.78
22.33
21.24
19.55
17.4
15.01
12.63
10.43
8.42
6.53
4.64
2.67
0.65
-1.3
-3.09
-4.66
-6.16
-7.81
-9.84
-12.34
-15.23
-18.21
-20.97
-23.34
-25.4
-27.52
-30.23
-33.95
-38.76
-44.26
-49.57
-53.56
-55.13
-53.48
-48.41
-40.28
-29.99
-18.73
-7.75
1.94
9.64
15.09
18.37
19.8
19.85
19.05
17.91
16.9
16.44
16.74
17.88
19.72
21.98
24.37
26.67
28.75
30.6
32.2
33.48
34.29
34.45
33.86
32.51
30.53
28.14
25.58
23.02
20.52
18.11
15.8
13.6
11.55
9.63
7.8
6.0
4.14
2.16
0.03
-2.28
-4.77
-7.43
-10.17
-12.86
-15.39
-17.76
-20.17
-22.96
-26.48
-30.94
-36.16
-41.46
-45.82
-48.03
-47.06
-42.44
-34.41
-23.93
-12.39
-1.26
8.36
15.87
21.19
24.61
26.5
27.14
26.72
25.44
23.59
21.61
20.06
19.41
19.93
21.57
23.98
26.68
29.19
31.24
32.71
33.64
34.08
34.0
33.33
31.99
29.99
27.44
24.53
21.42
18.28
15.18
12.25
9.57
7.24
5.28
3.62
2.1
0.48
-1.44
-3.78
-6.53
-9.54
-12.56
-15.33
-17.73
-19.84
-21.93
-24.43
-27.73
-31.98
-36.92
-41.87
-45.76
-47.45
-46.04
-41.18
-33.25
-23.24
-12.46
-2.2
6.62
13.47
18.15
20.67
21.15
19.91
17.47
14.56
11.96
10.31
9.94
10.87
12.83
15.39
18.09
20.53
22.47
23.86
24.81
25.44
25.74
25.52
24.48
22.44
19.46
15.9
12.28
9.04
6.38
4.21
2.29
0.35
-1.77
-4.13
-6.71
-9.39
-12.07
-14.59
-16.88
-18.98
-21.08
-23.49
-26.59
-30.58
-35.39
-40.5
-44.95
-47.53
-47.14
-43.17
-35.84
-26.11
-15.45
-5.25
3.48
10.35
15.42
18.93
21.08
21.98
21.73
20.57
18.94
17.38
16.4
16.33
17.23
18.91
21.03
23.25
25.26
26.93
28.2
29.08
29.51
29.37
28.49
26.79
24.29
21.19
17.8
14.41
11.28
8.52
6.11
3.93
1.79
-0.47
-2.92
-5.56
-8.31
-11.05
-13.63
-16.0
-18.11
-20.02
-21.89
-24.01
-26.76
-30.53
-35.46
-41.22
-46.97
-51.38
-53.11
-51.16
-45.33
-36.22
-25.17
-13.72
-3.26
5.32
11.74
16.15
18.94
20.49
21.09
20.96
20.3
19.41
18.66
18.44
18.99
20.32
22.21
24.3
26.28
27.99
29.44
30.7
31.74
32.41
32.45
31.65
29.96
27.53
24.67
21.74
19.01
16.61
14.58
12.8
11.14
9.46
7.6
5.45
2.93
0.06
-3.07
-6.28
-9.36
-12.13
-14.58
-16.83
-19.13
-21.82
-25.15
-29.21
-33.84
-38.61
-42.8
-45.55
-46.0
-43.59
-38.21
-30.37
-21.01
-11.31
-2.29
5.38
11.42
15.86
18.79
20.3
20.45
19.36
17.43
15.22
13.4
12.51
12.77
14.1
16.1
18.35
20.41
22.06
23.2
23.83
24.0
23.7
22.88
21.43
19.28
16.47
13.18
9.73
6.46
3.65
1.38
-0.43
-1.97
-3.49
-5.13
-6.91
-8.79
-10.63
-12.28
-13.65
-14.71
-15.55
-16.35
-17.37
-18.87
-21.1
-24.09
-27.61
-31.07
-33.57
-34.2
-32.3
-27.77
-21.07
-13.07
-4.78
2.97
9.57
14.7
18.14
19.8
19.71
18.09
15.46
12.53
10.0
8.42
8.01
8.7
10.18
12.06
14.02
15.83
17.36
18.52
19.21
19.32
18.79
17.6
15.83
13.61
11.1
8.47
5.92
3.64
1.73
0.15
-1.3
-2.93
-5.01
-7.6
-10.52
-13.42
-15.97
-17.95
-19.41
-20.51
-21.52
-22.72
-24.4
-26.83
-30.16
-34.29
-38.74
-42.64
-44.94
-44.73
-41.53
-35.46
-27.19
-17.75
-8.27
0.27
7.17
12.09
14.98
16.1
15.83
14.66
13.09
11.57
10.5
10.1
10.44
11.45
12.94
14.66
16.42
18.08
19.54
20.71
21.47
21.74
21.47
20.69
19.47
17.88
15.98
13.82
11.41
8.86
6.27
3.82
1.63
-0.21
-1.73
-3.05
-4.34
-5.8
-7.55
-9.59
-11.83
-14.06
-16.1
-17.89
-19.48
-21.13
-23.16
-25.88
-29.48
-33.86
-38.58
-42.87
-45.75
-46.32
-44.01
-38.71
-30.94
-21.65
-12.03
-3.18
4.13
9.56
13.17
15.29
16.34
16.64
16.42
15.8
14.93
13.99
13.31
13.2
13.86
15.3
17.33
19.6
21.76
23.59
24.94
25.79
26.1
25.88
25.1
23.81
22.16
20.32
18.47
16.68
14.96
13.24
11.47
9.65
7.83
6.07
4.4
2.73
0.94
-1.11
-3.51
-6.27
-9.27
-12.3
-15.14
-17.64
-19.81
-21.79
-23.85
-26.29
-29.33
-33.05
-37.26
-41.49
-44.95
-46.69
-45.85
-41.93
-35.11
-26.19
-16.44
-7.19
0.62
6.52
10.54
12.92
13.91
13.7
12.49
10.61
8.56
6.92
6.13
6.38
7.54
9.29
11.29
13.3
15.22
17.0
18.54
19.66
20.13
19.8
18.67
16.87
14.64
12.15
9.52
6.8
4.05
1.44
-0.85
-2.68
-4.03
-5.07
-6.03
-7.14
-8.49
-10.06
-11.69
-13.26
-14.65
-15.83
-16.85
-17.88
-19.19
-21.09
-23.75
-27.11
-30.7
-33.73
-35.26
-34.47
-31.01
-25.03
-17.23
-8.6
-0.15
7.28
13.19
17.35
19.75
20.45
19.64
17.67
15.01
12.29
10.13
8.96
9.0
10.13
12.03
14.32
16.62
18.64
20.18
21.15
21.57
21.48
20.94
20.0
18.61
16.76
14.47
11.87
9.13
6.44
3.93
1.66
-0.36
-2.14
-3.74
-5.28
-6.94
-8.9
-11.29
-14.03
-16.94
-19.72
-22.16
-24.25
-26.17
-28.32
-31.12
-34.87
-39.51
-44.58
-49.21
-52.28
-52.76
-49.98
-43.84
-34.9
-24.21
-13.04
-2.6
6.19
12.83
17.2
19.47
19.99
19.21
17.62
15.79
14.3
13.64
14.11
15.72
18.17
21.03
23.84
26.31
28.33
29.87
30.93
31.47
31.41
30.73
29.5
27.85
25.95
23.95
21.85
19.61
17.08
14.22
11.1
7.93
5.01
2.58
0.67
-0.89
-2.43
-4.24
-6.44
-8.96
-11.58
-14.12
-16.5
-18.79
-21.1
-23.57
-26.33
-29.55
-33.43
-38.02
-43.13
-48.05
-51.7
-52.82
-50.45
-44.29
-34.86
-23.35
-11.24
0.14
9.85
17.45
22.91
26.4
28.21
28.63
28.05
26.86
25.5
24.33
23.65
23.59
24.2
25.4
27.06
28.98
30.91
32.63
33.89
34.53
34.42
33.57
32.03
29.93
27.47
24.83
22.18
19.62
17.13
14.62
12.02
9.29
6.49
3.77
1.29
-0.88
-2.8
-4.58
-6.43
-8.47
-10.74
-13.16
-15.59
-17.97
-20.32
-22.8
-25.58
-28.88
-32.77
-37.2
-41.87
-46.24
-49.5
-50.76
-49.23
-44.51
-36.83
-27.0
-16.23
-5.78
3.34
10.57
15.73
18.87
20.11
19.61
17.68
14.82
11.77
9.32
8.14
8.55
10.46
13.41
16.74
19.82
22.2
23.75
24.54
24.8
24.68
24.28
23.53
22.37
20.69
18.49
15.86
12.98
10.08
7.36
4.97
2.84
0.81
-1.37
-3.89
-6.71
-9.65
-12.37
-14.62
-16.34
-17.75
-19.26
-21.36
-24.41
-28.54
-33.55
-38.92
-43.83
-47.29
-48.37
-46.41
-41.2
-33.13
-23.09
-12.34
-2.12
6.55
13.08
17.35
19.62
20.28
19.78
18.51
16.8
15.04
13.63
12.96
13.31
14.73
17.03
19.88
22.87
25.64
27.92
29.53
30.38
30.44
29.76
28.39
26.48
24.18
21.65
19.03
16.41
13.86
11.4
9.03
6.77
4.61
2.53
0.5
-1.56
-3.77
-6.16
-8.74
-11.39
-14.04
-16.6
-19.11
-21.66
-24.38
-27.44
-31.02
-35.26
-40.2
-45.53
-50.56
-54.2
-55.31
-53.0
-47.05
-38.03
-27.1
-15.68
-5.04
3.99
11.06
16.25
19.8
22.04
23.23
23.61
23.44
23.04
22.81
23.14
24.3
26.31
28.94
31.81
34.49
36.69
38.24
39.08
39.22
38.64
37.36
35.45
33.03
30.26
27.34
24.43
21.66
19.09
16.65
14.26
11.82
9.29
6.73
4.25
1.89
-0.36
-2.63
-5.05
-7.62
-10.26
-12.81
-15.17
-17.36
-19.51
-21.86
-24.65
-28.08
-32.27
-37.18
-42.47
-47.46
-51.15
-52.48
-50.64
-45.43
-37.34
-27.48
-17.16
-7.6
0.45
6.67
11.11
13.97
15.38
15.44
14.32
12.34
10.05
8.13
7.13
7.32
8.65
10.77
13.28
15.84
18.25
20.42
22.3
23.78
24.71
24.92
24.24
22.6
20.1
16.96
13.57
10.41
7.84
5.99
4.73
3.71
2.55
0.95
-1.14
-3.62
-6.24
-8.71
-10.86
-12.6
-14.02
-15.39
-17.05
-19.4
-22.7
-26.97
-31.81
-36.47
-39.93
-41.19
-39.53
-34.77
-27.38
-18.28
-8.68
0.36
8.04
13.96
