0
7.21
14.18
19.49
23.0
24.82
25.27
24.7
23.42
21.63
19.45
17.05
14.68
12.68
11.33
10.76
10.97
11.75
12.82
13.92
14.78
15.2
15.04
14.25
12.83
10.86
8.46
5.75
2.86
-0.13
-3.13
-6.12
-9.06
-11.94
-14.7
-17.24
-19.38
-21.06
-22.29
-23.32
-24.5
-26.17
-28.49
-31.35
-34.3
-36.69
-37.77
-36.9
-33.73
-28.29
-21.05
-12.78
-4.38
3.33
9.79
14.73
18.12
20.03
20.6
19.93
18.2
15.73
12.95
10.37
8.45
7.43
7.38
8.19
9.65
11.54
13.67
15.81
17.72
19.13
19.8
19.59
18.57
16.91
14.86
12.63
10.35
8.07
5.83
3.66
1.62
-0.21
-1.84
-3.3
-4.67
-6.04
-7.48
-9.05
-10.83
-12.82
-14.94
-16.88
-18.13
-18.14
-16.48
-12.98
-7.87
-1.68
4.95
11.35
16.98
21.43
24.46
25.93
25.89
24.5
22.06
18.94
15.56
12.34
9.7
7.95
7.26
7.58
8.66
10.09
11.46
12.36
12.57
12.02
10.81
9.15
7.26
5.3
3.32
1.28
-0.89
-3.2
-5.56
-7.9
-10.1
-12.19
-14.2
-16.2
-18.15
-19.97
-21.58
-22.99
-24.34
-25.81
-27.48
-29.22
-30.59
-30.99
-29.86
-26.86
-22.03
-15.76
-8.71
-1.6
4.92
10.35
14.34
16.7
17.41
16.59
14.6
11.89
8.99
6.36
4.22
2.69
1.76
1.44
1.72
2.58
3.93
5.53
7.1
8.35
9.07
9.16
8.63
7.56
6.1
4.4
2.65
0.97
-0.61
-2.19
-3.91
-5.85
-7.95
-9.97
-11.68
-12.92
-13.74
-14.43
-15.33
-16.78
-18.91
-21.64
-24.71
-27.74
-30.26
-31.75
-31.72
-29.78
-25.74
-19.78
-12.43
-4.47
3.2
9.84
15.01
18.59
20.72
21.63
21.55
20.62
19.0
16.91
14.63
12.53
10.96
10.16
10.16
10.82
11.82
12.84
13.61
13.98
13.93
13.52
12.86
11.96
10.83
9.44
7.84
6.14
4.53
3.1
1.88
0.78
-0.36
-1.64
-3.11
-4.73
-6.47
-8.29
-10.16
-12.04
-13.86
-15.55
-17.0
-18.04
-18.37
-17.6
-15.31
-11.28
-5.63
1.07
7.95
14.09
18.74
21.58
22.69
22.54
21.85
21.38
21.82
23.63
26.92
31.44
36.55
41.46
45.37
47.7
48.17
46.85
44.08
40.36
36.21
31.97
27.82
23.76
19.62
15.27
10.62
5.72
0.72
-4.16
-8.72
-12.82
-16.38
-19.34
-21.67
-23.37
-24.51
-25.31
-26.08
-27.23
-29.1
-31.83
-35.26
-38.92
-42.06
-43.85
-43.61
-40.94
-35.9
-28.97
-21.0
-12.93
-5.57
0.51
5.08
8.17
9.91
10.47
10.0
8.7
6.83
4.77
2.9
1.56
0.87
0.77
1.07
1.56
2.14
2.79
3.5
4.22
4.8
5.03
4.71
3.75
2.19
0.2
-1.96
-4.0
-5.7
-6.98
-7.89
-8.58
-9.21
-9.9
-10.66
-11.43
-12.21
-13.07
-14.19
-15.8
-18.02
-20.92
-24.39
-28.2
-31.95
-35.14
-37.14
-37.35
-35.4
-31.29
-25.45
-18.65
-11.7
-5.31
0.17
4.62
8.09
10.63
12.25
12.87
12.46
11.08
8.95
6.42
3.89
1.76
0.32
-0.3
-0.08
0.85
2.35
4.24
6.36
8.46
10.27
11.52
12.05
11.87
11.19
10.33
9.58
9.07
8.76
8.47
8.06
7.47
6.79
6.19
5.84
5.81
5.98
6.15
5.99
5.19
3.57
1.14
-1.9
-5.13
-8.09
-10.35
-11.56
-11.6
-10.5
-8.49
-5.91
-3.11
-0.4
2.02
4.08
5.72
6.83
7.32
7.1
6.18
4.8
3.35
2.31
2.05
2.69
4.07
5.79
7.37
8.42
8.74
8.33
7.33
5.92
4.22
2.32
0.28
-1.77
-3.7
-5.36
-6.74
-7.92
-9.12
-10.52
-12.24
-14.33
-16.8
-19.69
-22.96
-26.42
-29.63
-31.89
-32.44
-30.71
-26.57
-20.4
-12.99
-5.25
1.97
8.11
12.88
16.23
18.27
19.13
18.99
18.03
16.43
14.4
12.17
10.02
8.23
7.05
6.6
6.89
7.74
8.89
9.98
10.7
10.84
10.32
9.19
7.58
5.63
3.41
1.0
-1.59
-4.31
-7.11
-9.9
-12.64
-15.28
-17.83
-20.29
-22.68
-25.08
-27.58
-30.25
-33.07
-35.83
-38.09
-39.23
-38.62
-35.79
-30.65
-23.5
-15.0
-5.96
2.87
10.89
17.71
23.1
26.87
28.96
29.35
28.17
25.75
22.56
19.15
16.08
13.78
12.54
12.46
13.45
15.22
17.3
19.18
20.42
20.74
20.13
18.74
16.75
14.34
11.6
8.6
5.43
2.21
-0.94
-3.95
-6.87
-9.76
-12.61
-15.38
-17.93
-20.18
-22.18
-24.13
-26.24
-28.61
-31.05
-33.09
-34.01
-33.09
-29.83
-24.12
-16.34
-7.29
2.03
10.6
17.7
22.96
26.4
28.3
29.01
28.78
27.72
25.91
23.48
20.74
18.19
16.35
15.61
16.03
17.37
19.16
20.9
22.2
22.84
22.8
22.12
20.91
19.28
17.31
15.09
12.68
10.07
7.28
4.31
1.24
-1.82
-4.71
-7.27
-9.43
-11.22
-12.79
-14.37
-16.18
-18.34
-20.75
-23.03
-24.58
-24.7
-22.83
-18.73
-12.57
-4.92
3.4
11.53
18.67
24.3
28.12
30.12
30.47
29.46
27.4
24.58
21.32
17.99
14.99
12.72
11.45
11.21
11.78
12.81
13.95
14.95
15.69
16.1
16.11
15.63
14.57
12.94
10.82
8.3
5.45
2.28
-1.18
-4.82
-8.45
-11.85
-14.89
-17.56
-20.0
-22.43
-25.05
-27.95
-31.09
-34.24
-36.92
-38.53
-38.4
-36.01
-31.14
-24.02
-15.26
-5.76
3.57
11.92
18.76
23.81
26.97
28.32
28.02
26.36
23.74
20.63
17.5
14.73
12.6
11.26
10.76
11.11
12.18
13.72
15.36
16.67
17.31
17.13
16.17
14.58
12.49
10.0
7.17
4.1
0.96
-2.02
-4.68
-6.99
-9.03
-11.01
-13.06
-15.22
-17.34
-19.23
-20.69
-21.66
-22.2
-22.61
-23.26
-24.54
-26.7
-29.68
-33.04
-36.04
-37.74
-37.28
-34.14
-28.29
-20.23
-10.87
-1.35
7.26
14.18
19.08
22.04
23.48
23.86
23.54
22.67
21.27
19.35
17.07
14.78
12.93
11.87
11.73
12.4
13.6
15.01
16.38
17.55
18.39
18.76
18.46
17.35
15.34
12.6
9.45
6.37
3.78
1.92
0.73
-0.11
-1.01
-2.32
-4.13
-6.27
-8.4
-10.19
-11.41
-12.05
-12.28
-12.39
-12.75
-13.63
-15.18
-17.28
-19.62
-21.6
-22.55
-21.85
-19.17
-14.51
-8.35
-1.42
5.39
11.32
15.86
18.82
20.23
20.27
19.09
16.88
13.83
10.25
6.53
3.14
0.47
-1.27
-2.0
-1.89
-1.18
-0.15
0.9
1.79
2.39
2.66
2.63
2.37
1.9
1.22
0.29
-0.9
-2.31
-3.89
-5.57
-7.34
-9.17
-11.03
-12.86
-14.62
-16.33
-18.14
-20.22
-22.63
-25.2
-27.45
-28.74
-28.44
-26.17
-21.91
-16.01
-9.05
-1.73
5.35
11.66
16.86
20.76
23.28
24.43
24.29
22.93
20.55
17.43
14.04
10.89
8.45
7.0
6.57
6.93
7.78
8.82
9.85
10.72
11.31
11.43
10.96
9.83
8.12
6.0
3.69
1.27
-1.26
-3.99
-6.91
-9.91
-12.77
-15.22
-17.17
-18.68
-20.02
-21.53
-23.44
-25.77
-28.31
-30.61
-32.07
-32.09
-30.16
-26.02
-19.8
-11.99
-3.42
4.89
12.0
17.23
20.32
21.38
20.86
19.32
17.27
15.1
12.99
11.02
9.29
7.89
6.96
6.65
7.0
7.89
9.08
10.26
11.2
11.77
11.96
11.83
11.35
10.45
8.99
6.94
4.34
1.38
-1.68
-4.64
-7.33
-9.63
-11.45
-12.73
-13.48
-13.88
-14.26
-15.08
-16.64
-18.96
-21.67
-24.13
-25.58
-25.39
-23.26
-19.25
-13.74
-7.35
-0.74
5.47
10.82
15.1
18.28
20.41
21.55
21.71
20.88
19.17
16.84
14.39
12.34
11.04
10.58
10.76
11.22
11.65
11.89
11.92
11.81
11.57
11.08
10.16
8.62
6.34
3.36
-0.11
-3.73
-7.09
-9.86
-11.87
-13.24
-14.36
-15.69
-17.64
-20.35
-23.59
-26.87
-29.52
-30.87
-30.39
-27.81
-23.1
-16.54
-8.73
-0.48
7.32
13.91
18.81
21.91
23.33
23.3
22.09
19.97
17.24
14.31
11.62
9.55
8.34
7.97
8.28
9.04
10.05
11.14
12.16
12.98
13.45
13.44
12.87
11.74
10.04
7.79
4.99
1.71
-1.9
-5.61
-9.1
-12.11
-14.47
-16.22
-17.58
-18.84
-20.33
-22.26
-24.75
-27.71
-30.84
-33.62
-35.38
-35.39
-33.1
-28.33
-21.38
-12.95
-3.99
4.61
12.07
17.92
21.94
24.16
24.73
23.99
22.33
20.16
17.81
15.54
13.57
12.08
11.25
11.16
11.79
12.93
14.24
15.38
16.09
16.22
15.73
14.62
12.91
10.65
7.98
5.07
2.14
-0.64
-3.16
-5.41
-7.41
-9.21
-10.87
-12.48
-14.14
-15.91
-17.76
-19.62
-21.41
-23.18
-25.06
-27.16
-29.41
-31.42
-32.53
-32.04
-29.48
-24.79
-18.39
-10.96
-3.22
4.2
10.86
16.43
20.65
23.36
24.5
24.19
22.66
20.32
17.59
14.91
12.68
11.16
10.5
10.68
11.53
12.8
14.18
15.43
16.27
16.56
16.18
15.12
13.45
11.35
9.02
6.66
4.39
2.2
0.08
-2.05
-4.17
-6.21
-8.02
-9.5
-10.63
-11.54
-12.46
-13.67
-15.33
-17.48
-19.94
-22.32
-24.12
-24.73
-23.65
-20.63
-15.75
-9.47
-2.51
4.39
10.61
15.73
19.55
21.93
22.83
22.31
20.58
18.04
15.14
12.32
9.86
7.95
6.66
6.06
6.13
6.82
7.89
9.03
9.92
10.32
10.15
9.45
8.29
6.78
4.95
2.85
0.57
-1.76
-4.02
-6.1
-7.99
-9.7
-11.26
-12.68
-13.95
-15.08
-16.12
-17.24
-18.66
-20.54
-22.94
-25.62
-28.06
-29.56
-29.41
-27.17
-22.76
-16.56
-9.23
-1.54
5.76
12.11
17.14
20.68
22.64
23.07
22.11
20.06
17.36
14.52
12.01
10.14
9.02
8.57
8.55
8.79
9.17
9.66
10.25
10.84
11.17
11.02
10.19
8.64
6.47
3.88
1.04
-1.86
-4.72
-7.52
-10.2
-12.75
-15.15
-17.35
-19.28
-20.87
-22.07
-22.94
-23.64
-24.41
-25.54
-27.16
-29.24
-31.44
-33.19
-33.75
-32.47
-28.93
-23.17
-15.69
-7.37
0.81
8.01
13.67
17.6
19.93
20.88
20.75
19.75
18.1
16.0
13.72
11.59
9.95
9.05
8.97
9.63
10.8
12.18
13.52
14.6
15.31
15.58
15.35
14.54
13.11
11.08
8.58
5.79
2.95
0.24
-2.23
-4.4
-6.29
-7.92
-9.34
-10.58
-11.76
-13.04
-14.63
-16.69
-19.22
-21.97
-24.4
-25.83
-25.56
-23.16
-18.52
-11.99
-4.25
3.82
11.32
17.52
22.02
24.73
25.82
25.64
24.49
22.63
20.2
17.37
14.43
11.75
9.76
8.77
8.85
9.74
11.01
12.17
12.85
12.87
12.22
11.03
9.43
7.58
5.54
3.32
0.89
-1.82
-4.83
-8.05
-11.29
-14.33
-16.96
-19.13
-20.91
-22.49
-24.13
-26.02
-28.27
-30.81
-33.37
-35.49
-36.51
-35.73
-32.61
-26.98
-19.16
-9.94
-0.39
8.39
15.59
20.83
24.13
25.76
26.08
25.36
23.78
21.51
18.79
15.99
13.54
11.79
10.95
11.03
11.9
13.31
14.97
16.54
17.66
18.03
17.47
16.03
13.9
11.38
8.67
5.9
3.08
0.2
-2.72
-5.61
-8.37
-10.89
-13.11
-15.01
-16.62
-18.04
-19.47
-21.19
-23.41
-26.19
-29.28
-32.12
-33.91
-33.87
-31.44
-26.49
-19.36
-10.76
-1.61
7.17
14.91
21.16
25.78
28.82
30.4
30.66
29.74
27.77
24.97
21.63
18.19
15.07
12.69
11.3
10.97
11.56
12.77
14.19
15.37
15.93
15.61
14.34
12.28
9.71
6.98
4.33
1.9
-0.34
-2.43
-4.48
-6.55
-8.71
-10.97
-13.33
-15.71
-17.97
-19.93
-21.49
-22.75
-23.94
-25.34
-27.02
-28.75
-29.92
-29.78
-27.68
-23.33
-16.94
-9.16
-0.88
6.99
13.73
18.95
22.51
24.47
24.97
24.14
22.13
19.16
15.59
11.98
8.96
7.05
6.45
7.01
8.24
9.64
10.79
11.56
11.99
12.18
12.09
11.56
10.35
8.29
5.44
2.04
-1.5
-4.83
-7.73
-10.18
-12.3
-14.28
-16.24
-18.21
-20.15
-22.06
-23.98
-25.95
-27.87
-29.38
-29.83
-28.46
-24.74
-18.65
-10.81
-2.28
5.85
12.78
18.19
22.16
24.87
26.39
26.57
25.25
22.48
18.68
14.55
10.91
8.33
7.03
6.85
7.43
8.41
9.5
10.55
11.43
12.0
12.09
11.57
10.41
8.7
6.59
4.19
1.57
-1.27
-4.29
-7.37
-10.34
-13.04
-15.33
-17.22
-18.76
-20.08
-21.38
-22.88
-24.75
-27.1
-29.76
-32.29
-34.0
-34.12
-32.05
-27.55
-20.82
-12.52
-3.53
5.18
12.77
18.66
22.58
24.56
24.86
23.83
21.88
19.38
16.66
14.05
11.82
10.19
9.26
9.01
9.32
10.0
10.91
11.92
12.93
13.82
14.38
14.39
13.65
12.09
9.8
6.97
3.85
0.61
-2.66
-5.91
-9.09
-12.09
-14.79
-17.07
-18.92
-20.41
-21.68
-22.94
-24.38
-26.18
-28.44
-31.09
-33.86
-36.22
-37.43
-36.8
-33.8
-28.34
-20.81
-11.95
-2.73
5.95
13.37
19.13
23.07
25.28
25.98
25.47
24.05
22.0
19.54
16.89
14.31
12.1
10.54
9.8
9.91
10.72
11.97
13.37
14.64
15.5
15.71
15.06
13.44
10.91
7.7
4.15
0.61
-2.63
-5.33
-7.41
-8.88
-9.92
-10.77
-11.73
-13.01
-14.65
-16.55
-18.56
-20.66
-22.94
-25.51
-28.27
-30.76
-32.2
-31.76
-28.87
-23.52
-16.27
-8.05
0.19
7.74
14.21
19.46
23.44
26.06
27.21
26.84
25.1
22.39
19.27
16.35
14.14
12.94
12.82
13.68
15.25
17.24
19.3
21.14
22.46
23.11
22.91
21.83
19.88
17.21
14.07
10.82
7.77
5.09
2.78
0.66
-1.46
-3.73
-6.12
-8.49
-10.68
-12.55
-14.13
-15.52
-16.9
-18.49
-20.5
-23.11
-26.3
-29.79
-32.96
-34.94
-34.86
-32.06
-26.39
-18.25
-8.51
1.71
11.27
19.36
25.48
29.49
31.53
31.82
30.64
28.25
24.98
21.3
17.79
15.02
13.4
13.01
13.63
14.81
16.11
17.21
17.95
18.3
18.23
17.68
16.56
14.8
12.41
9.49
6.19
2.73
-0.67
-3.77
-6.42
-8.57
-10.35
-11.98
-13.68
-15.55
-17.52
-19.36
-20.81
-21.74
-22.26
-22.64
-23.33
-24.7
-26.97
-30.06
-33.56
-36.75
-38.77
-38.75
-36.06
-30.53
-22.54
-12.92
-2.76
6.87
15.19
21.8
26.59
29.64
31.05
30.94
29.48
26.95
23.8
20.57
17.72
15.56
14.25
13.79
14.09
15.03
16.41
17.97
19.4
20.43
20.86
20.61
19.64
17.93
15.49
12.4
8.86
5.22
1.86
-0.98
-3.25
-5.13
-6.88
-8.68
-10.55
-12.37
-13.97
-15.25
-16.28
-17.19
-18.21
-19.54
-21.34
-23.73
-26.67
-29.83
-32.64
-34.28
-33.91
-31.0
-25.49
-17.88
-8.99
0.19
8.82
16.25
22.03
25.9
27.71
27.51
25.52
22.19
18.12
14.02
10.62
8.47
7.87
8.75
10.73
13.18
15.52
17.32
18.43
18.88
18.71
17.93
16.47
14.29
11.47
8.28
5.04
2.05
-0.51
-2.65
-4.49
-6.26
-8.15
-10.31
-12.74
-15.28
-17.64
-19.5
-20.68
-21.25
-21.53
-21.99
-23.08
-25.05
-27.85
-31.16
-34.37
-36.69
-37.29
-35.41
-30.65
-23.12
-13.55
-3.1
6.98
15.62
22.26
26.79
29.4
30.41
30.03
28.46
25.91
22.75
19.44
16.48
14.24
12.91
12.47
12.74
13.54
14.63
15.88
17.13
18.23
19.01
19.23
18.7
17.27
14.96
11.95
8.56
5.16
2.04
-0.65
-2.92
-4.91
-6.74
-8.45
-10.04
-11.43
-12.6
-13.57
-14.45
-15.4
-16.62
-18.32
-20.74
-24.07
-28.32
-33.23
-38.16
-42.23
-44.51
-44.29
-41.3
-35.69
-28.02
-19.02
-9.51
-0.28
7.97
14.67
19.45
22.23
23.16
22.55
20.81
18.33
15.56
12.94
10.84
9.55
9.08
9.26
9.78
10.38
10.97
11.59
12.29
13.03
13.59
13.65
12.96
11.43
9.19
6.5
3.66
0.92
-1.57
-3.73
-5.58
-7.15
-8.53
-9.83
-11.16
-12.54
-13.91
-15.16
-16.14
-16.82
-17.35
-18.04
-19.25
-21.17
-23.74
-26.52
-28.8
-29.78
-28.77
-25.44
-19.84
-12.47
-4.12
4.25
11.78
17.83
22.1
24.62
25.61
25.34
24.07
22.01
19.38
16.46
13.59
11.13
9.37
8.51
8.63
9.66
11.38
13.41
15.27
16.53
16.85
16.14
14.48
12.11
9.28
6.28
3.37
0.74
-1.49
-3.37
-5.07
-6.81
-8.72
-10.75
-12.71
-14.39
-15.69
-16.74
-17.79
-19.17
-21.07
-23.53
-26.31
-28.96
-30.84
-31.25
-29.66
-25.82
-19.94
-12.58
-4.49
3.54
10.91
17.21
22.18
25.66
27.54
27.86
26.75
24.55
21.7
18.67
15.87
13.62
12.11
11.38
11.36
11.86
12.67
13.55
14.32
14.82
14.88
14.36
13.14
11.18
8.61
5.68
2.73
0.07
-2.16
-3.98
-5.56
-7.14
-8.85
-10.73
-12.69
-14.59
-16.26
-17.6
-18.6
-19.38
-20.19
-21.37
-23.2
-25.71
-28.61
-31.2
-32.64
-32.1
-29.1
-23.67
-16.34
-7.93
0.62
8.55
15.29
20.51
24.05
25.87
26.07
24.88
22.68
19.95
17.19
14.87
13.3
12.65
12.83
13.59
14.57
15.46
16.05
16.31
16.27
15.94
15.26
14.1
12.36
10.09
7.45
4.74
2.24
0.1
-1.62
-3.01
-4.2
-5.35
-6.64
-8.15
-9.88
-11.68
-13.36
-14.78
-15.96
-17.02
-18.22
-19.74
-21.67
-23.99
-26.52
-29.03
-31.12
-32.24
-31.78
-29.22
-24.39
-17.55
-9.46
-1.06
6.75
13.39
18.59
22.32
24.61
25.47
24.9
23.02
20.17
16.91
13.87
11.57
10.32
10.14
10.81
12.03
13.43
14.74
15.72
16.22
16.16
15.53
14.37
12.77
10.84
8.68
6.37
3.99
1.57
-0.83
-3.24
-5.6
-7.87
-9.93
-11.67
-12.99
-13.95
-14.71
-15.48
-16.48
-17.81
-19.46
-21.35
-23.26
-24.84
-25.57
-24.91
-22.38
-17.82
-11.5
-4.1
3.48
10.42
16.15
20.41
23.2
24.59
24.66
23.55
21.46
18.72
15.73
12.89
10.56
8.98
8.26
8.37
9.16
10.35
11.61
12.63
13.24
13.35
12.97
12.08
10.66
8.72
6.31
3.57
0.7
-2.08
-4.58
-6.68
-8.38
-9.71
-10.77
-11.67
-12.48
-13.26
-14.01
-14.74
-15.58
-16.75
-18.53
-21.04
-24.15
-27.35
-29.87
-30.86
-29.72
-26.25
-20.73
-13.83
-6.36
0.94
7.52
13.09
17.56
20.97
23.31
24.6
24.8
23.96
22.26
19.97
17.46
15.16
13.4
12.35
12.04
12.39
13.24
14.44
15.81
17.11
18.03
18.2
17.29
15.13
11.84
7.78
3.52
-0.45
-3.77
-6.36
-8.36
-10.02
-11.58
-13.22
-15.05
-17.0
-18.92
-20.56
-21.67
-22.19
-22.3
-22.39
-22.94
-24.31
-26.58
-29.48
-32.43
-34.71
-35.53
-34.28
-30.61
-24.59
-16.72
-7.88
0.91
8.71
14.89
19.24
21.8
22.8
22.5
21.14
19.01
16.48
13.98
11.96
10.77
10.55
11.22
12.48
13.98
15.35
16.34
16.81
16.77
16.33
15.53
14.43
13.0
11.17
8.98
6.51
3.95
1.53
-0.61
-2.44
-4.05
-5.61
-7.24
-8.93
-10.55
-11.92
-12.9
-13.56
-14.13
-14.96
-16.33
-18.36
-20.94
-23.73
-26.23
-27.89
-28.15
-26.57
-22.96
-17.47
-10.63
-3.22
3.93
10.17
15.17
18.89
21.4
22.77
23.01
22.13
20.24
17.61
14.66
11.88
9.69
8.39
8.15
8.88
10.33
12.1
13.7
14.77
15.15
14.87
14.06
12.85
11.29
9.32
6.94
4.22
1.33
-1.47
-4.04
-6.34
-8.45
-10.46
-12.43
-14.36
-16.21
-18.03
-19.94
-22.11
-24.64
-27.4
-29.97
-31.72
-31.95
-30.13
-26.09
-20.11
-12.85
-5.17
2.1
8.34
13.26
16.86
19.26
20.62
20.98
20.32
18.67
16.18
13.25
10.45
8.33
7.27
7.32
8.28
9.75
11.27
12.48
13.13
13.09
12.4
11.15
9.45
7.45
5.22
2.8
0.16
-2.71
-5.76
-8.89
-11.93
-14.75
-17.23
-19.34
-21.1
-22.61
-24.03
-25.6
-27.53
-29.88
-32.46
-34.79
-36.17
-35.88
-33.41
-28.65
-21.87
-13.73
-5.05
3.33
10.69
16.47
20.4
22.4
22.68
21.59
19.57
17.04
14.36
11.78
9.53
7.78
6.72
6.49
7.09
8.4
10.13
11.92
13.41
14.3
14.44
13.79
12.43
10.5
8.17
5.59
2.89
0.13
-2.65
-5.4
-8.03
-10.43
-12.5
-14.17
-15.5
-16.63
-17.79
-19.2
-20.99
-23.22
-25.75
-28.24
-30.14
-30.76
-29.47
-25.87
-20.05
-12.57
-4.32
3.73
10.83
16.59
20.88
23.72
25.13
25.13
23.8
21.4
18.36
15.2
12.39
10.33
9.19
9.02
9.72
11.06
12.7
14.24
15.36
15.81
15.54
14.56
12.96
10.81
8.19
5.25
2.16
-0.91
-3.79
-6.42
-8.8
-10.99
-13.08
-15.19
-17.46
-20.04
-23.02
-26.34
-29.71
-32.6
-34.31
-34.14
-31.63
-26.7
-19.71
-11.37
-2.54
5.92
13.36
19.39
23.83
26.67
27.99
27.87
26.46
23.98
20.8
17.41
14.39
12.23
11.23
11.39
12.43
13.89
15.32
16.42
17.07
17.28
17.09
16.47
15.31
13.51
11.06
8.04
4.63
1.04
-2.58
-6.1
-9.41
-12.4
-14.96
-17.03
-18.68
-20.1
-21.56
-23.41
-25.89
-28.99
-32.41
-35.47
-37.26
-36.78
-33.35
-26.78
-17.54
-6.67
4.52
14.74
23.03
28.92
32.35
33.58
33.07
31.29
28.75
25.86
22.95
20.32
18.22
16.82
16.25
16.5
17.43
18.77
20.19
21.4
22.19
22.4
21.92
20.62
18.47
15.54
12.08
8.44
4.91
1.62
-1.51
-4.62
-7.81
-10.99
-13.97
-16.6
-18.82
-20.72
-22.45
-24.13
-25.85
-27.75
-30.0
-32.77
-35.92
-38.91
-40.78
-40.37
-36.83
-29.95
-20.33
-9.19
2.05
12.12
20.24
26.13
29.87
31.71
31.9
30.66
28.22
24.92
21.24
17.8
15.15
13.72
13.61
14.59
16.21
17.94
19.35
20.19
20.38
19.95
18.92
17.29
15.07
12.35
9.3
6.18
3.24
0.57
-1.87
-4.26
-6.73
-9.24
-11.61
-13.59
-15.02
-15.99
-16.88
-18.12
-20.07
-22.83
-26.12
-29.33
-31.68
-32.39
-30.85
-26.82
-20.49
-12.44
-3.54
5.28
13.19
19.61
24.26
27.06
28.1
27.53
25.59
22.64
19.15
15.68
12.74
10.73
9.78
9.81
10.59
11.85
13.3
14.7
15.8
16.36
16.16
15.09
13.16
10.58
7.62
4.58
1.69
-0.93
-3.3
-5.54
-7.79
-10.13
-12.55
-14.93
-17.05
-18.76
-19.97
-20.83
-21.6
-22.6
-24.16
-26.42
-29.31
-32.46
-35.2
-36.69
-36.09
-32.83
-26.78
-18.41
-8.68
1.23
10.18
17.4
22.54
25.65
26.98
26.85
25.56
23.42
20.75
17.95
15.47
13.64
12.68
12.59
13.15
14.09
15.11
16.02
16.73
17.23
17.47
17.37
16.74
15.41
13.3
10.48
7.21
3.85
0.71
-1.99
-4.27
-6.26
-8.16
-10.08
-12.04
-13.94
-15.63
-16.98
-17.94
-18.61
-19.19
-19.99
-21.3
-23.37
-26.22
-29.63
-33.07
-35.77
-36.93
-35.86
-32.22
-26.08
-17.97
-8.7
0.7
9.28
16.32
21.41
24.52
25.88
25.82
24.7
22.83
20.48
17.94
15.53
13.6
12.4
12.0
12.32
13.08
14.03
14.91
15.58
15.95
15.99
15.66
14.9
13.64
11.85
9.59
6.95
4.14
1.4
-1.06
-3.14
-4.88
-6.4
-7.94
-9.62
-11.45
-13.27
-14.87
-16.1
-16.97
-17.63
-18.34
-19.36
-20.85
-22.91
-25.49
-28.36
-31.06
-32.98
-33.41
-31.78
-27.86
-21.85
-14.36
-6.22
1.75
8.92
14.85
19.34
22.27
23.62
23.46
21.96
19.47
16.44
13.34
10.61
8.53
7.26
6.83
7.21
8.28
9.87
11.71
13.46
14.82
15.54
15.49
14.68
13.2
11.16
8.69
5.97
3.19
0.55
-1.81
-3.89
-5.78
-7.57
-9.34
-11.04
-12.58
-13.88
-14.93
-15.83
-16.82
-18.11
-19.84
-21.98
-24.26
-26.17
-27.12
-26.51
-24.0
-19.56
-13.51
-6.41
1.07
8.27
14.65
19.75
23.24
24.98
24.97
23.46
20.85
17.65
14.36
11.44
9.24
7.97
7.7
8.32
9.57
11.11
12.59
13.76
14.46
14.61
14.18
13.11
11.35
8.93
6.02
2.91
-0.05
-2.61
-4.74
-6.57
-8.39
-10.41
-12.7
-15.16
-17.52
-19.51
-20.96
-21.89
-22.52
-23.21
-24.34
-26.14
-28.59
-31.25
-33.4
-34.17
-32.81
-28.98
-22.81
-14.95
-6.32
2.14
9.6
15.59
19.85
22.4
23.33
22.86
21.26
18.88
16.14
13.48
11.28
9.82
9.21
9.35
10.02
10.94
11.85
12.65
13.31
13.85
14.24
14.33
13.89
12.77
10.92
8.45
5.61
2.67
-0.21
-2.94
-5.52
-7.96
-10.21
-12.19
-13.85
-15.18
-16.27
-17.23
-18.21
-19.36
-20.85
-22.82
-25.36
-28.35
-31.35
-33.67
-34.48
-33.07
-29.17
-23.04
-15.42
-7.29
0.42
7.07
12.32
16.16
18.72
20.19
20.72
20.43
19.43
17.86
15.93
13.91
12.13
10.9
10.42
10.74
11.72
13.09
14.58
15.9
16.83
17.18
16.78
15.52
13.45
10.79
7.9
5.16
2.88
1.1
-0.36
-1.8
-3.45
-5.38
-7.48
-9.54
-11.4
-12.98
-14.34
-15.61
-16.93
-18.4
-20.02
-21.61
-22.84
-23.21
-22.19
-19.41
-14.82
-8.8
-2.04
4.67
10.65
15.5
19.06
21.32
22.31
22.05
20.63
18.26
15.32
12.28
9.61
7.7
6.75
6.78
7.67
9.15
10.9
12.59
13.94
14.72
14.83
14.22
12.89
10.91
8.38
5.48
2.45
-0.51
-3.24
-5.71
-7.91
-9.87
-11.6
-13.06
-14.25
-15.21
-16.1
-17.13
-18.53
-20.46
-22.95
-25.81
-28.63
-30.8
-31.6
-30.41
-26.92
-21.24
-13.97
-5.98
1.81
8.67
14.17
18.22
20.88
22.31
22.62
21.94
20.43
18.33
15.98
13.75
11.98
10.88
10.48
10.67
11.23
11.96
12.66
13.22
13.57
13.65
13.35
12.55
11.17
9.23
6.87
4.3
1.76
-0.6
-2.73
-4.7
-6.58
-8.44
-10.27
-12.01
-13.61
-15.01
-16.23
-17.29
-18.25
-19.22
-20.34
-21.81
-23.82
-26.43
-29.45
-32.37
-34.48
-34.95
-33.19
-28.99
-22.67
-14.93
-6.71
1.12
7.89
13.25
17.13
19.6
20.81
20.92
20.06
18.36
16.02
13.36
10.78
8.73
7.59
7.51
8.37
9.84
11.53
13.13
14.48
15.54
16.22
16.39
15.8
14.26
11.78
8.67
5.38
2.41
0.06
-1.67
-2.97
-4.15
-5.51
-7.2
-9.25
-11.53
-13.83
-15.84
-17.29
-18.1
-18.39
-18.58
-19.19
-20.69
-23.3
-26.91
-31.07
-35.1
-38.14
-39.35
-38.03
-33.84
-26.98
-18.14
-8.43
1.02
9.31
15.99
20.94
24.24
25.97
26.2
25.02
22.77
19.92
17.1
14.8
13.31
12.7
12.89
13.76
15.2
17.04
19.02
20.78
21.96
22.3
21.71
20.27
18.13
15.47
12.43
9.17
5.88
2.73
-0.15
-2.76
-5.24
-7.74
-10.33
-12.89
-15.2
-17.0
-18.25
-19.14
-20.07
-21.51
-23.78
-26.94
-30.69
-34.53
-37.74
-39.56
-39.26
-36.29
-30.48
-22.17
-12.15
-1.58
8.44
17.11
24.02
29.12
32.42
33.93
33.61
31.56
28.17
24.13
20.31
17.43
15.95
15.88
16.93
18.66
20.64
22.56
24.21
25.48
26.26
26.46
25.9
24.45
22.08
18.91
15.3
11.74
8.65
6.23
4.41
2.88
1.29
-0.59
-2.8
-5.26
-7.84
-10.52
-13.33
-16.31
-19.54
-23.01
-26.81
-31.05
-35.81
-40.93
-45.87
-49.65
-51.1
-49.25
-43.66
-34.68
-23.3
-10.84
1.38
12.28
21.19
27.78
32.05
34.19
34.54
33.41
31.17
28.14
24.75
21.48
18.86
17.31
16.96
17.61
18.81
20.1
21.19
22.02
22.64
23.03
23.01
22.3
20.67
18.06
14.66
10.8
6.83
3.03
-0.4
-3.34
-5.71
-7.53
-8.95
-10.23
-11.64
-13.3
-15.11
-16.84
-18.2
-19.1
-19.69
-20.35
-21.56
-23.71
-26.98
-31.23
-35.95
-40.3
-43.16
-43.43
-40.29
-33.57
-23.81
-12.17
-0.14
10.94
20.14
27.05
31.66
34.1
34.56
33.19
30.25
26.19
21.62
17.29
13.82
11.67
10.99
11.68
13.46
15.92
18.63
21.14
23.09
24.25
24.52
23.9
22.44
20.17
17.17
13.65
9.9
6.27
3.0
0.12
-2.56
-5.29
-8.17
-11.04
-13.58
-15.48
-16.64
-17.23
-17.66
-18.38
-19.77
-22.0
-24.99
-28.34
-31.3
-32.91
-32.2
-28.54
-21.93
-13.02
-2.96
7.02
15.87
22.99
28.15
31.36
32.7
32.3
30.33
27.1
23.01
18.56
14.28
10.62
7.93
6.42
6.16
7.05
8.84
11.13
13.44
15.33
16.42
16.53
15.59
13.68
10.94
7.59
3.94
0.32
-2.94
-5.61
-7.69
-9.4
-11.07
-12.98
-15.25
-17.78
-20.3
-22.49
-24.15
-25.24
-25.93
-26.52
-27.45
-29.12
-31.78
-35.29
-39.08
-42.14
-43.33
-41.66
-36.69
-28.61
-18.23
-6.67
4.87
15.36
24.03
30.41
34.32
35.8
35.11
32.66
28.96
24.55
19.99
15.86
12.62
10.63
10.0
10.56
11.93
13.63
15.23
16.45
17.17
17.33
16.91
15.83
14.03
11.54
8.49
5.15
1.84
-1.18
-3.74
-5.83
-7.57
-9.13
-10.67
-12.33
-14.15
-16.06
-17.96
-19.67
-21.06
-22.1
-22.9
-23.68
-24.74
-26.37
-28.78
-32.02
-35.89
-39.88
-43.18
-44.8
-43.86
-39.82
-32.72
-23.21
-12.37
-1.43
8.5
16.66
22.68
26.5
28.24
28.14
26.5
23.68
20.14
16.42
13.13
10.78
9.69
9.88
11.1
12.92
14.9
16.73
18.23
19.3
19.84
19.72
18.82
17.13
14.81
12.16
9.51
7.09
5.0
3.17
1.48
-0.19
-1.91
-3.73
-5.71
-7.88
-10.2
-12.5
-14.52
-16.04
-16.91
-17.3
-17.53
-18.01
-19.12
-21.0
-23.6
-26.57
-29.35
-31.22
-31.49
-29.6
-25.32
-18.87
-10.83
-2.05
6.61
14.44
20.94
25.84
28.99
30.35
29.97
28.04
24.9
21.03
17.02
13.44
10.78
9.33
9.14
10.0
11.51
13.21
14.74
15.9
16.66
17.04
16.93
16.2
14.61
12.11
8.9
5.37
1.95
-1.09
-3.76
-6.32
-8.98
-11.81
-14.58
-16.98
-18.75
-19.95
-20.9
-22.06
-23.84
-26.37
-29.4
-32.34
-34.38
-34.7
-32.7
-28.14
-21.3
-12.86
-3.77
4.98
12.64
18.77
23.19
25.9
26.92
26.36
24.39
21.38
17.84
14.35
11.41
9.35
8.27
8.12
8.78
10.12
11.93
13.94
15.8
17.19
17.86
17.7
16.74
15.07
12.8
10.04
6.95
3.73
0.59
-2.27
-4.78
-6.99
-9.07
-11.18
-13.4
-15.64
-17.69
-19.28
-20.28
-20.79
-21.21
-22.1
-23.97
-27.03
-30.98
-35.09
-38.29
-39.53
-38.04
-33.54
-26.3
-17.11
-7.04
2.8
11.45
18.32
23.19
26.12
27.35
27.1
25.62
23.16
20.06
16.75
13.72
11.36
9.92
9.42
9.73
10.61
11.85
13.25
14.61
15.76
16.46
16.44
15.52
13.64
10.91
7.63
4.16
0.82
-2.2
-4.87
-7.28
-9.55
-11.82
-14.13
-16.47
-18.76
-20.92
-22.83
-24.43
-25.7
-26.71
-27.64
-28.67
-29.99
-31.77
-34.03
-36.65
-39.25
-41.18
-41.56
-39.58
-34.72
-27.03
-17.23
-6.42
4.12
13.44
20.99
26.67
30.63
33.03
33.96
33.48
31.75
29.07
25.93
22.85
20.3
18.59
17.86
18.12
19.26
21.06
23.19
25.25
26.8
27.5
27.16
25.79
23.54
20.63
17.31
13.82
10.38
7.17
4.26
1.69
-0.6
-2.7
-4.69
-6.59
-8.4
-10.09
-11.67
-13.19
-14.73
-16.4
-18.23
-20.12
-21.76
-22.61
-22.02
-19.39
-14.41
-7.27
1.36
10.44
18.86
25.7
30.4
32.76
32.86
30.96
27.48
22.97
18.13
13.72
10.36
8.44
8.08
9.06
11.0
13.47
16.02
18.22
19.74
20.34
19.89
18.42
15.99
12.73
8.78
4.37
-0.15
-4.35
-7.82
-10.3
-11.83
-12.65
-13.14
-13.56
-14.01
-14.43
-14.74
-15.04
-15.56
-16.66
-18.61
-21.5
-25.11
-29.0
-32.52
