0
-5.66
-5.48
-5.15
-4.6
-3.86
-3.04
-2.23
-1.49
-0.82
-0.15
0.58
1.4
2.28
3.19
4.07
4.87
5.59
6.2
6.66
6.92
6.89
6.52
5.84
4.92
3.93
3.03
2.39
2.04
1.92
1.94
1.95
1.87
1.67
1.36
0.96
0.51
0.02
-0.49
-1.06
-1.67
-2.32
-2.97
-3.57
-4.13
-4.72
-5.49
-6.56
-7.95
-9.43
-10.62
-11.03
-10.35
-8.53
-5.92
-3.08
-0.57
1.22
2.23
2.61
2.65
2.57
2.49
2.44
2.4
2.37
2.41
2.57
2.91
3.48
4.26
5.19
6.18
7.1
7.82
8.3
8.57
8.69
8.7
8.55
8.11
7.33
6.22
4.95
3.77
2.9
2.46
2.36
2.44
2.51
2.42
2.13
1.64
0.99
0.22
-0.62
-1.51
-2.38
-3.2
-3.96
-4.69
-5.51
-6.51
-7.76
-9.16
-10.45
-11.27
-11.3
-10.39
-8.65
-6.37
-3.96
-1.8
-0.09
1.11
1.93
2.48
2.94
3.39
3.85
4.28
4.64
4.94
5.21
5.51
5.87
6.3
6.76
7.2
7.55
7.8
7.93
7.91
7.72
7.34
6.8
6.17
5.51
4.83
4.1
3.3
2.45
1.68
1.13
0.89
0.87
0.86
0.65
0.14
-0.58
-1.28
-1.76
-1.99
-2.1
-2.32
-2.77
-3.54
-4.6
-5.94
-7.62
-9.67
-12.01
-14.31
-16.05
-16.73
-16.02
-13.98
-10.98
-7.61
-4.4
-1.73
0.28
1.72
2.77
3.58
4.28
4.87
5.36
5.74
6.04
6.29
6.51
6.74
6.96
7.22
7.56
7.96
8.39
8.73
8.85
8.69
8.27
7.67
7.0
6.3
5.58
4.79
3.92
3.06
2.31
1.77
1.51
1.47
1.5
1.43
1.09
0.43
-0.49
-1.53
-2.53
-3.4
-4.18
-4.99
-5.91
-6.99
-8.19
-9.4
-10.61
-11.82
-13.01
-14.02
-14.56
-14.29
-13.0
-10.75
-7.95
-5.13
-2.79
-1.14
-0.1
0.57
1.1
1.55
1.86
1.95
1.86
1.7
1.72
2.09
2.92
4.2
5.77
7.43
8.95
10.15
10.97
11.45
11.75
11.97
12.14
12.18
11.95
11.36
10.43
9.24
7.95
6.69
5.58
4.69
3.96
3.24
2.29
0.93
-0.84
-2.78
-4.46
-5.49
-5.75
-5.48
-5.16
-5.31
-6.22
-7.9
-10.1
-12.42
-14.43
-15.76
-16.15
-15.45
-13.71
-11.17
-8.25
-5.38
-2.96
-1.16
0.02
0.74
1.23
1.68
2.17
2.72
3.29
3.87
4.49
5.27
6.28
7.54
8.9
10.17
11.14
11.77
12.12
12.33
12.49
12.58
12.46
11.94
10.94
9.56
8.06
6.74
5.8
5.27
4.98
4.72
4.29
3.63
2.73
1.7
0.6
-0.52
-1.63
-2.69
-3.66
-4.57
-5.48
-6.59
-8.05
-9.96
-12.22
-14.54
-16.5
-17.66
-17.71
-16.62
-14.56
-11.86
-8.91
-6.01
-3.35
-1.08
0.74
2.08
2.98
3.5
3.78
3.95
4.14
4.42
4.8
5.28
5.81
6.35
6.89
7.43
8.0
8.64
9.33
9.95
10.33
10.28
9.72
8.7
7.46
6.21
5.2
4.53
4.23
4.22
4.35
4.43
4.26
3.68
2.64
1.26
-0.27
-1.69
-2.85
-3.72
-4.38
-5.0
-5.73
-6.71
-7.99
-9.54
-11.23
-12.82
-14.0
-14.44
-13.86
-12.19
-9.55
-6.31
-2.98
-0.09
1.98
3.12
3.52
3.56
3.68
4.18
5.15
6.46
7.88
9.17
10.22
11.03
11.63
12.06
12.29
12.3
12.0
11.43
10.65
9.76
8.82
7.83
6.75
5.57
4.34
3.18
2.27
1.75
1.67
1.93
2.37
2.75
2.87
2.61
1.97
1.02
-0.13
-1.35
-2.61
-3.91
-5.27
-6.69
-8.14
-9.57
-10.93
-12.16
-13.17
-13.8
-13.81
-12.98
-11.2
-8.62
-5.59
-2.61
-0.11
1.67
2.73
3.24
3.43
3.52
3.66
3.89
4.24
4.74
5.4
6.18
7.01
7.79
8.38
8.74
8.83
8.71
8.42
8.02
7.57
7.15
6.82
6.57
6.35
6.03
5.5
4.78
4.01
3.41
3.15
3.25
3.49
3.55
3.19
2.34
1.15
-0.14
-1.37
-2.48
-3.56
-4.69
-5.89
-7.07
-8.14
-9.05
-9.83
-10.49
-11.01
-11.21
-10.91
-9.94
-8.31
-6.25
-4.04
-1.98
-0.22
1.22
2.4
3.34
3.96
4.14
3.83
3.15
2.34
1.81
1.83
2.49
3.64
4.92
6.03
6.77
7.11
7.16
7.08
6.95
6.83
6.71
6.54
6.29
5.92
5.45
4.89
4.27
3.59
2.86
2.07
1.22
0.3
-0.6
-1.42
-2.07
-2.52
-2.81
-3.04
-3.33
-3.84
-4.65
-5.79
-7.18
-8.61
-9.74
-10.25
-9.88
-8.6
-6.65
-4.43
-2.36
-0.73
0.39
1.09
1.56
1.9
2.11
2.1
1.83
1.35
0.91
0.78
1.16
2.05
3.22
4.41
5.37
6.07
6.57
7.03
7.49
7.93
8.2
8.16
7.76
7.05
6.24
5.51
5.04
4.9
5.03
5.26
5.41
5.37
5.12
4.68
4.1
3.34
2.37
1.16
-0.21
-1.57
-2.77
-3.74
-4.56
-5.44
-6.57
-8.06
-9.79
-11.46
-12.67
-13.01
-12.27
-10.5
-8.02
-5.28
-2.75
-0.75
0.66
1.6
2.27
2.82
3.31
3.7
3.93
3.95
3.84
3.68
3.61
3.73
4.05
4.47
4.81
4.91
4.68
4.18
3.61
3.2
3.08
3.21
3.41
3.49
3.32
2.96
2.58
2.36
2.37
2.53
2.66
2.59
2.24
1.64
0.85
-0.02
-0.91
-1.76
-2.53
-3.18
-3.71
-4.17
-4.71
-5.45
-6.44
-7.66
-8.94
-10.05
-10.71
-10.73
-10.04
-8.71
-6.96
-5.1
-3.38
-1.99
-1.02
-0.4
0.02
0.4
0.86
1.45
2.07
2.57
2.84
2.86
2.76
2.76
3.03
3.61
4.4
5.18
5.79
6.16
6.31
6.33
6.25
6.08
5.79
5.39
4.9
4.33
3.73
3.15
2.63
2.22
1.96
1.86
1.83
1.76
1.49
0.92
0.01
-1.12
-2.35
-3.52
-4.52
-5.34
-6.02
-6.66
-7.33
-8.11
-9.04
-10.1
-11.18
-12.08
-12.54
-12.33
-11.35
-9.72
-7.76
-5.87
-4.35
-3.31
-2.66
-2.2
-1.74
-1.24
-0.77
-0.5
-0.47
-0.63
-0.77
-0.64
-0.1
0.84
2.03
3.17
4.05
4.58
4.84
5.0
5.19
5.48
5.75
5.81
5.45
4.6
3.39
2.1
1.08
0.59
0.67
1.1
1.55
1.69
1.35
0.5
-0.72
-2.11
-3.42
-4.41
-4.94
-4.95
-4.58
-4.1
-3.84
-4.09
-4.91
-6.17
-7.58
-8.84
-9.66
-9.89
-9.5
-8.57
-7.27
-5.79
-4.36
-3.12
-2.13
-1.44
-1.05
-0.9
-0.91
-0.88
-0.63
-0.02
0.97
2.21
3.47
4.55
5.34
5.8
5.97
5.96
5.85
5.68
5.52
5.35
5.1
4.69
4.05
3.13
2.03
0.9
-0.05
-0.67
-0.91
-0.89
-0.81
-0.89
-1.22
-1.75
-2.26
-2.53
-2.47
-2.21
-2.05
-2.26
-3.03
-4.3
-5.84
-7.43
-8.87
-10.07
-10.97
-11.46
-11.36
-10.51
-8.91
-6.73
-4.33
-2.11
-0.33
0.97
1.89
2.59
3.14
3.5
3.54
3.21
2.6
1.95
1.56
1.63
2.18
3.07
4.07
5.0
5.76
6.36
6.85
7.28
7.63
7.84
7.85
7.61
7.17
6.62
6.09
5.66
5.38
5.18
4.95
4.5
3.73
2.58
1.14
-0.4
-1.86
-3.14
-4.26
-5.3
-6.32
-7.29
-8.13
-8.79
-9.36
-10.04
-10.99
-12.21
-13.43
-14.24
-14.25
-13.3
-11.56
-9.39
-7.21
-5.35
-3.87
-2.7
-1.66
-0.61
0.54
1.7
2.73
3.51
4.01
4.32
4.59
4.95
5.42
5.95
6.42
6.69
6.73
6.55
6.23
5.85
5.47
5.1
4.74
4.34
3.81
3.16
2.39
1.59
0.81
0.15
-0.3
-0.47
-0.31
0.16
0.79
1.29
1.34
0.74
-0.49
-2.08
-3.62
-4.77
-5.37
-5.57
-5.64
-5.88
-6.43
-7.29
-8.33
-9.41
-10.34
-10.94
-11.01
-10.39
-9.04
-7.11
-4.92
-2.87
-1.24
-0.15
0.44
0.66
0.64
0.45
0.14
-0.16
-0.31
-0.18
0.29
1.03
1.87
2.66
3.33
3.89
4.41
4.93
5.47
5.96
6.36
6.62
6.71
6.62
6.31
5.75
4.99
4.12
3.28
2.59
2.05
1.57
0.98
0.12
-1.03
-2.34
-3.6
-4.56
-5.12
-5.31
-5.26
-5.13
-4.99
-4.89
-4.83
-4.86
-5.06
-5.49
-6.17
-6.97
-7.69
-8.14
-8.11
-7.55
-6.53
-5.2
-3.78
-2.42
-1.21
-0.14
0.85
1.81
2.73
3.52
4.07
4.3
4.21
3.89
3.45
3.09
2.96
3.14
3.66
4.42
5.27
6.02
6.54
6.78
6.78
6.61
6.34
6.0
5.66
5.35
5.05
4.72
4.24
3.51
2.5
1.32
0.19
-0.66
-1.12
-1.21
-1.1
-1.01
-1.07
-1.34
-1.76
-2.22
-2.63
-2.97
-3.3
-3.72
-4.41
-5.48
-6.98
-8.86
-10.86
-12.64
-13.84
-14.15
-13.49
-11.95
-9.82
-7.42
-5.03
-2.83
-0.88
0.78
2.13
3.15
3.87
4.37
4.74
5.04
5.24
5.3
5.14
4.77
4.32
3.97
3.86
4.03
4.35
4.63
4.66
4.35
3.73
2.94
2.15
1.52
1.13
0.98
1.02
1.17
1.34
1.53
1.69
1.82
1.91
1.9
1.73
1.39
0.88
0.31
-0.21
-0.64
-1.02
-1.45
-1.99
-2.63
-3.27
-3.83
-4.31
-4.83
-5.6
-6.75
-8.21
-9.75
-11.03
-11.71
-11.63
-10.79
-9.3
-7.39
-5.28
-3.22
-1.41
0.02
0.99
1.55
1.77
1.77
1.63
1.42
1.15
0.9
0.75
0.83
1.24
2.02
3.05
4.18
5.21
6.01
6.58
6.95
7.23
7.4
7.46
7.29
6.81
6.0
4.92
3.72
2.6
1.78
1.35
1.25
1.28
1.16
0.74
0.01
-0.85
-1.65
-2.26
-2.73
-3.25
-4.01
-5.01
-6.16
-7.23
-8.1
-8.8
-9.46
-10.21
-10.98
-11.54
-11.55
-10.74
-9.09
-6.83
-4.4
-2.24
-0.6
0.49
1.14
1.51
1.73
1.84
1.86
1.84
1.87
2.09
2.56
3.26
4.14
5.1
6.04
6.87
7.49
7.81
7.79
7.44
6.89
6.25
5.66
5.15
4.7
4.26
3.79
3.33
2.99
2.86
2.97
3.25
3.55
3.71
3.61
3.21
2.53
1.61
0.54
-0.61
-1.75
-2.77
-3.68
-4.55
-5.57
-6.93
-8.69
-10.71
-12.64
-14.06
-14.6
-14.15
-12.79
-10.84
-8.64
-6.54
-4.72
-3.26
-2.16
-1.3
-0.63
-0.09
0.3
0.53
0.62
0.65
0.77
1.11
1.75
2.67
3.79
5.01
6.21
7.31
8.24
8.9
9.23
9.19
8.84
8.35
7.89
7.62
7.53
7.47
7.25
6.66
5.69
4.45
3.19
2.1
1.24
0.59
0.0
-0.66
-1.49
-2.52
-3.76
-5.11
-6.46
-7.67
-8.62
-9.32
-9.91
-10.61
-11.57
-12.85
-14.27
-15.51
-16.24
-16.16
-15.16
-13.3
-10.77
-7.9
-5.04
-2.52
-0.57
0.7
1.35
1.53
1.47
1.38
1.4
1.57
1.92
2.41
3.05
3.79
4.63
5.49
6.3
7.0
7.58
8.05
8.45
8.78
8.99
8.99
8.71
8.11
7.23
6.17
5.05
3.99
3.11
2.42
1.92
1.53
1.12
0.61
-0.05
-0.85
-1.64
-2.32
-2.82
-3.2
-3.63
-4.31
-5.37
-6.81
-8.52
-10.29
-11.91
-13.18
-13.86
-13.77
-12.77
-10.85
-8.22
-5.27
-2.48
-0.25
1.23
2.01
2.32
2.4
2.47
2.59
2.8
3.09
3.49
4.06
4.88
5.95
7.2
8.48
9.6
10.4
10.82
10.87
10.65
10.34
10.03
9.74
9.43
8.98
8.28
7.37
6.34
5.38
4.68
4.27
4.08
3.96
3.77
3.4
2.85
2.16
1.34
0.36
-0.8
-2.16
-3.64
-5.12
-6.51
-7.81
-9.12
-10.56
-12.11
-13.61
-14.7
-15.03
-14.35
-12.67
-10.23
-7.42
-4.66
-2.27
-0.38
0.98
1.9
2.48
2.79
2.91
2.9
2.87
2.97
3.36
4.14
5.31
6.74
8.21
9.53
10.6
11.41
11.98
12.34
12.42
12.16
11.57
10.73
9.83
8.99
8.3
7.72
7.14
6.52
5.9
5.38
5.01
4.8
4.61
4.3
3.77
3.0
2.08
1.11
0.09
-1.0
-2.26
-3.73
-5.4
-7.21
-9.11
-11.08
-13.1
-15.09
-16.86
-18.06
-18.37
-17.54
-15.59
-12.74
-9.46
-6.24
-3.46
-1.32
0.2
1.28
2.09
2.74
3.28
3.71
4.02
4.27
4.53
4.88
5.39
6.08
6.93
7.86
8.82
9.71
10.47
11.05
11.4
11.47
11.25
10.76
10.03
9.13
8.15
7.14
6.16
5.24
4.41
3.73
3.26
2.99
2.89
2.86
2.75
2.48
2.04
1.47
0.82
0.13
-0.63
-1.45
-2.37
-3.42
-4.62
-6.04
-7.75
-9.73
-11.86
-13.8
-15.17
-15.59
-14.89
-13.18
-10.77
-8.09
-5.48
-3.18
-1.28
0.2
1.25
1.85
2.06
2.02
1.96
2.09
2.5
3.19
4.05
4.98
5.89
6.77
7.61
8.39
9.06
9.54
9.79
9.78
9.49
8.9
8.02
6.92
5.72
4.6
3.71
3.14
2.87
2.75
2.64
2.37
1.84
1.0
-0.1
-1.38
-2.73
-4.03
-5.21
-6.26
-7.27
-8.41
-9.8
-11.44
-13.18
-14.66
-15.51
-15.4
-14.27
-12.21
-9.52
-6.56
-3.65
-1.04
1.11
2.69
3.75
4.36
4.64
4.72
4.68
4.62
4.63
4.84
5.39
6.36
7.68
9.15
10.5
11.5
12.03
12.12
11.81
11.22
10.4
9.46
8.5
7.64
6.95
6.43
6.0
5.51
4.86
4.04
3.11
2.23
1.51
0.88
0.18
-0.82
-2.22
-3.93
-5.68
-7.17
-8.27
-9.06
-9.77
-10.7
-11.97
-13.52
-15.1
-16.37
-17.04
-16.92
-15.94
-14.17
-11.8
-9.1
-6.38
-3.91
-1.85
-0.22
1.05
2.08
2.9
3.58
4.09
4.45
4.69
4.9
5.14
5.49
5.99
6.65
7.41
8.19
8.89
9.41
9.65
9.61
9.3
8.81
8.21
7.51
6.67
5.68
4.55
3.39
2.36
1.57
1.0
0.58
0.19
-0.21
-0.6
-0.91
-1.16
-1.46
-1.93
-2.67
-3.64
-4.69
-5.7
-6.64
-7.63
-8.86
-10.45
-12.34
-14.2
-15.54
-15.91
-15.0
-12.85
-9.82
-6.48
-3.41
-0.99
0.68
1.78
2.59
3.31
4.02
4.64
5.09
5.4
5.7
6.17
6.92
7.91
8.98
9.96
10.69
11.18
11.49
11.64
11.65
11.43
10.95
10.21
9.31
8.36
7.43
6.51
5.6
4.71
3.9
3.28
2.9
2.67
2.41
1.91
1.06
-0.11
-1.42
-2.66
-3.66
-4.4
-4.95
-5.48
-6.18
-7.21
-8.68
-10.54
-12.58
-14.46
-15.8
-16.28
-15.74
-14.22
-11.91
-9.15
-6.35
-3.87
-1.97
-0.78
-0.2
-0.0
0.04
0.1
0.23
0.42
0.66
1.01
1.57
2.43
3.55
4.75
5.76
6.38
6.55
6.39
6.14
6.03
6.2
6.69
7.37
8.08
8.63
8.86
8.62
7.9
6.83
5.6
4.45
3.55
2.93
2.5
2.08
1.49
0.68
-0.33
-1.47
-2.63
-3.7
-4.64
-5.42
-6.05
-6.66
-7.37
-8.35
-9.68
-11.29
-12.94
-14.25
-14.84
-14.44
-13.02
-10.79
-8.14
-5.48
-3.14
-1.27
0.13
1.16
1.98
2.67
3.3
3.86
4.34
4.72
5.01
5.25
5.48
5.71
5.93
6.1
6.17
6.15
6.09
6.04
6.04
6.05
5.99
5.78
5.41
4.9
4.32
3.72
3.16
2.67
2.28
2.02
1.86
1.74
1.52
1.08
0.37
-0.52
-1.45
-2.24
-2.76
-3.06
-3.32
-3.81
-4.79
-6.35
-8.39
-10.62
-12.61
-13.91
-14.22
-13.47
-11.77
-9.43
-6.84
-4.33
-2.16
-0.5
0.66
1.36
1.73
1.96
2.23
2.69
3.41
4.35
5.37
6.31
7.03
7.53
7.87
8.2
8.62
9.2
9.85
10.45
10.83
10.85
10.46
9.7
8.75
7.77
6.88
6.14
5.47
4.83
4.17
3.5
2.86
2.25
1.59
0.78
-0.26
-1.51
-2.83
-4.08
-5.13
-5.98
-6.7
-7.42
-8.18
-8.97
-9.73
-10.42
-11.09
-11.84
-12.72
-13.63
-14.3
-14.35
-13.49
-11.7
-9.27
-6.71
-4.58
-3.16
-2.45
-2.2
-2.04
-1.71
-1.13
-0.35
0.49
1.27
1.96
2.6
3.22
3.89
4.63
5.49
6.51
7.7
8.94
10.1
10.95
11.33
11.18
10.55
9.64
8.64
7.7
6.89
6.18
5.52
4.84
4.15
3.47
2.9
2.47
2.16
1.85
1.35
0.54
-0.55
-1.73
-2.73
-3.32
-3.47
-3.37
-3.35
-3.69
-4.52
-5.77
-7.32
-8.98
-10.65
-12.2
-13.46
-14.22
-14.26
-13.47
-11.91
-9.83
-7.6
-5.52
-3.82
-2.53
-1.58
-0.79
-0.06
0.64
1.28
1.83
2.27
2.65
3.07
3.61
4.31
5.13
6.0
6.84
7.57
8.16
8.58
8.83
8.91
8.8
8.51
8.05
7.42
6.7
5.94
5.23
4.65
4.21
3.88
3.59
3.26
2.85
2.31
1.65
0.88
0.06
-0.77
-1.58
-2.39
-3.21
-4.09
-5.05
-6.13
-7.36
-8.79
-10.43
-12.21
-13.88
-15.11
-15.53
-14.89
-13.23
-10.81
-8.09
-5.51
-3.39
-1.83
-0.74
0.09
0.82
1.56
2.3
3.01
3.69
4.36
5.12
6.05
7.15
8.36
9.56
10.61
11.42
11.94
12.2
12.22
12.04
11.69
11.2
10.59
9.92
9.25
8.64
8.13
7.72
7.34
6.88
6.29
5.54
4.66
3.73
2.77
1.8
0.79
-0.27
-1.4
-2.6
-3.9
-5.27
-6.64
-7.94
-9.05
-9.92
-10.58
-11.19
-11.96
-13.02
-14.34
-15.65
-16.56
-16.66
-15.77
-13.95
-11.56
-9.02
-6.67
-4.69
-3.05
-1.66
-0.47
0.51
1.22
1.61
1.74
1.72
1.7
1.79
2.06
2.55
3.27
4.17
5.16
6.11
6.86
7.36
7.58
7.56
7.32
6.91
6.34
5.67
5.02
4.46
4.03
3.73
3.48
3.27
3.08
2.94
2.84
2.71
2.4
1.81
0.94
-0.12
-1.15
-2.0
-2.6
-3.0
-3.34
-3.76
-4.35
-5.14
-6.11
-7.22
-8.4
-9.53
-10.45
-10.97
-10.92
-10.26
-9.07
-7.55
-5.86
-4.17
-2.54
-1.05
0.24
1.25
1.96
2.38
2.57
2.62
2.64
2.68
2.83
3.14
3.61
4.21
4.81
5.26
5.44
5.36
5.11
4.86
4.74
4.78
4.9
4.98
4.9
4.66
4.3
3.89
3.53
3.26
3.13
3.1
3.12
3.1
2.96
2.63
2.08
1.34
0.49
-0.42
-1.33
-2.28
-3.32
-4.49
-5.82
-7.25
-8.73
-10.18
-11.47
-12.46
-12.98
-12.86
-12.03
-10.52
-8.49
-6.13
-3.67
-1.36
0.63
2.15
3.13
3.61
3.72
3.62
3.46
3.34
3.3
3.35
3.49
3.77
4.17
4.65
5.09
5.43
5.66
5.83
5.97
6.06
6.0
5.69
5.12
4.35
3.53
2.79
2.22
1.91
1.88
2.14
2.63
3.23
3.73
3.88
3.54
2.71
1.53
0.26
-0.92
-1.91
-2.79
-3.72
-4.84
-6.27
-7.97
-9.86
-11.75
-13.46
-14.68
-15.22
-14.92
-13.78
-11.98
-9.84
-7.73
-5.92
-4.52
-3.42
-2.42
-1.32
-0.05
1.28
2.43
3.21
3.51
3.47
3.37
3.49
4.01
4.79
5.53
5.96
5.95
5.65
5.35
5.24
5.34
5.47
5.37
4.91
4.19
3.44
2.9
2.67
2.67
2.73
2.7
2.54
2.26
1.93
1.56
1.14
0.69
0.25
-0.09
-0.25
-0.24
-0.22
-0.44
-1.16
-2.49
-4.41
-6.64
-8.85
-10.66
-11.79
-12.1
-11.57
-10.37
-8.71
-6.89
-5.19
-3.81
-2.83
-2.21
-1.81
-1.46
-1.03
-0.47
0.18
0.83
1.44
1.99
2.54
3.19
4.02
5.06
6.21
7.26
7.98
8.21
7.93
7.26
6.42
5.6
4.89
4.27
3.69
3.13
2.62
2.23
2.0
1.89
1.74
1.37
0.68
-0.28
-1.36
-2.33
-3.02
-3.39
-3.52
-3.55
-3.6
-3.8
-4.23
-5.02
-6.24
-7.82
-9.5
-10.82
-11.31
-10.71
-9.04
-6.68
-4.15
-1.89
-0.14
1.15
2.14
2.99
3.78
4.51
5.13
5.62
5.97
6.16
6.25
6.28
6.34
6.48
6.68
6.9
7.01
6.97
6.78
6.55
6.38
6.37
6.56
6.87
7.21
7.4
7.31
6.85
6.04
4.97
3.83
2.81
2.08
1.67
1.49
1.39
1.18
0.77
0.13
-0.65
-1.48
-2.29
-3.05
-3.82
-4.64
-5.6
-6.7
-7.87
-8.94
-9.68
-9.86
-9.33
-8.16
-6.53
-4.74
-3.09
-1.77
-0.85
-0.27
0.04
0.2
0.3
0.41
0.58
0.77
0.97
1.19
1.44
1.77
2.18
2.65
3.08
3.38
3.52
3.53
3.5
3.5
3.54
3.59
3.59
3.48
3.24
2.9
2.53
2.17
1.87
1.65
1.51
1.43
1.32
1.17
0.96
0.7
0.42
0.18
-0.01
-0.13
-0.2
-0.23
-0.28
-0.43
-0.77
-1.39
-2.33
-3.6
-5.11
-6.74
-8.23
-9.27
-9.63
-9.17
-7.94
-6.16
-4.19
-2.32
-0.8
0.28
0.97
1.36
1.55
1.58
1.45
1.14
0.65
0.08
-0.45
-0.74
-0.69
-0.23
0.53
1.39
2.21
2.91
3.5
4.01
4.46
4.79
4.91
4.77
4.42
4.02
3.77
3.78
4.08
4.57
5.01
5.22
5.09
4.61
3.87
2.98
2.03
1.09
0.22
-0.59
-1.38
-2.21
-3.2
-4.38
-5.78
-7.3
-8.8
-10.09
-10.99
-11.32
-10.95
-9.89
-8.21
-6.15
-4.03
-2.15
-0.69
0.32
0.98
1.47
1.89
2.33
2.78
3.14
3.36
3.4
3.32
3.31
3.58
4.26
5.35
6.63
7.81
8.62
9.01
9.07
8.97
8.8
8.45
7.73
6.49
4.81
3.0
1.44
0.41
-0.04
-0.14
-0.18
-0.39
-0.82
-1.34
-1.78
-2.1
-2.33
-2.56
-2.86
-3.21
-3.55
-3.86
-4.2
-4.67
-5.44
-6.55
-7.93
-9.36
-10.5
-11.0
-10.61
-9.3
-7.26
-4.9
-2.7
-1.04
-0.08
0.34
0.48
0.6
0.82
1.1
1.33
1.47
1.56
1.69
1.89
2.13
2.33
2.41
2.42
2.47
2.68
3.07
3.55
3.96
4.2
4.25
4.17
4.04
3.87
3.66
3.36
3.0
2.65
2.36
2.1
1.74
1.12
0.19
-0.97
-2.17
-3.17
-3.85
-4.22
-4.38
-4.45
-4.48
-4.54
-4.68
-5.03
-5.72
-6.78
-8.08
-9.34
-10.2
-10.34
-9.63
-8.17
-6.24
-4.24
-2.56
-1.39
-0.71
-0.35
-0.12
0.12
0.36
0.48
0.42
0.19
-0.12
-0.33
-0.33
-0.08
0.38
0.93
1.5
2.0
2.4
2.68
2.85
2.96
3.05
3.11
3.15
3.13
3.01
2.79
2.5
2.18
1.86
1.61
1.43
1.33
1.26
1.16
0.97
0.66
0.24
-0.26
-0.77
-1.27
-1.75
-2.28
-2.93
-3.8
-4.92
-6.27
-7.7
-9.01
-9.97
-10.41
-10.24
-9.5
-8.29
-6.78
-5.16
-3.63
-2.31
-1.25
-0.42
0.33
1.1
1.91
2.68
3.33
3.84
4.34
5.02
5.95
7.06
8.05
8.64
8.68
8.3
7.77
7.36
7.12
6.92
6.51
5.72
4.61
3.41
2.43
1.81
1.54
1.41
1.22
0.89
0.49
0.17
0.06
0.2
0.48
0.7
0.69
0.35
-0.33
-1.19
-2.01
-2.63
-2.91
-2.92
-2.84
-2.92
-3.37
-4.29
-5.61
-7.12
-8.61
-9.81
-10.51
-10.59
-10.01
-8.88
-7.42
-5.95
-4.68
-3.71
-2.96
-2.34
-1.71
-1.0
-0.26
0.47
1.11
1.61
1.96
2.21
2.38
2.52
2.68
2.83
3.01
3.18
3.35
3.48
3.54
3.5
3.35
3.16
2.97
2.83
2.73
2.63
2.48
2.32
2.2
2.19
2.27
2.32
2.22
1.88
1.36
0.77
0.21
-0.29
-0.77
-1.31
-1.94
-2.6
-3.22
-3.67
-3.93
-4.05
-4.16
-4.46
-5.13
-6.19
-7.46
-8.59
-9.19
-9.03
-8.05
-6.46
-4.63
-2.94
-1.66
-0.9
-0.58
-0.49
-0.4
-0.09
0.47
1.14
1.69
1.92
1.82
1.57
1.46
1.68
2.23
2.94
3.58
4.02
4.3
4.52
4.74
4.91
4.83
4.32
3.34
2.02
0.69
-0.36
-0.91
-0.94
-0.62
-0.16
0.25
0.54
0.68
0.71
0.65
0.47
0.17
-0.27
-0.84
-1.53
-2.3
-3.16
-4.11
-5.19
-6.4
-7.7
-8.93
-9.84
-10.14
-9.61
-8.17
-6.0
-3.46
-0.96
1.12
2.6
3.51
4.02
4.31
4.5
4.62
4.65
4.62
4.59
4.7
5.02
5.54
6.16
6.75
7.24
7.6
7.86
7.98
7.91
7.56
6.94
6.2
5.53
5.1
4.89
4.74
4.38
3.69
2.72
1.67
0.78
0.16
-0.22
-0.48
-0.76
-1.09
-1.43
-1.7
-1.9
-2.08
-2.29
-2.58
-2.92
-3.24
-3.53
-3.85
-4.35
-5.14
-6.24
-7.53
-8.79
-9.75
-10.26
-10.28
-9.83
-9.02
-7.99
-6.92
-6.02
-5.46
-5.3
-5.4
-5.5
-5.33
-4.74
-3.78
-2.65
-1.56
-0.61
0.21
1.03
1.91
2.87
3.81
4.62
5.19
5.52
5.66
5.69
5.65
5.55
5.36
5.04
4.64
4.23
3.89
3.7
3.62
3.56
3.42
3.15
2.77
2.38
2.09
1.92
1.8
1.6
1.23
0.66
-0.01
-0.66
-1.15
-1.5
-1.82
-2.28
-3.04
-4.16
-5.58
-7.12
-8.62
-9.88
-10.74
-11.06
-10.68
-9.56
-7.8
-5.64
-3.44
-1.55
-0.14
0.79
1.39
1.82
2.23
2.62
2.99
3.27
3.45
3.58
3.72
3.97
4.36
4.91
5.54
6.18
6.67
6.9
6.78
6.32
5.63
4.81
4.04
3.33
2.68
2.03
1.35
0.71
0.24
0.06
0.2
0.53
0.83
0.88
0.57
0.01
-0.65
-1.19
-1.5
-1.59
-1.55
-1.59
-1.89
-2.58
-3.73
-5.25
-6.98
-8.65
-9.93
-10.57
-10.41
-9.5
-8.06
-6.41
-4.85
-3.62
-2.73
-2.13
-1.7
-1.33
-1.0
-0.7
-0.41
-0.06
0.44
1.19
2.23
3.55
5.04
6.54
7.83
8.73
9.13
9.03
8.58
7.95
7.31
6.79
6.4
6.12
5.93
5.77
5.63
5.5
5.38
5.28
5.17
5.04
4.85
4.56
4.13
3.57
2.91
2.21
1.51
0.82
0.15
-0.54
-1.29
-2.14
-3.16
-4.43
-5.99
-7.84
-9.85
-11.77
-13.25
-13.96
-13.66
-12.35
-10.3
-7.96
-5.81
-4.17
-3.14
-2.6
-2.32
-2.1
-1.79
-1.37
-0.86
-0.3
0.3
0.96
1.7
2.54
3.43
4.32
5.12
5.79
6.3
6.63
6.83
6.88
6.77
6.5
6.06
5.51
4.88
4.27
3.76
3.42
3.28
3.32
3.43
3.39
3.02
2.21
1.06
-0.22
-1.34
-2.1
-2.5
-2.7
-2.96
-3.51
-4.45
-5.75
-7.27
-8.82
-10.26
-11.43
-12.24
-12.6
-12.4
-11.63
-10.32
-8.65
-6.84
-5.12
-3.66
-2.48
-1.51
-0.67
0.06
0.62
0.92
0.95
0.78
0.6
0.64
1.01
1.77
2.83
4.06
5.33
6.53
7.58
8.44
9.04
9.31
9.21
8.73
7.97
7.1
6.36
5.91
5.84
6.01
6.16
5.97
5.24
3.94
2.26
0.52
-0.97
-2.06
-2.78
-3.32
-3.96
-4.9
-6.21
-7.82
-9.57
-11.25
-12.69
-13.68
-14.04
-13.65
-12.43
-10.42
-7.88
-5.13
-2.54
-0.4
1.17
2.22
2.9
3.37
3.71
3.92
3.98
3.92
3.84
3.91
4.26
4.88
5.67
6.37
6.81
6.93
6.8
6.58
6.41
6.36
6.36
6.34
6.21
6.0
5.78
5.67
5.71
5.84
5.87
5.6
4.91
3.84
2.59
1.41
0.44
-0.3
-0.93
-1.6
-2.38
-3.32
-4.39
-5.61
-7.03
-8.7
-10.55
-12.37
-13.81
-14.52
-14.29
-13.08
-11.08
-8.61
-6.03
-3.66
-1.7
-0.21
0.86
1.63
2.23
2.75
3.27
3.81
4.42
5.16
6.11
7.31
8.76
10.35
11.83
12.93
13.39
13.13
12.26
11.07
9.92
9.03
8.42
7.91
7.22
6.21
4.93
3.64
2.65
2.14
2.08
2.18
2.14
1.72
0.93
-0.06
-1.02
-1.82
-2.44
-2.97
-3.54
-4.23
-5.12
-6.25
-7.67
-9.37
-11.29
-13.14
-14.55
-15.11
-14.56
-12.93
-10.52
-7.81
-5.25
-3.11
-1.41
-0.01
1.32
2.68
4.04
5.27
6.23
6.88
7.27
7.58
7.95
8.49
9.17
9.85
10.36
10.53
10.34
9.88
9.33
8.86
8.55
8.33
8.02
7.5
6.72
5.8
4.95
4.34
4.05
3.99
4.01
3.93
3.64
3.11
2.36
1.44
0.42
-0.62
-1.63
-2.62
-3.63
-4.76
-6.09
-7.65
-9.3
-10.8
-11.87
-12.28
-11.91
-10.84
-9.31
-7.6
-5.97
-4.54
-3.3
-2.14
-0.98
0.2
1.34
2.37
3.23
3.96
4.63
5.35
6.18
7.14
8.18
9.22
10.17
10.93
11.5
11.85
12.01
12.01
11.81
11.35
10.58
9.48
8.13
6.68
5.31
4.19
3.41
2.96
2.74
2.62
2.45
2.13
1.61
0.87
-0.02
-0.99
-1.95
-2.79
-3.45
-3.98
-4.54
-5.3
-6.38
-7.72
-9.01
-9.87
-9.96
-9.17
-7.63
-5.65
-3.55
-1.56
0.21
1.72
2.93
3.81
4.34
4.54
4.51
4.4
4.37
4.54
4.94
5.51
6.13
6.66
7.04
7.31
7.61
8.03
8.61
9.19
9.55
9.49
8.92
7.94
6.8
5.73
4.95
4.52
4.41
4.53
4.75
4.97
5.03
4.82
4.17
3.0
1.38
-0.49
-2.3
-3.77
-4.81
-5.52
-6.21
-7.23
-8.78
-10.83
-13.1
-15.17
-16.67
-17.3
-17.0
-15.82
-13.94
-11.58
-9.02
-6.51
-4.28
-2.47
-1.1
-0.1
0.63
1.18
1.61
1.96
2.32
2.84
3.68
4.9
6.37
7.85
9.02
9.74
10.04
10.12
10.19
10.36
10.57
10.67
10.48
9.9
8.95
7.73
6.4
5.17
4.21
3.58
3.22
2.95
2.54
1.83
0.8
-0.42
-1.68
-2.83
-3.85
-4.8
-5.78
-6.88
-8.1
-9.39
-10.62
-11.62
-12.21
-12.28
-11.78
-10.7
-9.16
-7.34
-5.46
-3.81
-2.56
-1.75
-1.26
-0.86
-0.29
0.53
1.57
2.67
3.62
4.32
4.79
5.12
5.45
5.82
6.27
6.75
7.24
7.67
7.99
8.14
8.01
7.55
6.73
5.66
4.55
3.64
3.12
3.08
3.42
3.91
4.26
4.25
3.76
2.8
1.49
-0.01
-1.5
-2.84
-3.95
-4.82
-5.55
-6.24
-7.02
-8.0
-9.17
-10.42
-11.49
-12.13
-12.1
-11.35
-10.03
-8.39
-6.73
-5.26
-4.06
-3.1
-2.35
-1.77
-1.35
-1.12
-1.04
-1.06
-1.1
-1.06
-0.84
-0.36
0.38
1.26
2.11
2.74
2.99
2.86
2.5
2.09
1.8
1.72
1.81
1.99
2.15
2.2
2.13
1.88
1.46
0.87
0.12
-0.72
-1.55
-2.24
-2.67
-2.8
-2.73
-2.62
-2.73
-3.21
-4.13
-5.43
-6.95
-8.52
-9.99
-11.23
-12.11
-12.5
-12.29
-11.45
-10.09
-8.43
-6.72
-5.18
-3.93
-2.94
-2.09
-1.26
-0.35
0.62
1.54
2.24
2.62
2.68
2.52
2.38
2.46
2.89
3.64
4.56
5.45
6.08
6.34
6.19
5.65
4.82
3.76
2.59
1.53
0.78
0.61
1.12
2.19
3.48
4.51
4.91
4.5
3.4
1.91
0.45
-0.72
-1.51
-2.05
-2.58
-3.34
-4.48
-6.03
-7.81
-9.59
-11.04
-11.89
-11.92
-11.07
-9.45
-7.34
-5.12
-3.2
-1.81
-1.02
-0.61
-0.26
0.3
1.19
2.31
3.44
4.32
4.89
5.25
5.65
6.3
7.26
8.41
9.47
10.14
10.27
9.88
9.12
8.2
7.28
6.41
5.58
4.8
4.14
3.69
3.52
3.53
3.52
3.18
2.32
0.93
-0.75
-2.36
-3.56
-4.21
-4.37
-4.29
-4.25
-4.5
-5.22
-6.45
-8.13
-10.02
-11.72
-12.74
-12.69
-11.44
-9.17
-6.33
-3.5
-1.14
0.52
1.47
1.9
2.09
2.29
2.69
3.32
4.15
5.05
5.89
6.58
7.11
7.49
7.73
7.82
7.76
7.63
7.55
7.65
7.94
8.31
8.49
8.26
7.54
6.47
5.3
4.28
3.5
2.91
2.36
1.74
1.03
0.31
-0.36
-0.94
-1.5
-2.13
-2.84
-3.58
-4.25
-4.77
-5.11
-5.36
-5.61
-5.97
-6.42
-6.91
-7.26
-7.33
-6.97
