0
35.55
38.2
38.04
35.71
32.37
29.5
28.44
29.89
33.58
38.48
43.25
46.84
48.82
49.38
49.05
48.25
46.98
44.8
41.05
35.23
27.31
17.85
7.81
-1.78
-10.24
-17.42
-23.69
-29.8
-36.62
-44.99
-55.47
-68.07
-81.94
-95.19
-105.13
-108.96
-104.73
-92.16
-72.9
-50.01
-26.89
-6.29
10.29
22.58
31.01
36.15
38.49
38.47
36.81
34.62
33.25
33.86
36.95
42.11
48.15
53.56
57.14
58.4
57.66
55.76
53.52
51.33
48.95
45.7
40.84
34.0
25.37
15.73
6.05
-2.8
-10.4
-16.86
-22.75
-28.87
-36.08
-45.05
-56.02
-68.53
-81.2
-91.86
-97.97
-97.41
-89.19
-73.98
-53.87
-31.76
-10.44
8.1
22.84
33.58
40.5
43.97
44.48
42.85
40.25
38.1
37.71
39.81
44.3
50.23
56.17
60.74
63.11
63.2
61.58
59.1
56.42
53.68
50.5
46.28
40.49
33.11
24.59
15.73
7.35
-0.05
-6.46
-12.25
-18.09
-24.71
-32.75
-42.66
-54.45
-67.44
-80.05
-89.94
-94.58
-92.08
-81.98
-65.49
-45.16
-23.99
-4.47
11.87
24.47
33.37
38.67
40.56
39.44
36.22
32.37
29.53
29.0
31.25
35.77
41.3
46.36
49.86
51.34
51.07
49.66
47.64
45.14
41.8
37.1
30.74
22.92
14.37
6.01
-1.42
-7.74
-13.34
-18.92
-25.3
-33.11
-42.72
-54.07
-66.46
-78.46
-87.95
-92.63
-90.65
-81.45
-65.99
-46.53
-25.92
-6.73
9.31
21.42
29.51
33.83
34.73
32.8
28.99
24.62
21.21
19.98
21.4
25.07
29.9
34.58
38.19
40.39
41.38
41.51
41.01
39.7
37.12
32.81
26.53
18.52
9.4
0.04
-8.79
-16.64
-23.59
-30.25
-37.58
-46.69
-58.31
-72.38
-87.77
-102.21
-112.76
-116.59
-111.87
-98.54
-78.33
-54.31
-29.86
-7.76
10.43
24.21
33.77
39.5
41.84
41.33
38.96
36.1
34.22
34.37
36.79
40.79
45.14
48.56
50.37
50.59
49.75
48.48
47.04
45.15
42.16
37.4
30.6
22.03
12.44
2.76
-6.27
-14.34
-21.62
-28.73
-36.43
-45.51
-56.51
-69.42
-83.4
-96.67
-106.75
-111.05
-107.74
-96.41
-78.35
-56.14
-32.82
-11.0
7.59
22.25
32.92
39.86
43.43
44.21
43.06
41.18
39.87
40.14
42.41
46.36
51.11
55.56
58.79
60.38
60.42
59.35
57.6
55.3
52.26
48.0
42.09
34.42
25.35
15.59
5.93
-3.02
-11.11
-18.58
-26.0
-34.06
-43.39
-54.37
-66.89
-80.08
-92.22
-100.99
-104.03
-99.72
-87.88
-69.85
-48.17
-25.74
-5.0
12.51
26.16
35.84
41.71
44.04
43.37
40.66
37.26
34.65
33.95
35.61
39.21
43.75
48.0
51.07
52.55
52.57
51.54
49.76
47.26
43.73
38.8
32.22
24.1
14.96
5.55
-3.42
-11.54
-18.81
-25.63
-32.71
-40.87
-50.74
-62.43
-75.15
-87.19
-96.09
-99.39
-95.41
-83.9
-66.21
-44.89
-22.79
-2.37
14.8
27.99
37.02
41.97
43.14
41.22
37.39
33.21
30.24
29.54
31.34
35.02
39.4
43.22
45.63
46.35
45.62
43.93
41.67
38.92
35.4
30.68
24.45
16.72
8.02
-0.88
-9.18
-16.46
-22.83
-28.94
-35.74
-44.19
-54.91
-67.94
-82.36
-96.32
-107.26
-112.48
-110.0
-99.26
-81.42
-58.99
-35.03
-12.27
7.45
23.26
34.91
42.47
46.1
46.25
43.8
40.1
36.73
35.12
36.06
39.5
44.58
49.99
54.44
57.11
57.8
56.91
55.03
52.62
49.71
45.91
40.66
33.6
24.84
14.97
4.88
-4.61
-13.06
-20.5
-27.39
-34.41
-42.32
-51.78
-63.17
-76.31
-90.27
-103.21
-112.7
-116.19
-111.9
-99.47
-80.21
-56.73
-32.18
-9.33
10.06
25.28
36.38
43.71
47.67
48.76
47.71
45.64
43.86
43.56
45.33
49.06
53.96
58.91
62.88
65.21
65.7
64.6
62.34
59.33
55.75
51.5
46.18
39.48
31.33
22.04
12.24
2.66
-6.17
-14.09
-21.29
-28.21
-35.41
-43.47
-52.97
-64.33
-77.53
-91.75
-105.24
-115.51
-119.97
-116.72
-105.23
-86.57
-63.13
-37.87
-13.61
7.66
24.84
37.6
46.12
50.83
52.35
51.54
49.5
47.38
46.23
46.69
48.89
52.47
56.68
60.67
63.63
65.05
64.77
62.98
60.07
56.45
52.33
47.71
42.33
35.98
28.6
20.46
12.05
3.93
-3.5
-10.14
-16.25
-22.3
-28.87
-36.54
-45.81
-56.98
-69.91
-83.74
-96.72
-106.42
-110.24
-106.32
-94.24
-75.29
-52.13
-27.93
-5.43
13.6
28.46
39.07
45.64
48.46
48.02
45.22
41.44
38.31
37.19
38.8
42.93
48.58
54.31
58.78
61.17
61.31
59.62
56.8
53.4
49.61
45.19
39.65
32.6
24.01
14.33
4.32
-5.2
-13.68
-21.01
-27.48
-33.67
-40.3
-48.03
-57.35
-68.36
-80.48
-92.28
-101.59
-105.87
-103.02
-92.17
-74.17
-51.37
-26.98
-4.05
15.27
29.95
39.94
45.63
47.5
46.14
42.38
37.41
32.74
29.82
29.55
32.04
36.59
41.94
46.74
49.99
51.23
50.59
48.53
45.59
42.06
37.85
32.59
25.84
17.48
7.83
-2.29
-11.95
-20.45
-27.6
-33.8
-39.87
-46.75
-55.25
-65.9
-78.71
-92.89
-106.75
-117.82
-123.36
-121.24
-110.64
-92.52
-69.26
-44.0
-19.66
1.68
18.93
31.8
40.38
44.94
45.92
44.14
40.79
37.37
35.33
35.59
38.32
42.87
48.1
52.7
55.7
56.67
55.77
53.59
50.73
47.6
44.15
39.96
34.49
27.38
18.72
9.05
-0.76
-9.94
-18.06
-25.25
-32.06
-39.34
-47.94
-58.44
-70.99
-85.0
-98.99
-110.74
-117.65
-117.51
-109.2
-93.19
-71.44
-46.87
-22.45
-0.53
17.51
31.2
40.51
45.72
47.25
45.89
42.83
39.64
37.84
38.47
41.75
46.97
52.87
58.06
61.47
62.68
61.9
59.74
56.91
53.84
50.45
46.27
40.65
33.18
24.04
13.98
4.06
-4.82
-12.28
-18.59
-24.46
-30.72
-38.08
-47.04
-57.77
-69.95
-82.54
-93.66
-100.89
-101.87
-95.14
-80.72
-60.26
-36.5
-12.5
9.16
26.8
39.7
47.77
51.36
51.13
48.08
43.6
39.28
36.6
36.5
39.06
43.51
48.49
52.64
55.08
55.61
54.62
52.71
50.33
47.54
44.09
39.54
33.6
26.3
18.03
9.41
1.12
-6.4
-13.07
-19.23
-25.53
-32.73
-41.56
-52.4
-64.99
-78.25
-90.23
-98.46
-100.53
-94.94
-81.7
-62.36
-39.6
-16.38
4.81
22.36
35.5
44.05
48.15
48.25
45.23
40.43
35.54
32.12
31.15
32.75
36.21
40.31
43.85
46.04
46.64
45.92
44.26
41.92
38.83
34.62
28.88
21.45
12.57
2.93
-6.59
-15.19
-22.56
-28.97
-35.24
-42.46
-51.6
-63.02
-76.16
-89.39
-100.29
-106.17
-104.84
-95.35
-78.32
-55.85
-30.93
-6.6
14.7
31.49
43.27
50.22
52.91
52.13
48.89
44.39
39.96
36.76
35.52
36.25
38.35
40.79
42.58
43.19
42.62
41.29
39.64
37.79
35.35
31.59
25.89
18.05
8.56
-1.61
-11.41
-20.06
-27.42
-33.89
-40.28
-47.53
-56.52
-67.69
-80.75
-94.45
-106.54
-114.24
-114.96
-107.19
-91.09
-68.54
-42.62
-16.74
6.34
24.86
38.23
46.68
50.9
51.78
50.3
47.62
44.94
43.41
43.77
46.18
50.07
54.38
57.98
60.09
60.49
59.45
57.43
54.79
51.49
47.2
41.49
34.09
25.14
15.19
5.08
-4.44
-12.91
-20.29
-27.05
-33.95
-41.83
-51.41
-62.86
-75.67
-88.3
-98.46
-103.51
-101.3
-90.91
-73.14
-50.31
-25.51
-1.73
18.93
35.41
47.44
55.11
58.7
58.63
55.76
51.41
47.18
44.53
44.3
46.49
50.33
54.61
58.19
60.36
60.92
60.13
58.36
55.87
52.62
48.3
42.57
35.33
26.81
17.62
8.5
0.05
-7.5
-14.29
-20.82
-27.74
-35.73
-45.34
-56.78
-69.57
-82.37
-93.09
-99.19
-98.54
-90.05
-74.21
-52.95
-29.12
-5.69
14.95
31.34
42.87
49.55
51.83
50.47
46.63
41.77
37.45
34.94
34.86
37.04
40.63
44.44
47.46
49.05
49.13
47.9
45.7
42.7
38.9
34.05
27.95
20.53
12.01
2.96
-5.94
-14.06
-21.13
-27.37
-33.46
-40.31
-48.78
-59.23
-71.22
-83.34
-93.38
-98.87
-97.78
-89.21
-73.72
-53.13
-30.08
-7.26
13.06
29.35
40.78
47.14
48.78
46.57
41.91
36.46
31.85
29.23
29.05
30.99
34.18
37.58
40.26
41.75
41.99
41.22
39.67
37.34
33.97
29.16
22.66
14.6
5.47
-3.93
-12.87
-20.89
-27.99
-34.59
-41.41
-49.34
-59.09
-70.89
-84.13
-97.17
-107.48
-112.34
-109.59
-98.54
-80.2
-57.03
-32.15
-8.44
12.0
28.11
39.59
46.57
49.4
48.65
45.25
40.53
36.03
33.18
32.77
34.76
38.31
42.1
44.93
46.09
45.56
43.8
41.38
38.63
35.44
31.35
25.85
18.69
10.15
0.86
-8.3
-16.63
-23.86
-30.19
-36.22
-42.76
-50.6
-60.38
-72.2
-85.31
-97.98
-107.62
-111.48
-107.48
-95.08
-75.55
-51.6
-26.49
-3.11
16.66
31.94
42.63
48.99
51.48
50.83
48.1
44.62
41.81
40.72
41.76
44.65
48.43
51.98
54.34
55.03
54.17
52.22
49.76
47.12
44.27
40.83
36.29
30.23
22.57
13.64
4.1
-5.19
-13.54
-20.67
-26.84
-32.79
-39.55
-48.03
-58.68
-71.14
-84.14
-95.59
-102.95
-103.92
-97.1
-82.56
-61.87
-37.74
-13.2
9.12
27.48
41.08
49.76
53.86
53.99
51.16
46.73
42.26
39.2
38.42
40.09
43.56
47.74
51.42
53.72
54.27
53.22
51.13
48.52
45.66
42.33
37.94
31.94
24.14
14.9
5.13
-4.17
-12.21
-18.81
-24.33
-29.52
-35.25
-42.3
-51.22
-62.08
-74.27
-86.28
-95.79
-100.2
-97.43
-86.73
-69.05
-46.85
-23.24
-1.08
17.7
32.19
42.16
47.73
49.1
46.75
41.67
35.5
30.13
27.16
27.33
30.27
34.72
39.15
42.37
43.9
43.93
42.91
41.22
38.83
35.39
30.49
23.94
16.02
7.36
-1.26
-9.18
-16.11
-22.24
-28.11
-34.43
-41.91
-51.03
-61.84
-73.85
-85.75
-95.58
-101.02
-100.08
-91.78
-76.61
-56.44
-33.97
-11.98
7.35
22.69
33.45
39.59
41.42
39.61
35.25
29.85
25.05
22.22
22.03
24.34
28.34
32.87
36.87
39.7
41.18
41.46
40.72
38.97
35.9
31.02
24.0
14.93
4.44
-6.48
-16.79
-25.72
-33.1
-39.33
-45.24
-51.81
-59.92
-70.04
-81.92
-94.45
-105.6
-112.83
-113.73
-106.81
-92.12
-71.33
-47.23
-22.99
-1.22
16.42
29.26
37.36
41.18
41.39
38.91
34.98
31.06
28.51
28.24
30.39
34.37
39.08
43.39
46.5
48.16
48.51
47.85
46.35
43.92
40.17
34.73
27.43
18.52
8.7
-1.11
-10.11
-17.83
-24.4
-30.43
-36.83
-44.58
-54.36
-66.2
-79.3
-91.89
-101.53
-105.73
-102.64
-91.72
-73.96
-51.56
-27.35
-4.0
16.43
32.7
44.27
51.15
53.74
52.87
49.7
45.72
42.42
41.0
42.02
45.29
49.94
54.77
58.7
61.07
61.77
61.06
59.33
56.79
53.36
48.78
42.79
35.35
26.74
17.55
8.46
0.04
-7.5
-14.38
-21.2
-28.75
-37.81
-48.81
-61.61
-75.25
-87.99
-97.49
-101.37
-97.95
-86.87
-69.33
-47.73
-24.98
-3.69
14.38
28.4
38.21
44.02
46.25
45.54
42.93
39.71
37.21
36.42
37.75
40.85
44.9
48.88
51.96
53.73
54.19
53.61
52.21
49.98
46.67
41.88
35.49
27.75
19.34
11.13
3.76
-2.56
-8.15
-13.74
-20.16
-28.23
-38.43
-50.75
-64.39
-77.66
-88.13
-93.26
-91.18
-81.38
-64.95
-44.29
-22.3
-1.64
15.83
29.15
38.02
42.6
43.38
41.18
37.16
32.71
29.13
27.36
27.7
29.87
33.15
36.72
39.88
42.2
43.44
43.46
42.1
39.14
34.43
28.0
20.1
11.29
2.24
-6.47
-14.5
-21.86
-28.94
-36.44
-45.1
-55.42
-67.23
-79.36
-89.75
-95.83
-95.34
-87.11
-71.58
-50.74
-27.48
-4.8
14.98
30.54
41.46
47.9
50.31
49.34
45.85
41.04
36.35
33.14
32.31
34.02
37.6
41.88
45.64
48.06
48.87
48.24
46.41
43.51
39.44
33.92
26.81
18.26
8.76
-0.98
-10.27
-18.69
-26.24
-33.32
-40.66
-49.09
-59.25
-71.32
-84.69
-97.81
-108.35
-113.69
-111.69
-101.54
-84.05
-61.6
-37.32
-14.15
5.91
21.94
33.88
42.0
46.63
48.13
47.16
44.79
42.38
41.18
41.9
44.51
48.33
52.34
55.66
57.76
58.55
58.25
57.08
55.1
52.12
47.75
41.6
33.58
24.04
13.72
3.59
-5.56
-13.35
-19.99
-26.16
-32.82
-40.85
-50.88
-62.85
-75.86
-88.1
-97.1
-100.35
-96.08
-83.9
-65.05
-42.09
-18.16
3.95
22.31
36.09
45.27
50.27
51.72
50.37
47.21
43.48
40.53
39.42
40.61
43.75
47.87
51.76
54.44
55.5
55.11
53.76
51.88
49.61
46.63
42.4
36.45
28.71
19.67
10.23
1.36
-6.25
-12.53
-17.98
-23.55
-30.27
-38.98
-49.96
-62.72
-75.84
-87.05
-93.76
-93.76
-85.98
-70.98
-50.74
-28.13
-6.04
13.27
28.4
38.78
44.44
45.88
43.98
40.0
35.44
31.67
29.74
30.05
32.4
36.06
40.05
43.47
45.66
46.42
45.88
44.25
41.69
38.09
33.27
27.09
19.73
11.68
3.57
-4.04
-10.94
-17.28
-23.57
-30.46
-38.64
-48.61
-60.35
-73.14
-85.34
-94.65
-98.68
-95.68
-85.25
-68.53
-47.87
-26.15
-5.92
11.13
24.23
33.36
38.81
40.98
40.39
37.82
34.42
31.54
30.38
31.56
34.88
39.42
43.94
47.35
49.1
49.16
47.89
45.61
42.4
38.07
32.33
25.04
16.42
7.02
-2.37
-11.1
-18.85
-25.74
-32.29
-39.24
-47.38
-57.26
-68.95
-81.81
-94.3
-104.19
-108.93
-106.55
-96.29
-79.01
-56.99
-33.21
-10.43
9.31
24.92
36.05
42.81
45.58
45.1
42.49
39.23
36.77
36.19
37.86
41.41
45.85
50.1
53.28
54.95
55.19
54.39
52.97
51.12
48.7
45.27
40.4
33.89
25.94
17.14
8.19
-0.32
-8.07
-15.07
-21.64
-28.29
-35.74
-44.73
-55.74
-68.48
-81.71
-93.09
-99.89
-99.81
-91.83
-76.65
-56.39
-33.96
-12.04
7.43
23.4
35.49
43.64
47.98
48.92
47.32
44.5
41.98
41.09
42.43
45.78
50.14
54.26
57.08
58.09
57.41
55.54
53.06
50.31
47.21
43.42
38.46
32.0
24.08
15.15
5.84
-3.17
-11.46
-18.93
-25.84
-32.66
-39.93
-48.23
-57.94
-68.95
-80.39
-90.56
-97.13
-97.83
-91.28
-77.54
-58.28
-36.18
-14.15
5.51
21.43
33.19
40.8
44.55
44.82
42.23
37.86
33.17
29.63
28.32
29.52
32.68
36.65
40.22
42.57
43.46
43.09
41.72
39.44
36.0
31.05
24.39
16.23
7.23
-1.72
-9.75
-16.4
-21.72
-26.27
-30.9
-36.57
-44.07
-53.77
-65.38
-77.75
-88.86
-96.21
-97.47
-91.29
-77.81
-58.66
-36.56
-14.42
5.38
21.43
33.21
40.75
44.37
44.5
41.85
37.5
32.84
29.28
27.87
28.94
32.06
36.15
40.0
42.66
43.77
43.52
42.37
40.72
38.52
35.36
30.6
23.84
15.16
5.18
-5.11
-14.69
-22.98
-29.95
-36.08
-42.24
-49.33
-58.12
-68.99
-81.64
-94.91
-106.71
-114.45
-115.66
-108.88
-94.25
-73.55
-49.65
-25.67
-4.04
13.78
27.34
36.7
42.12
43.98
42.92
39.98
36.64
34.39
34.35
36.81
41.2
46.3
50.79
53.67
54.59
53.85
52.16
50.19
48.18
45.8
42.33
37.0
29.49
20.13
9.84
-0.24
-9.23
-16.85
-23.43
-29.66
-36.37
-44.28
-53.83
-65.05
-77.27
-89.0
-98.04
-101.95
-98.84
-88.1
-70.67
-48.86
-25.62
-3.69
14.95
29.24
38.94
44.25
45.71
44.11
40.53
36.33
32.94
31.58
32.85
36.62
42.01
47.67
52.3
55.04
55.69
54.64
52.53
49.9
46.88
43.19
38.37
32.06
24.24
15.34
6.04
-2.97
-11.21
-18.62
-25.48
-32.33
-39.85
-48.7
-59.3
-71.52
-84.34
-95.79
-103.3
-104.36
-97.53
-82.99
-62.66
-39.48
-16.58
3.66
19.9
31.74
39.3
42.91
43.04
40.5
36.47
32.5
30.05
30.07
32.68
37.17
42.24
46.53
49.09
49.62
48.49
46.35
43.7
40.63
36.74
31.49
24.63
16.44
7.66
-0.83
-8.41
-15.05
-21.17
-27.43
-34.44
-42.68
-52.41
-63.62
-75.77
-87.58
-96.95
-101.43
-98.99
-88.84
-71.88
-50.44
-27.53
-5.93
12.41
26.56
36.32
41.82
43.44
41.76
37.79
32.92
28.69
26.41
26.73
29.45
33.67
38.15
41.81
43.99
44.58
43.88
42.24
39.85
36.59
32.08
25.95
18.06
8.74
-1.29
-10.98
-19.53
-26.57
-32.47
-38.17
-44.96
-53.93
-65.5
-79.06
-92.89
-104.42
-110.88
-110.12
-101.25
-85.05
-63.68
-40.02
-16.88
3.65
20.36
32.79
40.96
45.1
45.7
43.66
40.28
37.05
35.35
35.99
38.96
43.45
48.22
52.06
54.19
54.53
53.53
51.82
49.79
47.35
43.96
38.98
32.02
23.2
13.15
2.79
-6.98
-15.61
-23.02
-29.58
-35.99
-43.09
-51.67
-62.21
-74.5
-87.38
-98.79
-106.07
-106.8
-99.62
-84.77
-64.16
-40.7
-17.44
3.27
20.1
32.67
41.12
45.79
47.1
45.68
42.55
39.08
36.74
36.63
39.18
43.95
49.81
55.39
59.54
61.74
62.1
61.18
59.58
57.47
54.59
50.35
44.23
36.14
26.53
16.28
6.34
-2.61
-10.35
-17.14
-23.62
-30.61
-38.95
-49.19
-61.34
-74.53
-86.97
-96.2
-99.75
-95.97
-84.57
-66.83
-45.19
-22.5
-1.29
16.7
30.58
40.1
45.36
46.77
45.09
41.55
37.61
34.73
33.95
35.48
38.85
43.08
47.11
50.14
51.84
52.24
51.57
50.0
47.43
43.67
38.39
31.52
23.31
14.38
5.49
-2.73
-9.99
-16.46
-22.71
-29.47
-37.54
-47.49
-59.36
-72.47
-85.15
-94.97
-99.38
-96.46
-85.7
-68.26
-46.67
-23.96
-2.88
14.71
27.94
36.69
41.28
42.23
40.31
36.62
32.52
29.45
28.51
30.13
33.89
38.71
43.3
46.59
48.16
48.16
47.05
45.15
42.43
38.52
32.94
25.47
16.39
6.44
-3.44
-12.45
-20.15
-26.61
-32.38
-38.3
-45.29
-54.14
-65.16
-77.95
-91.18
-102.68
-109.87
-110.43
-103.13
-88.22
-67.47
-43.7
-19.87
1.53
18.96
31.75
39.95
43.95
44.5
42.63
39.66
37.06
36.05
37.33
40.86
45.94
51.47
56.27
59.5
60.78
60.26
58.4
55.68
52.34
48.24
42.95
36.0
27.22
16.97
6.05
-4.54
-14.0
-22.01
-28.86
-35.23
-42.02
-50.11
-60.11
-71.96
-84.74
-96.6
-105.02
-107.5
-102.39
-89.54
-70.43
-47.69
-24.32
-2.86
15.1
28.87
38.35
43.72
45.38
44.05
40.89
37.44
35.27
35.53
38.57
43.83
50.09
55.91
60.18
62.4
62.72
61.72
60.0
57.86
55.18
51.52
46.38
39.49
31.02
21.59
11.99
3.0
-4.96
-11.91
-18.3
-24.84
-32.32
-41.38
-52.29
-64.7
-77.49
-88.76
-96.14
-97.45
-91.37
-78.04
-59.06
-37.09
-14.98
4.9
21.17
33.3
41.31
45.48
46.22
44.22
40.57
36.74
34.22
34.05
36.5
40.97
46.3
51.13
54.49
55.91
55.55
53.93
51.64
49.02
46.0
42.16
37.04
30.39
22.45
13.79
5.16
-2.86
-10.04
-16.54
-22.8
-29.45
-37.12
-46.39
-57.45
-69.81
-81.99
-91.78
-96.68
-94.78
-85.47
-69.72
-49.76
-28.4
-8.13
9.3
23.03
32.86
38.9
41.39
40.76
37.79
33.7
29.95
27.94
28.42
31.34
35.86
40.72
44.79
47.42
48.58
48.55
47.64
45.9
43.09
38.81
32.8
25.11
16.19
6.77
-2.36
-10.59
-17.66
-23.81
-29.62
-35.93
-43.58
-53.23
-65.03
-78.35
-91.63
-102.52
-108.33
-106.87
-97.28
-80.44
-58.72
-35.29
-13.08
5.93
20.92
31.79
38.76
42.06
42.02
39.31
35.21
31.34
29.28
29.94
33.27
38.28
43.46
47.4
49.32
49.2
47.66
45.51
43.25
40.84
37.73
33.17
26.61
18.03
8.01
-2.44
-12.33
-20.94
-28.07
-34.08
-39.77
-46.16
-54.21
-64.55
-77.11
-90.83
-103.69
-113.05
-116.33
-111.87
-99.47
-80.58
-57.79
-34.08
-12.01
6.76
21.45
31.95
38.43
41.3
41.18
39.06
36.3
34.32
34.3
36.71
41.27
47.02
52.69
57.09
59.53
59.88
58.49
55.94
52.77
49.19
45.09
40.12
33.93
26.36
17.59
8.14
-1.32
-10.19
-18.16
-25.28
-31.94
-38.81
-46.62
-56.05
-67.31
-79.95
-92.54
-102.83
-108.21
-106.57
-97.02
-80.36
-58.82
-35.35
-12.78
6.93
22.78
34.58
42.52
46.94
48.31
47.3
44.96
42.56
41.39
42.34
45.66
50.83
56.72
62.01
65.61
66.94
66.14
63.81
60.73
57.45
54.16
50.56
46.14
40.42
33.26
24.91
16.01
7.27
-0.76
-7.89
-14.36
-20.73
-27.63
-35.67
-45.32
-56.71
-69.47
-82.43
-93.62
-100.55
-100.94
-93.58
-78.89
-58.91
-36.61
-14.92
4.03
19.17
30.28
37.47
41.0
41.24
38.97
35.42
32.11
30.42
31.16
34.32
39.12
44.35
48.75
51.43
52.03
50.77
48.24
45.12
41.86
38.5
34.67
29.85
23.72
16.34
8.23
0.17
-7.19
-13.52
-18.98
-24.15
-29.81
-36.69
-45.27
-55.64
-67.35
-79.25
-89.55
-96.06
-96.75
-90.41
-77.17
-58.6
-37.27
-16.01
2.89
18.14
29.29
36.47
39.99
40.26
37.91
34.02
30.07
27.6
27.76
30.81
36.11
42.36
48.08
52.12
53.99
53.79
52.01
49.21
45.74
41.56
36.35
29.77
21.68
12.4
2.57
-7.0
-15.62
-23.01
-29.34
-35.11
-41.11
-48.15
-56.97
-67.93
-80.65
-93.75
-104.96
-111.58
-111.34
-103.16
-87.65
-66.89
-43.77
-21.15
-1.15
15.05
27.18
35.44
40.31
42.3
42.02
40.27
38.06
36.53
36.68
39.04
43.43
48.99
54.48
58.71
60.94
61.06
59.47
56.76
53.4
49.51
44.9
39.23
32.24
23.98
14.84
5.47
-3.52
-11.65
-18.82
-25.32
-31.65
-38.49
-46.5
-56.24
-67.89
-80.91
-93.81
-104.26
-109.64
-107.89
-98.32
-81.88
-60.9
-38.31
-16.75
1.99
17.05
28.26
35.79
39.97
41.28
40.45
38.51
36.7
36.19
37.73
41.45
46.72
52.41
57.27
60.31
61.18
60.17
57.93
55.15
52.18
48.96
45.04
39.94
33.33
25.34
16.45
7.43
-0.99
-8.37
-14.75
-20.52
-26.35
-33.0
-41.14
-51.21
-63.18
-76.29
-88.84
-98.42
-102.45
-99.1
-87.96
-70.3
-48.67
-26.08
-5.02
12.92
27.1
37.43
43.98
46.92
46.65
44.0
40.3
37.1
35.69
36.74
40.04
44.65
49.25
52.69
54.3
54.09
52.54
50.34
47.95
45.41
42.3
38.03
32.14
24.58
15.84
6.72
-1.92
-9.5
-15.92
-21.55
-27.05
-33.18
-40.67
-50.05
-61.46
-74.42
-87.44
-98.23
-104.11
-102.91
-93.79
-77.6
-56.7
-34.08
-12.49
6.21
21.02
31.59
37.88
40.05
38.7
34.91
30.28
26.47
24.75
25.61
28.65
32.86
37.03
40.23
42.04
42.57
42.19
41.22
39.69
37.27
33.49
27.98
20.8
12.39
3.53
-5.1
-13.05
-20.3
-27.18
-34.26
-42.22
-51.65
-62.88
-75.64
-88.85
-100.52
-108.14
-109.4
-102.94
-88.98
-69.23
-46.47
-23.59
-2.94
14.08
26.93
35.55
40.2
41.28
39.53
36.07
32.35
29.77
29.32
31.24
35.0
39.58
43.81
46.88
48.48
48.77
48.13
46.9
45.04
42.23
37.92
31.78
23.88
14.84
5.61
-2.97
-10.5
-17.22
-23.83
-31.21
-40.1
-50.89
-63.51
-77.29
-90.85
-102.12
-108.67
-108.39
-100.16
-84.46
-63.25
-39.45
-16.02
4.74
21.53
33.91
41.99
46.16
47.07
45.59
42.93
40.43
39.23
40.05
42.89
47.12
51.74
55.69
58.24
59.2
58.85
57.62
55.83
53.46
50.12
45.29
38.62
30.21
20.57
10.49
0.76
-8.12
-16.07
-23.42
-30.83
-39.06
-48.79
-60.34
-73.38
-86.65
-98.03
-104.94
-105.09
-97.33
-82.18
-61.79
-39.16
-17.22
2.02
17.75
29.97
39.01
44.96
47.86
47.93
46.03
43.59
42.17
42.85
45.75
50.09
54.53
57.88
59.55
59.63
58.72
57.4
55.92
53.98
50.95
46.14
39.18
30.26
20.05
9.55
-0.34
-9.05
-16.51
-23.08
-29.49
-36.59
-45.25
-55.99
-68.73
-82.38
-94.86
-103.46
-105.61
-99.74
-85.9
-65.8
-42.3
-18.52
2.94
20.46
33.35
41.62
45.69
46.23
44.2
40.87
37.73
36.06
36.66
39.48
43.74
48.19
51.7
53.58
53.81
52.78
50.97
48.63
45.57
41.37
35.55
27.97
18.89
9.02
-0.76
-9.74
-17.58
-24.5
-31.13
-38.32
-46.88
-57.26
-69.29
-81.91
-93.17
-100.56
-101.72
-95.22
-81.2
-61.46
-38.87
-16.52
3.17
18.85
30.12
37.17
40.44
40.48
38.14
34.57
31.17
29.16
29.29
31.57
35.39
39.73
43.54
46.16
47.33
47.22
46.08
44.02
40.81
36.01
29.24
20.55
10.53
0.13
-9.65
-18.23
-25.61
-32.38
-39.46
-47.82
-58.26
-71.01
-85.43
-99.87
-111.76
-118.22
-116.91
-106.95
-89.32
-66.51
-41.76
-18.05
2.57
19.13
31.47
39.77
44.39
45.84
44.91
42.83
41.04
40.78
42.65
46.46
51.21
55.63
58.68
59.93
59.51
57.95
55.67
52.78
48.98
43.81
36.95
28.49
18.94
9.0
-0.62
-9.5
-17.62
-25.3
-33.12
-41.76
-51.86
-63.82
-77.45
-91.72
-104.61
-113.43
-115.53
-109.22
-94.5
-73.2
-48.38
-23.33
-0.68
18.14
32.72
43.23
49.94
53.08
53.07
50.77
47.48
44.75
43.81
45.18
48.53
52.88
57.04
60.11
61.69
61.93
61.23
59.93
58.01
55.1
50.61
44.11
35.62
25.71
15.36
5.53
-3.15
-10.57
-17.19
-23.8
-31.34
-40.66
-52.22
-65.79
-80.11
-92.99
-101.61
-103.38
-96.82
-82.22
-61.55
-37.82
-14.22
6.77
23.64
35.84
43.35
46.52
45.93
42.53
37.74
33.24
30.56
30.69
33.66
38.61
44.12
48.85
51.94
53.22
53.02
51.76
49.68
46.63
42.23
36.09
28.13
18.71
8.62
-1.2
-9.96
-17.28
-23.39
-28.99
-35.16
-42.93
-53.02
-65.4
-79.08
-92.08
-101.71
-105.31
-100.98
-88.37
-68.83
-45.06
-20.29
2.62
21.73
36.05
45.31
49.74
49.93
46.92
42.19
37.46
34.26
33.49
35.18
38.62
42.74
46.47
49.14
50.45
50.49
49.43
47.4
44.31
39.91
33.84
25.96
16.51
6.11
-4.35
-14.1
-22.68
-30.17
-37.12
-44.44
-53.13
-63.86
-76.67
-90.45
-103.06
-111.61
-113.35
-106.64
-91.58
-70.08
-45.19
-20.21
2.27
20.67
34.39
43.39
47.96
48.66
46.39
42.49
38.61
36.26
36.42
39.21
43.89
49.12
53.51
56.12
56.7
55.6
53.47
50.78
47.56
43.36
37.5
29.54
19.57
8.35
-3.01
-13.45
-22.39
-29.97
-36.99
-44.59
-53.91
-65.66
-79.77
-95.15
-109.68
-120.54
-124.85
-120.55
-107.16
-86.03
-60.03
-32.62
-6.98
14.76
31.63
43.56
50.86
54.05
53.77
51.01
47.17
43.88
42.55
43.9
47.65
52.68
57.48
60.79
62.04
61.45
59.77
57.71
55.54
52.89
48.9
42.74
34.07
23.35
11.68
0.47
-9.21
-17.05
-23.55
-29.82
-37.14
-46.55
-58.52
-72.66
-87.64
-101.18
-110.5
-112.95
-106.87
-92.23
-70.66
-45.01
-18.53
5.98
26.55
42.13
52.38
57.5
58.17
55.59
51.35
47.21
44.65
44.46
46.58
50.21
54.15
57.35
59.18
59.64
59.09
57.97
56.45
54.23
50.71
45.25
37.57
27.92
17.03
5.89
-4.59
-13.88
-21.95
-29.28
-36.69
-45.16
-55.54
-68.24
-82.71
-97.34
-109.5
-116.12
-114.68
-104.11
-85.29
-60.85
-34.3
-8.96
12.86
30.0
42.2
49.6
52.43
51.22
47.0
41.49
36.62
34.09
34.65
37.9
42.64
47.38
51.03
53.16
53.87
53.43
51.93
49.12
44.57
37.97
29.38
19.32
8.6
-1.93
-11.64
-20.39
-28.43
-36.37
-44.96
-54.93
-66.71
-80.08
-93.93
-106.1
-113.82
-114.43
-106.34
-89.73
-66.63
-40.31
-14.21
8.85
27.2
40.25
48.09
51.22
50.37
46.66
41.62
36.95
34.15
34.0
36.33
40.18
44.26
47.49
49.39
50.05
49.83
48.88
46.97
43.53
37.96
30.05
20.14
9.08
-2.11
-12.56
-21.86
-30.08
-37.71
-45.58
-54.65
-65.78
-79.35
-94.82
-110.4
-123.21
-129.98
-127.99
-116.16
-95.49
-68.86
-40.06
-12.74
10.46
28.2
40.24
47.0
49.27
48.03
44.59
40.44
37.13
35.89
37.22
40.86
45.8
50.79
54.76
57.11
57.86
57.38
56.07
54.03
50.92
46.17
39.25
30.1
19.27
7.73
-3.45
-13.5
-22.29
-30.29
-38.37
-47.52
-58.48
-71.33
-85.26
-98.44
-108.26
-112.01
-107.68
-94.75
-74.37
-49.16
-22.33
3.15
25.12
42.39
54.52
61.58
64.0
62.57
58.56
53.63
49.49
47.45
48.07
50.99
55.14
59.22
62.16
63.44
63.1
61.45
58.76
54.97
49.79
42.86
34.1
23.86
12.83
1.87
-8.33
-17.39
-25.36
-32.72
-40.21
-48.67
-58.8
-70.83
-84.13
-97.04
-107.04
-111.3
-107.62
-95.15
-74.86
-49.36
-22.1
3.5
24.91
40.77
50.85
55.63
55.96
52.93
47.85
42.29
37.85
35.75
36.47
39.57
43.92
48.17
51.35
53.09
53.57
53.18
52.1
50.15
46.84
41.66
34.39
25.3
15.08
4.68
-5.1
-13.8
-21.55
-28.96
-37.05
-46.76
-58.61
-72.32
-86.51
-98.83
-106.43
-106.79
-98.58
-82.19
-59.75
-34.45
-9.57
12.3
29.63
41.79
48.75
50.84
48.77
43.79
37.68
32.37
29.43
29.56
32.47
37.04
41.88
45.8
48.12
48.67
47.64
45.26
41.61
36.58
29.99
21.81
12.33
2.13
-8.03
-17.61
-26.44
-34.77
-43.21
-52.54
-63.38
-76.04
-90.06
-104.01
-115.55
-121.85
-120.45
-110.19
-91.73
-67.39
-40.43
-14.06
9.33
28.34
42.39
51.38
55.49
55.26
51.79
46.66
41.73
38.61
38.27
40.7
45.11
50.23
54.79
57.92
59.26
58.91
57.12
53.99
49.38
43.03
34.74
24.68
13.48
2.06
-8.67
-18.09
-26.09
-33.14
-40.11
-48.17
-58.39
-71.35
-86.66
-102.68
-116.6
-125.09
-125.32
-115.93
-97.57
-72.75
-44.97
-17.78
6.15
25.33
39.3
48.27
52.78
53.59
51.66
48.25
44.85
42.84
43.14
45.93
50.5
55.6
59.79
62.07
62.17
60.6
58.22
55.78
53.43
50.65
46.53
40.23
31.47
20.77
9.26
-1.76
-11.32
-19.11
-25.55
-31.6
-38.42
-47.06
-58.06
-71.28
-85.6
-98.88
-108.36
-111.25
-105.64
-91.23
-69.57
-43.67
-17.06
7.13
26.91
41.39
50.54
54.84
55.01
52.1
47.56
43.12
40.38
40.4
43.29
48.2
53.76
58.45
61.25
61.87
60.69
58.48
56.0
53.54
50.88
47.37
42.36
35.54
27.19
18.06
9.02
0.71
-6.72
-13.57
-20.41
-27.94
-36.81
-47.6
-60.51
-75.03
-89.67
-101.95
-109.03
-108.48
-99.25
-82.08
-59.27
-34.0
-9.4
12.15
29.18
41.1
47.92
50.03
48.29
44.04
39.02
35.04
33.49
34.95
38.95
44.24
49.27
52.78
54.12
53.42
51.23
48.21
44.72
40.72
35.87
29.72
22.12
13.26
3.79
-5.51
-13.94
-21.25
-27.78
-34.27
-41.72
-51.0
-62.52
-75.92
-89.84
-102.1
-109.99
-111.09
-104.03
-89.04
-67.95
-43.64
-19.15
3.0
21.23
34.79
43.53
47.65
47.77
44.94
40.62
36.49
34.03
34.11
36.8
41.41
46.74
51.49
54.69
55.85
55.05
52.73
49.36
45.22
40.18
33.85
25.92
16.41
5.82
-4.95
-15.01
-23.81
-31.39
-38.35
-45.63
-54.25
-64.98
-77.99
-92.53
-106.91
-118.55
-124.58
-122.69
-111.9
-92.99
-68.36
-41.23
-14.83
8.44
27.19
40.92
49.72
53.99
54.43
52.13
48.51
45.17
43.48
44.2
47.24
51.67
56.14
59.33
60.49
59.61
57.28
54.27
51.1
47.74
43.67
38.2
30.92
21.94
11.91
1.71
-7.87
-16.4
-24.0
-31.16
