0
12.91
13.0
12.75
12.04
10.82
9.19
7.39
5.69
4.28
3.15
2.1
0.86
-0.77
-2.8
-5.03
-7.17
-8.99
-10.36
-11.34
-12.17
-13.16
-14.61
-16.74
-19.43
-22.2
-24.33
-24.98
-23.59
-20.13
-15.07
-9.28
-3.71
0.94
4.33
6.53
7.83
8.57
9.02
9.32
9.48
9.56
9.56
9.52
9.44
9.34
9.19
9.02
8.87
8.79
8.83
8.93
8.99
8.86
8.46
7.85
7.11
6.32
5.45
4.46
3.33
2.17
1.18
0.53
0.24
0.13
-0.06
-0.59
-1.52
-2.8
-4.3
-5.96
-7.85
-10.01
-12.32
-14.44
-15.82
-15.98
-14.63
-11.86
-8.1
-3.96
-0.07
3.15
5.53
7.11
8.09
8.69
9.07
9.31
9.47
9.59
9.75
10.07
10.59
11.29
12.06
12.66
12.89
12.66
11.99
11.02
9.91
8.77
7.65
6.51
5.31
4.07
2.85
1.7
0.67
-0.24
-1.11
-2.0
-2.94
-3.88
-4.76
-5.54
-6.27
-7.07
-8.09
-9.55
-11.49
-13.74
-15.95
-17.58
-18.08
-17.08
-14.53
-10.72
-6.29
-1.97
1.68
4.38
6.18
7.35
8.14
8.71
9.09
9.22
9.09
8.76
8.34
7.94
7.63
7.43
7.37
7.45
7.64
7.81
7.78
7.37
6.49
5.19
3.67
2.2
0.99
0.14
-0.36
-0.64
-0.82
-0.99
-1.16
-1.3
-1.34
-1.28
-1.24
-1.42
-2.06
-3.28
-5.05
-7.21
-9.44
-11.42
-12.78
-13.23
-12.52
-10.6
-7.68
-4.19
-0.76
2.07
3.98
4.98
5.29
5.26
5.17
5.16
5.22
5.32
5.47
5.68
6.06
6.64
7.41
8.29
9.15
9.84
10.27
10.4
10.26
9.87
9.26
8.44
7.43
6.32
5.24
4.31
3.59
3.03
2.5
1.87
1.07
0.14
-0.88
-1.94
-3.1
-4.41
-5.92
-7.6
-9.42
-11.36
-13.49
-15.87
-18.37
-20.69
-22.25
-22.5
-21.14
-18.25
-14.32
-10.05
-6.07
-2.77
-0.26
1.53
2.79
3.62
4.08
4.21
4.07
3.76
3.41
3.18
3.21
3.59
4.3
5.27
6.32
7.31
8.13
8.81
9.31
9.67
9.82
9.7
9.35
8.79
8.11
7.38
6.6
5.65
4.44
2.87
1.03
-0.9
-2.67
-4.07
-5.09
-5.85
-6.6
-7.55
-8.79
-10.31
-11.94
-13.48
-14.68
-15.25
-14.94
-13.57
-11.1
-7.74
-3.9
-0.09
3.22
5.73
7.34
8.11
8.16
7.64
6.68
5.45
4.22
3.25
2.78
2.92
3.63
4.73
6.01
7.23
8.24
8.97
9.38
9.51
9.36
8.99
8.43
7.74
6.96
6.13
5.22
4.21
3.03
1.7
0.27
-1.15
-2.44
-3.55
-4.51
-5.4
-6.32
-7.4
-8.68
-10.21
-12.04
-14.14
-16.4
-18.61
-20.41
-21.37
-21.15
-19.56
-16.72
-13.0
-8.9
-4.95
-1.56
1.04
2.86
4.06
4.81
5.25
5.45
5.41
5.18
4.85
4.62
4.73
5.29
6.31
7.62
8.96
10.13
11.02
11.63
12.02
12.2
12.14
11.74
10.99
9.88
8.52
7.06
5.68
4.48
3.51
2.76
2.14
1.55
0.88
0.02
-1.03
-2.22
-3.43
-4.5
-5.34
-5.97
-6.51
-7.14
-8.03
-9.32
-11.09
-13.34
-15.94
-18.58
-20.79
-21.99
-21.64
-19.5
-15.73
-10.88
-5.78
-1.21
2.29
4.56
5.76
6.23
6.29
6.18
6.02
5.83
5.7
5.72
6.05
6.78
7.87
9.16
10.39
11.27
11.62
11.39
10.71
9.78
8.88
8.15
7.6
7.16
6.68
6.08
5.36
4.64
3.99
3.47
2.99
2.47
1.78
0.92
-0.07
-1.07
-2.04
-3.04
-4.15
-5.49
-7.05
-8.71
-10.31
-11.68
-12.81
-13.83
-14.99
-16.44
-18.11
-19.68
-20.64
-20.52
-19.09
-16.41
-12.87
-9.01
-5.29
-2.07
0.43
2.17
3.14
3.43
3.19
2.65
2.08
1.82
2.07
2.95
4.36
6.06
7.71
9.05
9.95
10.44
10.73
11.02
11.44
11.97
12.47
12.73
12.64
12.18
11.42
10.45
9.28
7.92
6.32
4.51
2.58
0.66
-1.09
-2.57
-3.73
-4.58
-5.19
-5.73
-6.38
-7.33
-8.73
-10.54
-12.67
-14.83
-16.73
-17.99
-18.27
-17.26
-14.84
-11.15
-6.57
-1.75
2.67
6.16
8.45
9.61
9.86
9.51
8.8
7.92
7.0
6.16
5.5
5.1
5.05
5.37
6.07
7.1
8.37
9.7
10.93
11.9
12.5
12.66
12.37
11.62
10.47
9.02
7.43
5.87
4.5
3.44
2.67
2.07
1.47
0.65
-0.54
-2.16
-4.06
-5.99
-7.67
-8.84
-9.45
-9.66
-9.78
-10.17
-11.16
-12.88
-15.27
-18.04
-20.66
-22.49
-22.9
-21.51
-18.32
-13.78
-8.68
-3.8
0.2
3.0
4.63
5.33
5.4
5.15
4.83
4.68
4.9
5.6
6.81
8.46
10.34
12.24
13.89
15.06
15.65
15.64
15.12
14.29
13.33
12.36
11.45
10.55
9.6
8.53
7.32
6.0
4.7
3.52
2.54
1.76
1.1
0.43
-0.34
-1.27
-2.34
-3.48
-4.61
-5.71
-6.78
-7.88
-9.08
-10.47
-12.14
-14.03
-15.95
-17.54
-18.33
-17.91
-16.12
-13.06
-9.12
-4.83
-0.72
2.78
5.47
7.26
8.28
8.66
8.56
8.16
7.59
6.96
6.42
6.12
6.18
6.67
7.5
8.53
9.55
10.36
10.87
11.03
10.88
10.46
9.82
8.95
7.82
6.42
4.77
3.02
1.45
0.34
-0.13
-0.01
0.4
0.71
0.58
-0.06
-1.06
-2.1
-2.93
-3.47
-3.81
-4.11
-4.54
-5.2
-6.17
-7.53
-9.32
-11.45
-13.59
-15.21
-15.72
-14.74
-12.23
-8.55
-4.34
-0.29
3.02
5.28
6.44
6.66
6.22
5.42
4.47
3.56
2.76
2.14
1.78
1.82
2.37
3.42
4.89
6.51
8.05
9.3
10.14
10.61
10.71
10.46
9.85
8.9
7.68
6.39
5.26
4.48
4.09
3.93
3.74
3.31
2.56
1.6
0.65
-0.09
-0.57
-0.95
-1.59
-2.9
-5.15
-8.37
-12.22
-16.06
-19.06
-20.46
-19.8
-17.1
-12.87
-7.89
-3.06
1.02
4.04
6.02
7.19
7.82
8.11
8.18
8.12
7.99
7.87
7.81
7.87
8.06
8.43
8.93
9.56
10.24
10.87
11.35
11.57
11.44
10.95
10.09
8.88
7.41
5.83
4.27
2.9
1.81
0.99
0.41
-0.13
-0.74
-1.52
-2.46
-3.48
-4.4
-5.09
-5.56
-5.97
-6.6
-7.78
-9.69
-12.31
-15.29
-18.12
-20.19
-20.96
-20.06
-17.41
-13.26
-8.17
-2.89
1.82
5.4
7.63
8.64
8.82
8.65
8.5
8.55
8.86
9.39
10.07
10.85
11.72
12.61
13.41
13.99
14.23
14.12
13.75
13.3
12.94
12.71
12.45
11.92
10.9
9.39
7.62
5.98
4.85
4.35
4.36
4.54
4.52
3.99
2.93
1.44
-0.24
-1.87
-3.36
-4.77
-6.21
-7.83
-9.7
-11.78
-14.05
-16.43
-18.78
-20.82
-22.09
-22.06
-20.34
-16.95
-12.36
-7.45
-3.1
0.12
2.1
3.16
3.77
4.31
4.93
5.6
6.23
6.81
7.4
8.1
8.96
9.98
11.05
12.05
12.8
13.17
13.13
12.66
11.8
10.6
9.1
7.39
5.64
4.08
3.0
2.59
2.82
3.45
4.09
4.4
4.21
3.61
2.82
2.05
1.45
0.92
0.33
-0.53
-1.81
-3.61
-5.95
-8.75
-11.76
-14.56
-16.66
-17.55
-16.89
-14.67
-11.19
-7.02
-2.83
0.77
3.41
5.04
5.85
6.14
6.17
6.07
5.87
5.55
5.15
4.89
5.01
5.74
7.17
9.11
11.19
12.96
14.0
14.11
13.35
11.95
10.26
8.55
6.97
5.5
4.13
2.85
1.75
0.95
0.5
0.3
0.16
-0.12
-0.68
-1.4
-2.12
-2.62
-2.85
-2.91
-3.12
-3.83
-5.35
-7.84
-11.16
-14.85
-18.26
-20.58
-21.22
-19.92
-16.94
-12.86
-8.51
-4.56
-1.42
0.82
2.31
3.26
3.85
4.17
4.3
4.29
4.22
4.21
4.36
4.77
5.48
6.51
7.77
9.14
10.42
11.42
12.06
12.3
12.22
11.91
11.45
10.87
10.15
9.22
8.09
6.84
5.6
4.6
3.98
3.71
3.63
3.42
2.83
1.8
0.46
-0.94
-2.16
-3.13
-3.97
-4.94
-6.32
-8.27
-10.76
-13.53
-16.19
-18.26
-19.26
-18.96
-17.33
-14.67
-11.44
-8.12
-5.06
-2.45
-0.23
1.64
3.24
4.55
5.46
5.9
5.84
5.45
4.96
4.7
4.89
5.62
6.78
8.1
9.26
10.0
10.25
10.08
9.7
9.22
8.66
7.99
7.11
5.96
4.62
3.25
2.08
1.32
1.02
1.14
1.48
1.79
1.81
1.45
0.69
-0.3
-1.32
-2.27
-3.19
-4.25
-5.65
-7.53
-9.94
-12.75
-15.67
-18.27
-20.09
-20.66
-19.72
-17.31
-13.79
-9.74
-5.79
-2.41
0.15
1.92
3.06
3.8
4.27
4.63
4.89
5.12
5.34
5.6
5.92
6.36
6.94
7.66
8.45
9.18
9.75
10.06
10.11
9.91
9.46
8.78
7.88
6.85
5.76
4.73
3.81
3.07
2.49
2.01
1.55
0.99
0.29
-0.58
-1.59
-2.64
-3.65
-4.65
-5.73
-7.02
-8.64
-10.58
-12.83
-15.24
-17.6
-19.58
-20.73
-20.62
-18.97
-15.83
-11.64
-7.09
-2.86
0.59
3.13
4.94
6.24
7.21
7.91
8.29
8.34
8.13
7.82
7.6
7.65
8.0
8.59
9.21
9.67
9.85
9.76
9.52
9.27
9.08
8.85
8.4
7.56
6.33
4.88
3.48
2.37
1.64
1.18
0.73
0.07
-0.92
-2.2
-3.54
-4.72
-5.57
-6.08
-6.36
-6.64
-7.15
-8.06
-9.45
-11.3
-13.47
-15.7
-17.6
-18.72
-18.61
-16.96
-13.83
-9.61
-4.98
-0.69
2.7
4.98
6.31
7.0
7.41
7.73
8.01
8.21
8.27
8.25
8.22
8.3
8.52
8.86
9.18
9.34
9.24
8.91
8.44
7.97
7.57
7.2
6.73
6.0
4.93
3.59
2.12
0.73
-0.39
-1.17
-1.6
-1.79
-1.87
-1.97
-2.23
-2.71
-3.42
-4.3
-5.24
-6.08
-6.75
-7.22
-7.58
-8.04
-8.82
-10.1
-11.91
-13.99
-15.87
-16.98
-16.84
-15.3
-12.56
-9.09
-5.51
-2.32
0.18
1.88
2.85
3.2
3.03
2.48
1.73
1.02
0.64
0.81
1.6
2.87
4.36
5.73
6.77
7.38
7.66
7.81
8.03
8.4
8.86
9.27
9.41
9.13
8.38
7.24
5.9
4.54
3.32
2.28
1.4
0.63
-0.06
-0.66
-1.12
-1.4
-1.5
-1.49
-1.61
-2.12
-3.25
-5.13
-7.65
-10.46
-13.02
-14.76
-15.2
-14.14
-11.67
-8.17
-4.27
-0.62
2.2
3.86
4.42
4.23
3.75
3.41
3.32
3.35
3.29
3.03
2.66
2.48
2.71
3.38
4.28
5.07
5.57
5.79
5.93
6.19
6.61
7.01
7.11
6.66
5.65
4.27
2.85
1.68
0.9
0.49
0.27
0.02
-0.39
-1.02
-1.77
-2.49
-3.12
-3.64
-4.04
-4.43
-4.85
-5.38
-6.12
-7.19
-8.71
-10.59
-12.57
-14.15
-14.8
-14.12
-12.06
-8.94
-5.33
-1.83
1.1
3.2
4.53
5.21
5.48
5.52
5.46
5.37
5.32
5.36
5.61
6.16
7.01
8.08
9.14
9.91
10.23
10.05
9.5
8.78
8.1
7.58
7.23
6.96
6.63
6.09
5.32
4.36
3.42
2.73
2.43
2.42
2.47
2.18
1.37
0.05
-1.55
-3.16
-4.64
-6.06
-7.56
-9.28
-11.22
-13.32
-15.47
-17.65
-19.77
-21.63
-22.89
-23.09
-21.91
-19.29
-15.55
-11.28
-7.13
-3.59
-0.91
0.89
1.99
2.65
3.09
3.46
3.78
4.02
4.14
4.22
4.37
4.82
5.65
6.8
8.02
9.08
9.76
10.04
10.01
9.74
9.24
8.44
7.27
5.81
4.3
3.02
2.24
2.04
2.27
2.67
2.92
2.73
2.01
0.82
-0.68
-2.24
-3.67
-4.87
-5.84
-6.67
-7.55
-8.59
-9.9
-11.45
-13.06
-14.34
-14.84
-14.11
-11.96
-8.56
-4.43
-0.28
3.29
5.91
7.6
8.55
9.07
9.3
9.3
9.06
8.58
7.97
7.45
7.2
7.28
7.62
7.99
8.15
7.98
7.51
6.88
6.26
5.69
5.11
4.42
3.54
2.55
1.61
0.88
0.48
0.33
0.32
0.27
0.15
-0.02
-0.17
-0.22
-0.22
-0.25
-0.45
-0.88
-1.58
-2.49
-3.64
-5.08
-6.9
-9.15
-11.68
-14.08
-15.76
-16.13
-14.85
-12.04
-8.24
-4.25
-0.83
1.6
3.01
3.7
4.06
4.32
4.53
4.57
4.33
3.82
3.23
2.84
2.89
3.46
4.42
5.51
6.46
7.13
7.49
7.69
7.86
8.07
8.29
8.43
8.41
8.14
7.61
6.85
5.89
4.77
3.58
2.45
1.51
0.85
0.44
0.09
-0.42
-1.27
-2.5
-3.91
-5.25
-6.28
-6.95
-7.39
-7.86
-8.59
-9.72
-11.15
-12.7
-14.06
-14.9
-14.89
-13.83
-11.65
-8.54
-4.88
-1.22
1.94
4.23
5.54
5.98
5.78
5.25
4.66
4.22
4.07
4.25
4.73
5.4
6.14
6.82
7.35
7.71
7.9
7.87
7.61
7.07
6.25
5.21
4.06
2.98
2.08
1.48
1.2
1.21
1.44
1.78
2.1
2.28
2.24
1.93
1.33
0.43
-0.71
-1.97
-3.27
-4.49
-5.66
-6.86
-8.22
-9.8
-11.52
-13.13
-14.29
-14.67
-14.06
-12.47
-10.05
-7.17
-4.25
-1.65
0.36
1.72
2.59
3.23
3.85
4.52
5.17
5.65
5.9
5.96
6.0
6.16
6.44
6.75
6.99
7.13
7.24
7.46
7.81
8.27
8.67
8.86
8.71
8.21
7.42
6.47
5.47
4.48
3.55
2.74
2.03
1.4
0.79
0.11
-0.74
-1.78
-2.98
-4.16
-5.11
-5.63
-5.66
-5.33
-4.99
-4.98
-5.54
-6.73
-8.35
-10.11
-11.61
-12.49
-12.46
-11.34
-9.17
-6.19
-2.85
0.29
2.74
4.29
5.02
5.23
5.25
5.28
5.32
5.24
4.96
4.45
3.89
3.48
3.38
3.63
4.13
4.69
5.09
5.22
5.04
4.66
4.24
3.89
3.63
3.39
3.02
2.41
1.6
0.77
0.14
-0.14
-0.1
0.08
0.21
0.18
-0.0
-0.17
-0.17
0.09
0.54
1.04
1.36
1.27
0.59
-0.73
-2.59
-4.75
-6.88
-8.62
-9.66
-9.81
-9.03
-7.44
-5.28
-2.91
-0.64
1.27
2.72
3.68
4.19
4.32
4.06
3.47
2.64
1.8
1.23
1.17
1.72
2.73
3.96
5.03
5.69
5.85
5.63
5.26
5.0
5.01
5.25
5.52
5.63
5.42
4.92
4.27
3.61
3.06
2.65
2.34
2.08
1.81
1.48
1.0
0.33
-0.52
-1.46
-2.31
-2.97
-3.48
-4.02
-4.84
-6.19
-8.09
-10.37
-12.64
-14.5
-15.54
-15.49
-14.3
-12.1
-9.21
-6.12
-3.27
-1.0
0.55
1.46
1.96
2.3
2.68
3.15
3.72
4.31
4.9
5.5
6.14
6.82
7.5
8.03
8.27
8.13
7.6
6.87
6.14
5.59
5.28
5.15
5.05
4.83
4.45
3.94
3.37
2.86
2.45
2.13
1.88
1.63
1.27
0.71
-0.16
-1.42
-3.04
-4.85
-6.63
-8.06
-8.93
-9.17
-8.89
-8.37
-7.97
-8.02
-8.67
-9.84
-11.23
-12.34
-12.71
-12.03
-10.27
-7.67
-4.65
-1.7
0.78
2.53
3.52
3.89
3.87
3.69
3.48
3.28
3.06
2.84
2.72
2.83
3.24
3.96
4.88
5.8
6.54
7.06
7.37
7.57
7.72
7.79
7.75
7.5
6.99
6.22
5.21
4.04
2.85
1.81
1.09
0.79
0.87
1.09
1.13
0.72
-0.27
-1.73
-3.37
-4.88
-6.08
-6.96
-7.63
-8.23
-8.85
-9.49
-10.13
-10.83
-11.56
-12.23
-12.58
-12.26
-10.92
-8.48
-5.14
-1.4
2.11
4.81
6.38
6.81
6.31
5.27
4.04
2.84
1.77
0.85
0.14
-0.16
0.17
1.31
3.2
5.54
7.87
9.73
10.86
11.27
11.21
10.94
10.65
10.38
10.07
9.6
8.92
8.07
7.12
6.15
5.2
4.21
3.11
1.83
0.32
-1.36
-3.08
-4.68
-6.02
-6.97
-7.52
-7.71
-7.68
-7.67
-7.95
-8.7
-10.0
-11.68
-13.37
-14.65
-15.12
-14.61
-13.15
-10.99
-8.47
-5.99
-3.88
-2.35
-1.41
-0.91
-0.58
-0.18
0.4
1.09
1.73
2.23
2.58
2.88
3.21
3.64
4.12
4.7
5.44
6.4
7.57
8.76
9.62
9.85
9.32
8.19
6.79
5.45
4.38
3.57
2.91
2.26
1.56
0.79
-0.05
-0.94
-1.85
-2.8
-3.72
-4.59
-5.34
-5.93
-6.23
-6.22
-5.92
-5.52
-5.33
-5.59
-6.45
-7.83
-9.46
-11.03
-12.24
-12.87
-12.78
-11.91
-10.29
-8.04
-5.41
-2.75
-0.35
1.59
2.99
3.92
4.48
4.77
4.88
4.8
4.58
4.26
3.84
3.36
2.83
2.31
1.85
1.49
1.28
1.18
1.21
1.34
1.59
1.95
2.42
2.92
3.33
3.55
3.53
3.36
3.15
3.09
3.28
3.65
4.03
4.15
3.84
3.04
1.9
0.7
-0.28
-0.86
-1.09
-1.16
-1.31
-1.75
-2.53
-3.66
-5.03
-6.58
-8.18
-9.64
-10.71
-11.18
-10.89
-9.88
-8.34
-6.58
-4.9
-3.44
-2.22
-1.17
-0.25
0.55
1.16
1.53
1.72
1.86
2.15
2.76
3.74
4.98
6.28
7.35
8.03
8.25
8.09
7.73
7.36
7.1
6.97
6.9
6.78
6.59
6.37
6.22
6.14
6.16
6.16
6.0
5.56
4.82
3.78
2.53
1.14
-0.31
-1.79
-3.27
-4.67
-5.98
-7.16
-8.2
-9.19
-10.17
-11.24
-12.43
-13.64
-14.68
-15.23
-15.0
-13.87
-11.85
-9.17
-6.22
-3.39
-1.02
0.75
1.97
2.78
3.42
4.0
4.54
4.91
4.98
4.71
4.25
3.85
3.81
4.25
5.05
5.93
6.55
6.74
6.53
6.12
5.78
5.67
5.78
5.93
5.89
5.55
4.96
4.3
3.74
3.39
3.2
3.01
2.67
2.12
1.4
0.62
-0.16
-0.92
-1.71
-2.59
-3.54
-4.47
-5.19
-5.64
-5.87
-6.05
-6.5
-7.43
-8.93
-10.86
-12.85
-14.47
-15.32
-15.2
-14.11
-12.24
-9.86
-7.24
-4.61
-2.17
-0.07
1.58
2.71
3.4
3.76
3.97
4.14
4.29
4.4
4.45
4.45
4.49
4.65
4.93
5.27
5.58
5.81
5.99
6.17
6.41
6.7
6.99
7.2
7.25
7.05
6.55
5.77
4.78
3.75
2.89
2.35
2.16
2.21
2.33
2.31
2.07
1.57
0.9
0.14
-0.62
-1.31
-1.94
-2.56
-3.32
-4.36
-5.83
-7.66
-9.67
-11.52
-12.88
-13.48
-13.15
-11.93
-9.92
-7.37
-4.61
-1.99
0.18
1.75
2.75
3.3
3.61
3.82
4.0
4.22
4.53
4.96
5.51
6.14
6.72
7.19
7.54
7.77
7.87
7.81
7.54
7.04
6.41
5.76
5.23
4.84
4.51
4.13
3.6
2.91
2.05
1.13
0.25
-0.47
-0.89
-0.93
-0.58
0.0
0.62
1.03
1.1
0.82
0.26
-0.51
-1.42
-2.48
-3.7
-5.1
-6.7
-8.54
-10.61
-12.75
-14.66
-15.93
-16.13
-15.04
-12.69
-9.43
-5.78
-2.33
0.47
2.42
3.56
4.13
4.44
4.78
5.23
5.72
6.07
6.11
5.84
5.44
5.15
5.15
5.48
6.0
6.53
6.9
7.03
6.94
6.63
6.14
5.48
4.73
3.93
3.23
2.73
2.56
2.72
3.19
3.86
4.58
5.22
5.65
5.77
5.48
4.68
3.35
1.53
-0.52
-2.54
-4.22
-5.46
-6.36
-7.18
-8.22
-9.57
-11.17
-12.79
-14.15
-15.09
-15.47
-15.24
-14.3
-12.56
-10.04
-6.97
-3.73
-0.78
1.56
3.16
4.17
4.83
5.34
5.77
6.04
6.07
5.85
5.53
5.34
5.51
6.1
7.02
8.0
8.73
9.02
8.8
8.22
7.44
6.63
5.82
4.96
3.99
2.92
1.86
0.97
0.4
0.19
0.26
0.43
0.46
0.15
-0.61
-1.83
-3.36
-4.96
-6.32
-7.26
-7.76
-7.99
-8.22
-8.73
-9.58
-10.73
-11.96
-12.97
-13.45
-13.16
-11.97
-9.88
-7.14
-4.13
-1.27
1.11
2.86
4.06
4.8
5.24
5.43
5.41
5.27
5.14
5.14
5.35
5.71
6.14
6.52
6.83
7.05
7.18
7.18
6.99
6.62
6.12
5.62
5.24
5.06
5.05
5.16
5.28
5.29
5.11
4.74
4.23
3.71
3.33
3.13
2.97
2.66
2.01
0.98
-0.3
-1.56
-2.57
-3.2
-3.5
-3.64
-3.76
-4.01
-4.52
-5.41
-6.76
-8.5
-10.4
-12.06
-13.01
-12.93
-11.74
-9.64
-7.07
-4.49
-2.3
-0.73
0.21
0.66
0.8
0.8
0.75
0.71
0.7
0.78
1.06
1.64
2.58
3.82
5.23
6.57
7.61
8.2
8.35
8.15
7.79
7.4
7.03
6.65
6.15
5.48
4.64
3.76
2.95
2.32
1.85
1.49
1.15
0.83
0.51
0.16
-0.28
-0.96
-2.0
-3.43
-5.08
-6.75
-8.24
-9.47
-10.53
-11.59
-12.72
-13.86
-14.73
-14.93
-14.19
-12.49
-10.02
-7.18
-4.38
-1.94
0.09
1.75
3.19
4.46
5.53
6.3
6.67
6.65
6.37
6.1
6.06
6.46
7.29
8.44
9.63
10.59
11.09
11.03
10.44
9.44
8.18
6.74
5.18
3.54
1.87
0.35
-0.86
-1.56
-1.74
-1.53
-1.26
-1.3
-1.89
-3.05
-4.48
-5.82
-6.73
-7.1
-7.03
-6.79
-6.64
-6.72
-7.13
-7.88
-9.05
-10.64
-12.51
-14.29
-15.46
-15.47
-14.03
-11.26
-7.68
-4.07
-1.09
0.88
1.92
2.39
2.73
3.23
3.9
4.57
5.07
5.37
5.65
6.12
6.92
8.01
9.13
10.02
10.51
10.66
10.6
10.52
10.46
10.4
10.15
9.57
8.59
7.23
5.6
3.83
2.05
0.38
-1.06
-2.19
-2.97
-3.45
-3.75
-4.06
-4.56
-5.29
-6.2
-7.09
-7.73
-7.97
-7.8
-7.43
-7.18
-7.35
-8.14
-9.51
-11.17
-12.67
-13.49
-13.22
-11.74
-9.21
-6.02
-2.72
0.23
2.52
4.01
4.73
4.77
4.21
3.2
1.95
0.71
-0.19
-0.51
-0.11
0.91
2.39
4.05
5.65
7.01
7.96
8.53
8.75
8.74
8.64
8.53
8.35
7.96
7.26
6.18
4.82
3.35
1.96
0.79
-0.11
-0.72
-1.02
-1.06
-0.91
-0.69
-0.59
-0.7
-1.05
-1.6
-2.38
-3.46
-5.0
-7.07
-9.5
-11.94
-13.86
-14.83
-14.65
-13.46
-11.55
-9.37
-7.25
-5.4
-3.9
-2.71
-1.74
-0.85
0.04
1.01
1.98
2.86
3.56
4.1
4.61
5.3
6.28
7.52
8.86
10.01
10.73
10.92
10.65
10.07
9.42
8.81
8.25
7.68
6.96
6.1
5.2
4.39
3.87
3.7
3.81
3.98
3.94
3.47
2.49
1.07
-0.56
-2.12
-3.4
-4.29
-4.88
-5.34
-5.9
-6.71
-7.84
-9.27
-10.87
-12.47
-13.83
-14.7
-14.8
-13.96
-12.17
-9.64
-6.79
-4.07
-1.86
-0.34
0.55
1.0
1.29
1.63
2.18
2.98
3.99
5.11
6.25
7.33
8.35
9.29
10.13
10.77
11.1
11.09
10.77
10.29
9.78
9.3
8.78
8.07
7.08
5.86
4.54
3.33
2.42
1.88
1.67
1.76
2.07
2.49
2.84
2.9
2.52
1.65
0.38
-1.07
-2.56
-3.99
-5.38
-6.8
-8.27
-9.84
-11.46
-13.15
-14.83
-16.37
-17.5
-17.88
-17.27
-15.57
-12.93
-9.67
-6.25
-3.11
-0.6
1.15
2.21
2.82
3.27
3.77
4.37
4.98
5.51
5.94
6.41
7.1
8.15
9.57
11.15
12.66
13.84
14.6
14.9
14.81
14.34
13.52
12.37
10.92
9.25
7.5
5.82
4.34
3.12
2.18
1.42
0.76
0.1
-0.59
-1.24
-1.82
-2.27
-2.63
-2.98
-3.48
-4.17
-5.09
-6.19
-7.39
-8.62
-9.89
-11.16
-12.36
-13.27
-13.58
-12.97
-11.27
-8.56
-5.24
-1.88
0.93
2.87
3.93
4.35
4.49
4.6
4.77
4.93
5.02
5.02
4.99
5.01
5.1
5.19
5.21
5.14
5.06
5.13
5.43
5.9
6.38
6.61
6.43
5.86
5.08
4.37
3.93
3.86
4.15
4.69
5.32
5.91
6.32
6.46
6.24
5.67
4.78
3.7
2.61
1.6
0.76
0.12
-0.41
-0.97
-1.68
-2.68
-4.06
-5.88
-8.18
-10.86
-13.7
-16.28
-18.09
-18.64
-17.65
-15.26
-11.97
-8.48
-5.44
-3.23
-1.86
-1.06
-0.43
0.26
1.09
1.97
2.74
3.33
3.79
4.26
4.86
5.67
6.54
7.27
7.73
7.9
7.92
7.96
8.11
8.35
8.52
8.42
7.99
7.29
6.46
5.71
5.15
4.82
4.65
4.57
4.47
4.24
3.81
3.14
2.25
1.17
0.01
-1.21
-2.45
-3.61
-4.65
-5.45
-5.96
-6.2
-6.3
-6.54
-7.19
-8.44
-10.24
-12.3
-14.13
-15.21
-15.15
-13.86
-11.53
-8.6
-5.55
-2.85
-0.71
0.75
1.58
1.86
1.71
1.23
0.58
-0.01
-0.35
-0.23
0.44
1.58
3.07
4.73
6.38
7.91
9.23
10.26
10.89
11.06
10.81
10.3
9.69
9.1
8.5
7.83
6.99
5.98
4.91
3.86
2.87
1.86
0.7
-0.65
-2.12
-3.55
-4.76
-5.68
-6.36
-6.82
-7.1
-7.16
-6.98
-6.7
-6.58
-6.94
-8.01
-9.75
-11.8
-13.53
-14.35
-13.86
-12.05
-9.28
-6.12
-3.13
-0.74
0.91
1.88
2.37
2.59
2.74
2.91
3.2
3.66
4.36
5.28
6.38
7.58
8.74
9.71
10.35
10.54
10.28
9.65
8.79
7.84
6.96
6.19
5.55
4.98
4.46
3.99
3.58
3.26
3.03
2.86
2.67
2.43
2.12
1.76
1.34
0.84
0.2
-0.65
-1.74
-3.06
-4.5
-5.9
-7.09
-7.98
-8.59
-9.13
-9.87
-11.02
-12.65
-14.58
-16.37
-17.53
-17.62
-16.5
-14.32
-11.5
-8.55
-5.92
-3.86
-2.4
-1.46
-0.88
-0.55
-0.39
-0.35
-0.37
-0.34
-0.09
0.5
1.46
2.69
3.98
5.08
5.81
6.13
6.15
6.04
5.98
6.07
6.31
6.62
6.89
6.95
6.74
6.25
5.58
4.91
4.44
4.24
4.29
4.43
4.44
4.17
3.54
2.59
1.45
0.27
-0.83
-1.78
-2.63
-3.51
-4.63
-6.19
-8.27
-10.76
-13.35
-15.57
-16.95
-17.13
-16.02
-13.83
-10.91
-7.74
-4.71
-2.07
0.02
1.56
2.61
3.23
3.56
3.77
3.99
4.3
4.65
4.94
5.06
5.0
4.85
4.73
4.71
4.75
4.74
4.58
4.26
3.81
3.33
2.85
2.43
2.12
2.0
2.17
2.64
3.36
4.14
4.83
5.34
5.68
5.9
5.97
5.83
5.33
4.44
3.24
1.91
0.61
-0.58
-1.74
-3.01
-4.53
-6.39
-8.55
-10.99
-13.55
-16.02
-18.02
-19.14
-19.01
-17.53
-14.91
-11.62
-8.25
-5.29
-3.0
-1.38
-0.23
0.71
1.66
2.68
3.7
4.56
5.12
5.33
5.32
5.32
5.55
6.11
6.95
7.91
8.8
9.58
10.21
10.73
11.13
11.31
11.15
10.6
9.66
8.44
7.12
5.86
4.77
3.91
3.2
2.52
1.7
0.58
-0.86
-2.52
-4.22
-5.77
-6.99
-7.85
-8.38
-8.68
-8.83
-8.96
-9.27
-9.95
-11.15
-12.84
-14.74
-16.36
-17.1
-16.5
-14.46
-11.27
-7.46
-3.69
-0.45
2.01
3.71
4.81
5.49
5.89
6.08
6.14
6.17
6.35
6.78
7.56
8.63
9.81
10.87
11.61
11.94
11.9
11.55
11.0
10.3
9.43
8.33
7.04
5.62
4.16
2.77
1.55
0.57
-0.14
-0.59
-0.8
-0.9
-1.02
-1.29
-1.8
-2.52
-3.33
-4.04
-4.52
-4.77
-4.88
-5.12
-5.71
-6.75
-8.19
-9.8
-11.23
-12.14
-12.33
-11.7
-10.3
-8.28
-5.82
-3.22
-0.83
1.06
2.26
2.76
2.78
2.62
2.52
2.59
2.83
3.16
3.58
4.16
5.0
6.17
7.6
9.09
10.38
11.25
11.61
11.52
11.13
10.65
10.22
9.91
9.63
9.23
8.55
7.54
6.26
4.83
3.38
2.02
0.76
-0.43
-1.51
-2.43
-3.06
-3.32
-3.18
-2.79
-2.35
-2.12
-2.3
-2.98
-4.16
-5.79
-7.78
-9.93
-12.01
-13.65
-14.47
-14.16
-12.62
-10.06
-6.95
-3.89
-1.4
0.2
0.91
0.98
0.82
0.83
1.26
2.15
3.31
4.51
5.53
6.38
7.23
8.29
9.68
11.26
12.74
13.73
13.96
13.41
12.22
10.65
8.89
7.07
5.27
3.57
2.14
1.2
0.85
1.06
1.63
2.21
2.49
2.27
1.54
0.49
-0.6
-1.45
-1.92
-1.97
-1.76
-1.53
-1.53
-1.9
-2.71
-3.92
-5.47
-7.3
-9.33
-11.36
-13.04
-13.92
-13.63
-12.03
-9.37
-6.14
-2.97
-0.28
1.74
3.2
4.35
5.36
6.25
6.91
7.21
7.09
6.68
6.22
5.95
6.01
6.36
6.84
7.25
7.47
7.53
7.6
7.87
8.39
9.05
9.58
9.69
9.29
8.46
7.43
6.46
5.73
5.19
4.7
4.06
3.12
1.84
0.27
-1.47
-3.26
-5.02
-6.69
-8.17
-9.4
-10.31
-10.89
-11.21
-11.52
-12.08
-13.09
-14.47
-15.84
-16.61
-16.21
-14.44
-11.48
-7.91
-4.34
-1.21
1.36
3.42
5.13
6.45
7.27
7.45
7.01
6.11
5.13
4.4
4.21
4.68
5.7
7.01
8.2
8.95
9.1
8.78
8.27
7.95
8.0
8.42
9.02
9.53
9.76
9.6
9.05
8.13
6.92
5.55
4.11
2.76
1.55
0.48
-0.48
-1.41
-2.3
-3.12
-3.79
-4.26
-4.56
-4.76
-5.01
-5.45
-6.21
-7.36
-8.85
-10.55
-12.2
-13.48
-14.09
-13.81
-12.56
-10.48
-7.89
-5.27
-3.01
-1.38
-0.32
0.44
1.25
2.28
3.46
4.51
5.17
5.35
5.17
4.93
4.9
5.19
5.77
6.49
7.17
7.66
7.89
7.79
7.36
6.67
5.84
5.01
4.29
3.69
3.14
2.59
1.96
1.29
0.63
0.03
-0.5
-0.96
-1.39
-1.81
-2.14
-2.35
-2.32
-2.06
-1.68
-1.37
-1.42
-2.06
-3.36
-5.18
-7.23
-9.03
-10.2
-10.46
-9.75
-8.14
-5.92
-3.41
-0.94
1.18
2.74
3.64
3.92
3.68
3.1
2.38
1.73
1.29
1.14
1.24
1.44
1.6
1.65
1.56
1.42
1.36
1.46
1.73
2.15
2.7
3.31
3.91
4.38
4.62
4.56
4.26
3.85
3.54
3.39
3.39
3.41
3.36
3.15
2.81
2.36
1.84
1.21
0.45
-0.42
-1.34
-2.19
-2.98
-3.79
-4.81
-6.16
-7.89
-9.85
-11.76
-13.29
-14.17
-14.26
-13.57
-12.2
-10.37
-8.3
-6.17
-4.15
-2.35
-0.87
0.29
1.12
1.7
2.1
2.46
2.89
3.48
4.26
5.23
6.34
7.48
8.55
9.4
9.93
10.06
9.76
9.02
7.92
6.53
5.0
3.5
2.22
1.3
0.81
0.72
0.87
1.06
1.18
1.22
1.29
1.46
1.75
2.02
2.06
1.69
0.86
-0.28
-1.54
-2.72
-3.77
-4.72
-5.66
-6.67
-7.8
-9.03
-10.28
-11.51
-12.52
-13.12
-13.1
-12.34
-10.87
-8.91
-6.75
-4.72
-3.03
-1.73
-0.78
-0.05
0.63
1.33
2.04
2.73
3.29
3.69
4.01
4.45
5.18
6.25
7.51
8.71
9.54
9.9
9.81
9.51
9.17
8.89
8.63
8.26
7.67
6.83
5.83
4.77
3.79
2.96
2.26
1.66
1.05
0.33
-0.51
-1.45
-2.42
-3.38
-4.26
-5.07
-5.8
-6.47
-7.11
-7.78
-8.55
-9.47
-10.54
-11.66
-12.71
-13.58
-14.22
-14.55
-14.52
-13.97
-12.77
-10.88
-8.41
-5.68
-3.07
-0.9
0.71
1.82
2.59
3.15
3.57
3.8
3.85
3.78
3.75
3.9
4.34
5.02
5.78
6.38
6.62
6.39
5.73
4.82
3.95
3.35
3.14
3.25
3.45
3.45
3.15
2.61
2.07
1.75
1.78
2.08
2.43
2.56
2.32
1.68
0.77
-0.21
-1.09
-1.79
-2.36
-2.91
-3.58
-4.45
-5.55
-6.85
-8.31
-9.83
-11.25
-12.31
-12.65
-11.99
-10.25
-7.68
-4.81
-2.22
-0.36
0.62
0.87
0.66
0.3
0.04
0.01
0.22
0.59
0.99
1.32
1.53
1.73
2.14
2.9
4.01
5.3
6.48
7.31
7.74
7.87
7.87
7.84
7.81
7.68
7.38
6.88
6.18
5.34
4.42
3.55
2.84
2.41
2.21
2.09
1.76
0.99
-0.25
-1.77
-3.28
-4.52
-5.41
-6.02
-6.54
-7.08
-7.68
-8.41
-9.34
