0
-20.46
-10.26
-1.43
6.51
13.82
20.43
26.13
30.79
34.33
36.84
38.41
39.2
39.42
39.34
39.26
39.42
39.95
40.84
41.95
43.14
44.18
44.87
44.97
44.27
42.66
40.28
37.41
34.41
31.57
28.92
26.23
23.17
19.49
15.21
10.62
6.15
2.14
-1.33
-4.52
-7.82
-11.65
-16.18
-21.31
-26.72
-32.0
-36.84
-41.09
-44.89
-48.62
-52.9
-58.35
-65.4
-73.9
-82.91
-90.82
-95.66
-95.8
-90.5
-80.24
-66.5
-51.29
-36.42
-23.14
-11.89
-2.57
5.22
11.86
17.6
22.55
26.72
30.11
32.77
34.8
36.34
37.55
38.55
39.39
40.08
40.65
41.21
41.94
42.96
44.22
45.44
46.21
46.2
45.29
43.63
41.52
39.2
36.81
34.25
31.35
27.95
23.95
19.43
14.6
9.85
5.59
2.09
-0.67
-3.09
-5.78
-9.29
-13.88
-19.3
-24.99
-30.33
-34.95
-38.81
-42.26
-45.8
-50.07
-55.65
-62.9
-71.7
-81.28
-90.11
-96.26
-97.89
-93.93
-84.48
-70.84
-55.06
-39.33
-25.3
-13.77
-4.72
2.39
8.17
13.03
17.03
20.05
22.04
23.15
23.81
24.52
25.63
27.24
29.17
31.16
33.01
34.68
36.2
37.62
38.86
39.75
40.04
39.53
38.13
35.88
32.95
29.55
25.95
22.35
18.87
15.51
12.13
8.48
4.26
-0.69
-6.34
-12.39
-18.39
-23.86
-28.5
-32.4
-35.98
-39.93
-44.97
-51.66
-60.22
-70.41
-81.45
-91.94
-100.1
-104.08
-102.49
-94.9
-82.08
-65.77
-48.17
-31.31
-16.52
-4.33
5.43
13.2
19.47
24.61
28.81
32.16
34.7
36.5
37.68
38.44
39.05
39.77
40.78
42.15
43.84
45.73
47.67
49.5
51.03
52.04
52.34
51.78
50.35
48.14
45.31
42.01
38.37
34.44
30.29
25.96
21.55
17.12
12.72
8.36
3.92
-0.74
-5.8
-11.32
-17.21
-23.24
-29.18
-34.9
-40.59
-46.68
-53.7
-62.09
-71.92
-82.71
-93.43
-102.46
-108.01
-108.48
-102.91
-91.44
-75.26
-56.39
-37.13
-19.42
-4.41
7.57
16.86
24.14
30.06
35.13
39.59
43.49
46.81
49.49
51.56
53.12
54.34
55.31
56.13
56.88
57.72
58.84
60.41
62.33
64.25
65.61
65.87
64.75
62.35
59.03
55.18
51.07
46.72
42.07
37.13
32.05
27.09
22.46
18.2
14.13
9.95
5.33
0.06
-5.9
-12.35
-18.97
-25.36
-31.25
-36.6
-41.68
-47.02
-53.34
-61.25
-71.02
-82.28
-93.85
-103.86
-110.11
-110.69
-104.61
-92.17
-74.94
-55.27
-35.54
-17.54
-2.15
10.56
21.01
29.7
37.01
43.12
48.08
51.91
54.67
56.46
57.46
57.88
57.92
57.78
57.65
57.69
58.03
58.74
59.77
60.86
61.66
61.78
60.95
59.18
56.7
53.82
50.79
47.6
44.07
39.98
35.21
29.9
24.39
19.06
14.16
9.67
5.27
0.55
-4.79
-10.78
-17.17
-23.47
-29.31
-34.48
-39.12
-43.6
-48.46
-54.26
-61.48
-70.3
-80.42
-90.78
-99.67
-104.95
-104.78
-98.19
-85.54
-68.44
-49.28
-30.49
-13.93
-0.52
9.67
17.2
22.82
27.2
30.7
33.47
35.58
37.14
38.41
39.68
41.09
42.53
43.72
44.42
44.62
44.6
44.77
45.35
46.16
46.74
46.48
44.96
42.1
38.14
33.53
28.79
24.26
20.12
16.3
12.51
8.34
3.5
-2.08
-8.19
-14.41
-20.39
-25.97
-31.28
-36.64
-42.48
-49.25
-57.26
-66.53
-76.61
-86.36
-94.08
-97.85
-96.19
-88.57
-75.7
-59.32
-41.57
-24.43
-9.14
3.84
14.62
23.59
31.02
36.98
41.34
44.06
45.27
45.42
45.15
45.05
45.47
46.42
47.63
48.75
49.58
50.08
50.4
50.7
50.99
51.09
50.68
49.37
46.91
43.3
38.72
33.57
28.29
23.19
18.34
13.68
9.0
4.09
-1.14
-6.69
-12.48
-18.36
-24.16
-29.67
-34.79
-39.56
-44.28
-49.44
-55.69
-63.52
-72.98
-83.49
-93.66
-101.53
-105.05
-102.71
-94.02
-79.86
-62.16
-43.35
-25.63
-10.39
1.96
11.71
19.51
25.96
31.37
35.84
39.35
41.91
43.59
44.59
45.2
45.74
46.48
47.57
48.99
50.6
52.21
53.63
54.71
55.23
54.99
53.76
51.46
48.28
44.6
40.92
37.55
34.45
31.34
27.86
23.78
19.14
14.14
9.1
4.19
-0.53
-5.14
-9.78
-14.58
-19.6
-24.78
-29.97
-35.0
-39.81
-44.55
-49.59
-55.45
-62.66
-71.41
-81.33
-91.4
-99.98
-105.1
-105.05
-98.93
-87.08
-71.03
-53.04
-35.37
-19.63
-6.52
4.11
12.79
20.01
26.05
30.9
34.51
36.88
38.16
38.68
38.84
39.07
39.7
40.91
42.73
45.03
47.66
50.42
53.19
55.75
57.83
59.12
59.34
58.42
56.47
53.8
50.73
47.46
44.06
40.45
36.55
32.37
28.01
23.64
19.47
15.57
11.88
8.19
4.22
-0.24
-5.23
-10.56
-15.92
-20.96
-25.55
-29.83
-34.26
-39.5
-46.17
-54.55
-64.4
-74.73
-83.91
-89.95
-91.03
-86.07
-75.18
-59.67
-41.68
-23.53
-7.06
6.71
17.56
25.82
31.97
36.42
39.45
41.26
42.13
42.38
42.37
42.41
42.67
43.23
44.07
45.11
46.25
47.46
48.73
50.0
51.22
52.17
52.55
51.98
50.21
47.14
42.99
38.21
33.37
28.94
25.18
21.99
18.98
15.64
11.51
6.41
0.49
-5.77
-11.83
-17.33
-22.19
-26.78
-31.72
-37.7
-45.21
-54.33
-64.55
-74.78
-83.42
-88.78
-89.4
-84.61
-74.75
-61.14
-45.74
-30.52
-17.0
-5.86
2.97
10.04
15.99
21.18
25.62
29.06
31.2
32.0
31.73
30.9
30.08
29.63
29.67
30.06
30.6
31.16
31.72
32.3
32.86
33.22
33.09
32.17
30.3
27.5
23.99
20.11
16.21
12.52
9.1
5.83
2.41
-1.44
-5.91
-11.05
-16.77
-22.88
-29.14
-35.27
-41.01
-46.16
-50.7
-54.9
-59.25
-64.38
-70.71
-78.28
-86.45
-93.99
-99.3
-100.85
-97.61
-89.49
-77.31
-62.64
-47.33
-33.03
-20.76
-10.78
-2.74
3.98
9.89
15.22
19.92
23.82
26.85
29.12
30.85
32.3
33.63
34.86
36.0
37.04
38.04
39.07
40.12
41.1
41.86
42.22
42.06
41.31
39.99
38.07
35.57
32.52
29.05
25.39
21.81
18.5
15.51
12.71
9.86
6.7
3.1
-0.91
-5.22
-9.68
-14.19
-18.78
-23.51
-28.48
-33.82
-39.72
-46.41
-53.96
-62.12
-70.1
-76.64
-80.23
-79.64
-74.33
-64.7
-52.01
-37.97
-24.2
-11.83
-1.36
7.26
14.39
20.39
25.5
29.78
33.21
35.76
37.49
38.53
39.12
39.46
39.65
39.74
39.69
39.46
39.08
38.64
38.28
38.03
37.87
37.61
37.0
35.77
33.77
31.01
27.68
24.08
20.52
17.19
14.08
11.05
7.85
4.29
0.32
-3.94
-8.25
-12.36
-16.12
-19.59
-22.96
-26.58
-30.8
-35.93
-42.15
-49.46
-57.56
-65.71
-72.77
-77.34
-78.11
-74.32
-66.05
-54.29
-40.64
-26.78
-13.97
-2.92
6.21
13.55
19.23
23.32
25.89
27.1
27.26
26.82
26.22
25.8
25.73
26.01
26.52
27.09
27.57
27.87
27.96
27.8
27.33
26.39
24.86
22.67
19.97
17.1
14.37
11.96
9.77
7.49
4.72
1.23
-2.97
-7.61
-12.33
-16.74
-20.67
-24.18
-27.58
-31.45
-36.42
-42.95
-50.96
-59.72
-67.88
-73.77
-75.93
-73.5
-66.53
-55.89
-43.02
-29.46
-16.49
-4.87
5.12
13.58
20.73
26.7
31.51
35.14
37.65
39.21
40.13
40.77
41.4
42.16
43.0
43.78
44.37
44.75
45.03
45.4
46.01
46.86
47.76
48.36
48.31
47.37
45.55
43.03
40.12
37.06
34.04
31.11
28.24
25.27
21.96
18.01
13.29
7.82
1.9
-4.05
-9.69
-14.92
-19.92
-25.12
-30.95
-37.69
-45.35
-53.51
-61.38
-67.83
-71.63
-71.73
-67.63
-59.62
-48.75
-36.49
-24.29
-13.2
-3.72
4.14
10.62
16.01
20.49
24.18
27.14
29.41
31.05
32.21
33.04
33.69
34.3
34.85
35.27
35.47
35.34
34.84
34.0
32.81
31.28
29.44
27.33
25.04
22.68
20.25
17.71
15.0
12.07
8.95
5.74
2.51
-0.74
-3.97
-7.17
-10.26
-13.11
-15.6
-17.74
-19.63
-21.43
-23.35
-25.58
-28.23
-31.36
-34.98
-39.1
-43.69
-48.7
-53.92
-58.93
-62.95
-64.97
-63.99
-59.38
-51.26
-40.44
-28.19
-15.79
-4.17
6.24
15.37
23.27
29.89
35.08
38.77
40.96
41.88
41.86
41.25
40.34
39.35
38.46
37.79
37.4
37.2
37.09
36.89
36.5
35.87
34.97
33.8
32.34
30.62
28.68
26.61
24.53
22.43
20.25
17.85
15.12
12.1
9.0
6.08
3.55
1.4
-0.61
-2.82
-5.51
-8.72
-12.26
-15.79
-19.0
-21.78
-24.23
-26.65
-29.33
-32.5
-36.21
-40.32
-44.42
-47.87
-49.79
-49.3
-45.74
-38.96
-29.41
-18.13
-6.31
5.01
15.17
24.02
31.65
38.2
43.77
48.39
52.13
55.21
57.95
60.69
63.68
66.93
70.3
73.51
76.36
78.72
80.6
82.06
83.11
83.66
83.45
82.19
79.69
75.83
70.67
64.36
57.06
48.97
40.27
31.22
22.11
13.26
4.96
-2.59
-9.3
-15.22
-20.58
-25.68
-30.91
-36.6
-42.94
-49.94
-57.41
-64.98
-72.21
-78.53
-83.29
-85.86
-85.75
-82.78
-77.31
-70.02
-61.96
-54.07
-47.0
-40.96
-35.81
-31.23
-27.01
-23.14
-19.8
-17.17
-15.33
-14.16
-13.4
-12.79
-12.17
-11.5
-10.77
-9.99
-9.07
-7.96
-6.59
-5.03
-3.53
-2.4
-1.99
-2.52
-3.99
-6.15
-8.6
-10.94
-12.94
-14.62
-16.23
-18.16
-20.71
-24.03
-28.04
-32.46
-36.84
-40.76
-43.94
-46.4
-48.56
-51.09
-54.72
-59.96
-66.78
-74.47
-81.75
-87.02
-88.82
-86.3
-79.47
-69.24
-57.13
-44.79
-33.5
-23.9
-16.0
-9.39
-3.63
1.63
6.44
10.74
14.38
17.27
19.37
20.74
21.55
22.02
22.42
22.97
23.76
24.75
25.8
26.76
27.51
28.0
28.18
27.98
27.34
26.26
24.81
23.13
21.34
19.52
17.62
15.53
13.18
10.54
7.7
4.74
1.77
-1.21
-4.3
-7.61
-11.24
-15.18
-19.28
-23.3
-27.06
-30.54
-34.03
-37.99
-42.93
-49.04
-55.95
-62.74
-68.03
-70.44
-68.9
-63.05
-53.26
-40.59
-26.5
-12.49
0.14
10.64
18.8
24.89
29.42
32.86
35.53
37.52
38.85
39.62
40.04
40.39
40.9
41.61
42.4
43.0
43.21
42.91
42.11
40.93
39.48
37.91
36.26
34.49
32.52
30.2
27.48
24.37
21.05
17.73
14.64
11.91
9.54
7.42
5.37
3.2
0.78
-1.87
-4.64
-7.4
-10.05
-12.69
-15.55
-18.91
-23.0
-27.89
-33.52
-39.72
-46.17
-52.32
-57.3
-59.95
-59.15
-54.26
-45.46
-33.85
-21.07
-8.8
1.8
10.31
16.91
22.08
26.2
29.39
31.6
32.76
32.95
32.45
31.68
31.04
30.78
30.95
31.44
32.09
32.8
33.58
34.43
35.27
35.87
35.83
34.79
32.58
29.36
25.53
21.65
18.2
15.4
13.16
11.19
9.05
6.44
3.28
-0.24
-3.76
-6.88
-9.41
-11.42
-13.22
-15.29
-18.1
-22.03
-27.26
-33.76
-41.1
-48.37
-54.28
-57.45
-56.85
-52.17
-43.99
-33.55
-22.35
-11.66
-2.34
5.26
11.14
15.52
18.69
21.0
22.76
24.24
25.57
26.78
27.82
28.64
29.23
29.61
29.8
29.78
29.51
28.99
28.25
27.33
26.21
24.76
22.81
20.17
16.75
12.64
8.1
3.53
-0.61
-3.97
-6.46
-8.3
-10.03
-12.26
-15.39
-19.44
-24.0
-28.41
-32.09
-34.8
-36.68
-38.26
-40.17
-43.03
-47.16
-52.53
-58.62
-64.46
-68.78
-70.34
-68.28
-62.45
-53.43
-42.31
-30.38
-18.69
-7.9
1.74
10.27
17.84
24.52
30.27
34.97
38.48
40.86
42.27
43.07
43.59
44.04
44.47
44.76
44.8
44.51
43.95
43.23
42.48
41.75
41.07
40.33
39.37
37.97
35.95
33.25
30.0
26.49
23.01
19.7
16.38
12.75
8.49
3.52
-1.87
-7.17
-11.87
-15.72
-18.82
-21.6
-24.59
-28.23
-32.76
-38.11
-44.0
-49.92
-55.19
-58.99
-60.49
-59.0
-54.25
-46.51
-36.67
-25.94
-15.58
-6.5
0.89
6.7
11.25
14.88
17.68
19.6
20.55
20.6
20.09
19.45
19.06
19.09
19.42
19.84
20.15
20.28
20.25
20.11
19.79
19.18
18.09
16.44
14.35
12.05
9.77
7.64
5.56
3.36
0.87
-1.9
-4.74
-7.31
-9.38
-10.98
-12.46
-14.33
-17.06
-20.94
-25.96
-31.88
-38.25
-44.41
-49.49
-52.49
-52.51
-49.02
-42.14
-32.62
-21.72
-10.72
-0.69
7.83
14.74
20.18
24.38
27.47
29.48
30.43
30.45
29.83
28.97
28.28
27.95
27.91
27.91
27.64
26.99
26.07
25.14
24.47
24.07
23.73
23.07
21.77
19.75
17.19
14.38
11.52
8.65
5.62
2.27
-1.46
-5.41
-9.23
-12.57
-15.23
-17.32
-19.23
-21.5
-24.7
-29.21
-35.1
-42.07
-49.39
-55.99
-60.62
-62.15
-59.97
-54.11
-45.32
-34.84
-23.91
-13.47
-3.98
4.51
12.15
19.04
25.11
30.21
34.21
37.04
38.81
39.7
39.94
39.73
39.23
38.54
37.72
36.81
35.89
35.06
34.42
33.97
33.65
33.24
32.47
31.11
28.99
26.18
22.89
19.48
16.32
13.6
11.34
9.35
7.31
4.94
2.09
-1.22
-4.79
-8.38
-11.78
-14.96
-18.07
-21.4
-25.28
-29.97
-35.46
-41.52
-47.58
-52.91
-56.66
-58.05
-56.51
-51.8
-44.21
-34.47
-23.67
-12.91
-3.13
5.17
11.92
17.33
21.7
25.25
28.08
30.18
31.56
32.29
32.53
32.44
32.16
31.76
31.22
30.56
29.79
29.08
28.56
28.36
28.45
28.61
28.55
27.96
26.65
24.58
21.8
18.53
14.99
11.46
8.16
5.29
2.91
0.96
-0.74
-2.46
-4.45
-6.87
-9.71
-12.82
-15.97
-18.92
-21.52
-23.76
-25.8
-27.97
-30.72
-34.41
-39.13
-44.51
-49.7
-53.45
-54.55
-52.2
-46.35
-37.79
-27.77
-17.7
-8.67
-1.22
4.57
8.97
12.26
14.65
16.26
17.22
17.69
17.89
18.03
18.17
18.28
18.18
17.77
17.09
16.34
15.78
15.58
15.76
16.11
16.35
16.19
15.51
14.32
12.74
11.0
9.29
7.75
6.34
4.87
3.07
0.69
-2.25
-5.49
-8.64
-11.3
-13.37
-15.0
-16.55
-18.48
-21.16
-24.8
-29.45
-34.88
-40.52
-45.52
-48.83
-49.5
-46.99
-41.37
-33.34
-24.01
-14.58
-6.0
1.15
6.79
11.11
14.44
17.04
18.98
20.26
20.85
20.84
20.47
20.08
19.9
20.01
20.22
20.31
20.08
19.53
18.9
18.48
18.52
18.96
19.52
19.71
19.06
17.3
14.51
11.05
7.46
4.21
1.56
-0.47
-2.08
-3.56
-5.21
-7.19
-9.56
-12.25
-15.08
-17.83
-20.35
-22.64
-24.93
-27.66
-31.34
-36.28
-42.43
-49.2
-55.55
-60.28
-62.28
-60.87
-55.96
-48.13
-38.37
-27.92
-17.89
-8.96
-1.4
4.96
10.39
15.12
19.16
22.38
24.68
26.09
26.79
27.05
27.08
26.95
26.68
26.28
25.82
25.41
25.11
24.97
24.93
24.96
24.95
24.78
24.25
23.11
21.23
18.62
15.54
12.32
9.28
6.53
4.08
1.82
-0.38
-2.65
-5.11
-7.85
-10.94
-14.32
-17.85
-21.35
-24.77
-28.2
-31.85
-36.08
-41.24
-47.54
-54.89
-62.81
-70.34
-76.16
-78.99
-77.93
-72.79
-64.14
-53.14
-41.1
-29.18
-18.18
-8.55
-0.44
6.21
11.57
15.88
19.43
22.43
25.01
27.19
29.01
30.49
31.62
32.37
32.79
32.91
32.9
32.92
33.09
33.35
33.46
33.06
31.84
29.7
26.78
23.41
19.91
16.5
13.22
9.92
6.4
2.49
-1.8
-6.24
-10.44
-14.04
-16.9
-19.18
-21.39
-24.16
-28.05
-33.32
-39.82
-46.9
-53.5
-58.33
-60.12
-58.04
-51.87
-42.21
-30.27
-17.54
-5.4
5.24
14.02
20.99
26.38
30.42
33.23
34.94
35.75
35.9
35.72
35.46
35.3
35.28
35.37
35.51
35.65
35.72
35.67
35.41
34.8
33.77
32.29
30.44
28.3
25.94
23.3
20.2
16.46
11.93
6.7
1.01
-4.75
-10.26
-15.37
-20.14
-24.82
-29.73
-35.29
-41.77
-49.27
-57.42
-65.28
-71.38
-74.15
-72.36
-65.66
-54.71
-40.97
-26.18
-11.89
0.98
12.08
21.46
29.37
36.01
41.44
45.7
48.75
50.6
51.34
51.17
50.34
49.12
47.72
46.36
45.17
44.29
43.78
43.59
43.46
43.0
41.75
39.42
36.02
31.83
27.28
22.79
18.55
14.5
10.45
6.17
1.61
-3.1
-7.7
-11.96
-15.8
-19.47
-23.4
-28.16
-34.26
-41.91
-50.85
-60.26
-68.82
-74.81
-76.72
-73.57
-65.34
-52.99
-38.22
-22.91
-8.59
3.94
14.53
23.43
30.98
37.3
42.38
46.13
48.64
50.2
51.18
51.89
52.46
52.8
52.75
52.25
51.42
50.49
49.72
49.21
48.86
48.42
47.64
46.31
44.38
41.86
38.81
35.35
31.63
27.77
23.85
19.85
15.61
10.98
5.93
0.6
-4.67
-9.56
-13.87
-17.66
-21.25
-25.09
-29.65
-35.27
-42.11
-50.04
-58.53
-66.62
-72.99
-76.22
-75.23
-69.67
-60.05
-47.65
-34.02
-20.62
-8.37
2.36
11.6
19.53
26.28
31.83
36.1
39.09
40.97
42.07
42.71
43.12
43.35
43.29
42.83
42.03
41.16
40.59
40.58
41.13
41.89
42.3
41.78
40.05
37.17
33.53
29.64
25.91
22.45
19.09
15.49
11.38
6.68
1.57
-3.6
-8.54
-13.04
-17.12
-20.92
-24.59
-28.37
-32.55
-37.47
-43.37
-50.15
-57.1
-62.98
-66.25
-65.63
-60.53
-51.39
-39.44
-26.3
-13.41
-1.72
8.37
16.83
23.79
29.27
33.22
35.62
36.58
36.4
35.55
34.52
33.65
33.06
32.67
32.29
31.85
31.35
30.93
30.67
30.5
30.2
29.48
28.13
26.07
23.34
20.04
16.26
12.07
7.49
2.54
-2.75
-8.28
-13.87
-19.22
-23.98
-27.86
-30.86
-33.28
-35.7
-38.8
-43.12
-48.79
-55.45
-62.24
-67.91
-71.09
-70.66
-66.09
-57.63
-46.27
-33.41
-20.51
-8.65
1.57
9.98
16.7
21.94
25.91
28.82
30.82
32.09
32.73
32.91
32.81
32.61
32.47
32.43
32.42
32.32
32.05
31.64
31.13
30.53
29.71
28.46
26.52
23.81
20.41
16.55
12.54
8.66
5.08
1.89
-0.98
-3.78
-6.75
-10.07
-13.75
-17.57
-21.14
-24.13
-26.47
-28.37
-30.33
-32.95
-36.73
-41.97
-48.56
-55.9
-62.93
-68.24
-70.47
-68.7
-62.75
-53.34
-41.72
-29.35
-17.43
-6.66
2.75
10.85
17.83
23.77
28.65
32.44
35.13
36.8
37.62
37.85
37.66
37.16
36.38
35.34
34.11
32.89
31.92
31.37
31.28
31.49
31.74
31.75
31.29
30.26
28.58
26.28
23.4
20.1
16.57
13.0
9.55
6.28
3.17
0.13
-3.0
-6.34
-9.98
-13.96
-18.18
-22.41
-26.42
-30.01
-33.17
-36.16
-39.44
-43.54
-48.86
-55.46
-62.89
-70.18
-75.9
-78.58
-77.12
-71.14
-61.27
-48.91
-35.82
-23.52
-12.85
-3.9
3.69
10.41
16.48
21.73
25.79
28.35
29.37
29.15
28.2
27.01
25.9
24.98
24.2
23.6
23.25
23.3
23.86
24.8
25.77
26.29
25.9
24.32
21.59
18.06
14.19
10.45
7.13
4.32
1.86
-0.54
-3.22
-6.38
-10.05
-14.05
-18.03
-21.63
-24.66
-27.2
-29.58
-32.35
-36.05
-41.01
-47.22
-54.13
-60.73
-65.67
-67.61
-65.64
-59.56
-50.04
-38.39
-26.12
-14.49
-4.23
4.49
11.79
17.79
22.47
25.71
27.48
27.96
27.57
26.85
26.25
26.0
26.11
26.49
27.0
27.55
28.11
28.68
29.2
29.57
29.62
29.1
27.8
25.62
22.65
19.14
15.42
11.78
8.34
5.05
1.75
-1.75
-5.53
-9.53
-13.57
-17.39
-20.77
-23.63
-26.2
-28.93
-32.44
-37.24
-43.54
-51.05
-59.03
-66.38
-71.88
-74.35
-72.98
-67.45
-58.13
-46.02
-32.5
-19.06
-6.79
3.69
12.36
19.51
25.45
30.39
34.29
37.1
38.77
39.39
39.18
38.42
37.43
36.46
35.65
35.08
34.7
34.5
34.45
34.55
34.69
34.71
34.27
33.11
31.09
28.29
25.03
21.73
18.67
15.94
13.45
10.93
8.06
4.55
0.24
-4.87
-10.49
-16.13
-21.28
-25.62
-29.2
-32.49
-36.17
-40.9
-47.06
-54.56
-62.82
-70.76
-77.01
-80.21
-79.3
-73.92
-64.54
-52.28
-38.63
-24.97
-12.3
-1.16
8.27
16.04
22.3
27.18
30.87
33.51
35.24
36.18
36.48
36.38
36.11
35.88
35.75
35.71
35.69
35.67
35.66
35.64
35.5
35.02
34.01
32.41
30.3
27.88
25.33
22.7
19.95
17.01
13.79
10.21
6.21
1.72
-3.25
-8.48
-13.67
-18.51
-22.96
-27.33
-32.23
-38.28
-45.68
-53.94
-61.82
-67.65
-69.79
-67.26
-60.01
-49.01
-35.88
-22.36
-9.75
1.35
10.95
19.34
26.72
33.03
38.02
41.46
43.38
44.07
43.95
43.42
42.8
42.23
41.8
41.56
41.57
41.81
42.21
42.64
42.94
42.89
42.24
40.79
38.39
35.08
31.1
26.83
22.71
19.05
15.96
13.32
10.79
7.9
4.28
-0.23
-5.45
-10.89
-15.96
-20.17
-23.42
-25.99
-28.37
-31.2
-35.01
-40.18
-46.77
-54.36
-61.91
-67.83
-70.37
-68.23
-61.04
-49.6
-35.57
-20.89
-7.14
4.71
14.29
21.71
27.3
31.46
34.6
37.13
39.31
41.19
42.69
43.68
44.09
43.94
43.29
42.28
41.01
39.66
38.46
37.63
37.3
37.35
37.49
37.31
36.43
34.59
31.79
28.22
24.24
20.32
16.85
14.04
11.83
9.9
7.83
5.25
1.98
-2.02
-6.68
-11.83
-17.23
-22.59
-27.51
-31.73
-35.34
-38.79
-42.79
-47.97
-54.4
-61.43
-67.7
-71.62
-71.8
-67.58
-59.21
-47.71
-34.55
-21.26
-9.01
1.51
10.12
16.94
22.12
25.81
28.13
29.24
29.45
29.15
28.72
28.38
28.12
27.79
27.24
26.42
25.43
24.45
23.62
23.0
22.48
21.82
20.73
18.97
16.4
13.16
9.62
6.23
3.37
1.09
-0.85
-2.98
-5.69
-9.15
-13.07
-16.94
-20.26
-22.78
-24.62
-26.23
-28.19
-31.01
-34.99
-40.12
-45.99
-51.82
-56.53
-58.9
-57.88
-52.95
-44.38
-33.25
-21.18
-9.79
-0.17
7.34
13.12
17.77
21.76
25.14
27.64
28.97
29.12
28.38
27.21
26.03
25.06
24.34
23.89
23.7
23.82
24.21
24.71
25.0
24.77
23.7
21.61
18.48
14.44
9.81
5.03
0.52
-3.47
-7.0
-10.33
-13.79
-17.5
-21.36
-25.05
-28.32
-31.11
-33.67
-36.45
-39.91
-44.25
-49.24
-54.19
-57.97
-59.4
-57.58
-52.23
-43.82
-33.44
-22.42
-11.86
-2.44
5.67
12.55
18.37
23.16
26.9
29.53
31.09
31.73
31.67
31.21
30.59
30.08
29.78
29.7
29.73
29.75
29.72
29.64
29.53
29.34
28.83
27.7
25.7
22.82
19.29
15.53
11.91
8.6
5.52
2.4
-1.05
-4.99
-9.37
-14.0
-18.58
-22.8
-26.48
-29.62
-32.48
-35.58
-39.5
-44.71
-51.28
-58.63
-65.63
-70.8
-72.68
-70.35
-63.68
-53.45
-41.04
-28.05
-15.81
-5.15
3.71
10.94
16.87
21.77
25.76
28.91
31.24
32.82
33.79
34.25
34.3
33.99
33.36
32.51
31.58
30.72
30.11
29.85
29.93
30.18
30.27
29.79
28.41
26.02
22.77
19.07
15.43
12.22
9.6
7.47
5.53
3.42
0.83
-2.45
-6.44
-10.99
-15.76
-20.32
-24.4
-27.97
-31.37
-35.26
-40.25
-46.68
-54.32
-62.34
-69.47
-74.23
-75.32
-72.02
-64.35
-53.15
-39.83
-26.01
-13.1
-1.99
7.0
14.01
19.35
23.34
26.18
28.06
29.17
29.74
29.99
30.05
29.99
29.83
29.6
29.37
29.2
29.12
29.11
29.09
28.92
28.5
27.74
26.66
25.29
23.72
22.02
20.14
17.97
15.32
12.02
8.03
3.47
-1.32
-6.03
-10.36
-14.22
-17.68
-21.0
-24.63
-29.06
-34.75
-41.89
-50.14
-58.43
-65.16
-68.56
-67.27
-60.88
-50.09
-36.51
-22.1
-8.57
3.02
12.39
19.78
25.63
30.27
33.81
36.24
37.53
37.77
37.15
35.97
34.46
32.85
31.31
30.05
29.25
28.99
29.18
29.57
29.76
29.43
28.39
26.64
24.29
21.46
18.22
14.61
10.63
6.33
1.81
-2.8
-7.42
-11.96
-16.35
-20.56
-24.55
-28.35
-32.23
-36.61
-42.0
-48.77
-56.76
-65.07
-72.15
-76.17
-75.67
-70.11
-60.07
-47.07
-32.99
-19.4
-7.27
3.12
11.92
19.38
25.66
30.83
34.88
37.86
39.9
41.21
41.98
42.36
42.43
42.19
41.7
41.05
40.44
40.12
40.23
40.67
41.08
40.9
39.66
37.15
33.6
29.49
25.38
21.64
18.27
14.97
11.33
7.03
2.02
-3.49
-9.1
-14.43
-19.25
-23.57
-27.56
-31.57
-35.99
-41.23
-47.53
-54.83
-62.47
-69.21
-73.43
-73.54
-68.66
-58.97
-45.71
-30.78
-16.1
-3.01
7.9
16.72
23.8
29.47
33.89
37.1
39.2
40.37
40.89
41.06
41.01
40.75
40.22
39.35
38.19
36.94
35.87
35.2
34.97
35.01
34.98
34.46
33.14
30.88
27.8
24.16
20.31
16.58
13.14
9.98
6.92
3.7
0.06
-4.11
-8.75
-13.61
-18.36
-22.72
-26.62
-30.28
-34.19
-38.91
-44.9
-52.26
-60.58
-68.85
-75.64
-79.35
-78.69
-73.13
-63.08
-49.81
-35.05
-20.45
-7.19
4.17
13.61
21.36
27.7
32.83
36.88
39.91
41.96
43.11
43.44
43.06
42.19
41.09
40.01
39.19
38.76
38.7
38.89
39.05
38.83
37.94
36.17
33.56
30.3
26.7
22.99
19.32
15.66
11.89
7.88
3.52
-1.2
-6.19
-11.3
-16.3
-20.96
-25.14
-28.83
-32.34
-36.16
-40.89
-46.88
-54.05
-61.53
-67.92
-71.5
-70.78
-65.09
-54.8
-41.29
-26.46
-12.19
0.23
10.34
18.33
24.67
29.77
33.73
36.43
37.79
37.95
37.3
36.38
35.65
35.32
35.42
35.78
36.19
36.48
36.51
36.16
35.35
34.09
32.38
30.24
27.59
24.33
20.36
15.69
10.48
4.99
-0.53
-5.89
-11.01
-15.84
-20.45
-24.9
-29.36
-34.11
-39.52
-45.87
-53.15
-60.87
-67.95
-72.89
-74.15
-70.68
-62.32
-49.93
-35.23
-20.16
-6.32
5.41
14.92
22.61
28.92
34.15
38.3
41.33
43.24
44.23
44.57
44.49
44.11
43.36
42.16
40.56
38.74
37.07
35.92
35.48
35.61
35.91
35.78
34.78
32.77
29.98
26.82
23.6
20.35
16.82
12.7
7.81
2.32
-3.4
-8.99
-14.29
-19.37
-24.47
-29.88
-35.84
-42.62
-50.43
-59.31
-68.8
-77.76
-84.43
-86.96
-84.04
-75.52
-62.51
-46.98
-31.11
-16.6
-4.34
5.6
13.65
20.34
26.02
30.77
34.54
37.26
39.01
40.03
40.63
41.07
41.43
41.67
41.69
41.51
41.3
41.35
41.82
42.66
43.54
43.94
43.3
41.3
37.91
33.49
28.63
23.97
19.92
16.44
13.06
9.12
4.08
-2.15
-9.18
-16.33
-23.0
-28.9
-34.2
-39.32
-44.82
-51.2
-58.77
-67.52
-76.94
-85.89
-92.74
-95.71
-93.45
-85.56
-72.83
-56.97
-40.14
-24.29
-10.68
0.18
8.5
14.78
19.57
23.2
25.8
27.39
28.05
28.06
27.76
27.47
27.31
27.29
27.29
27.29
27.36
27.6
28.01
28.49
28.8
28.77
28.31
27.4
26.04
24.11
21.45
17.91
13.51
8.41
2.94
-2.59
-7.96
-13.04
-17.88
-22.58
-27.34
-32.46
-38.26
-44.96
-52.52
-60.35
-67.36
-72.01
-72.83
-68.78
-59.72
-46.57
-31.06
-15.15
-0.59
11.62
21.26
28.66
34.34
38.65
41.68
43.34
43.57
42.51
40.53
38.16
35.86
33.91
32.31
30.9
29.42
27.73
25.88
24.17
22.9
22.23
21.98
21.62
20.46
17.95
13.92
8.65
2.73
-3.21
-8.74
-13.68
-18.1
-22.26
-26.46
-31.18
-36.91
-44.04
-52.64
-62.15
-71.35
-78.44
-81.58
-79.4
-71.5
-58.66
-42.61
-25.48
-9.23
4.89
16.47
25.75
33.24
39.36
44.26
47.9
50.22
51.25
51.19
50.27
48.78
46.91
44.86
42.83
40.99
39.48
38.32
37.4
36.54
35.49
34.0
31.8
28.69
24.6
19.62
14.03
8.15
2.28
-3.47
-8.99
-14.28
-19.24
-23.79
-27.95
-31.93
-36.15
-41.13
-47.38
-55.15
-64.25
-73.87
-82.52
-88.29
-89.3
-84.39
-73.57
-58.13
-40.26
-22.28
-5.94
7.89
19.13
28.14
35.34
41.0
45.28
48.38
50.46
51.74
52.34
52.3
51.63
50.36
48.67
46.81
45.12
43.87
43.16
42.83
42.52
41.66
39.82
36.76
32.65
27.91
23.08
18.5
14.27
10.14
5.78
0.86
-4.71
-10.83
-17.21
-23.51
-29.46
-34.98
-40.17
-45.4
-51.24
-58.21
-66.6
-76.06
-85.48
-93.05
-96.7
-94.78
-86.69
-73.11
-55.8
-37.06
-18.91
-2.65
11.3
23.09
32.98
41.07
47.18
51.14
52.98
53.05
51.97
50.33
48.53
46.72
44.92
43.12
41.4
39.88
38.6
37.48
36.27
34.65
32.37
29.3
25.51
21.2
16.69
12.2
7.89
3.62
-0.87
-5.9
-11.64
-17.96
-24.51
-30.73
-36.19
-40.66
-44.33
-47.76
-51.72
-57.01
-64.05
-72.49
-81.15
-88.04
-90.96
-88.23
-79.26
-64.83
-46.88
-27.79
-9.63
6.29
19.57
30.42
39.19
46.14
51.3
54.56
55.93
55.6
54.03
51.85
49.67
47.91
46.67
45.76
44.83
43.58
41.91
39.89
37.69
35.42
33.06
30.43
27.29
23.43
18.74
13.25
7.13
0.68
-5.74
-11.83
-17.38
-22.35
-26.9
-31.37
-36.18
-41.85
-48.84
-57.34
-66.9
-76.35
-83.8
-87.16
-84.79
-76.13
-62.02
-44.39
-25.65
-7.97
7.28
19.66
29.39
37.0
42.98
47.61
50.98
53.12
54.09
54.03
53.16
51.71
49.9
47.92
45.95
44.11
42.52
41.21
40.07
38.93
37.49
35.46
32.63
28.96
24.53
19.51
14.06
8.28
2.2
-4.16
-10.64
-17.01
-23.0
-28.41
-33.28
-37.88
-42.72
-48.42
-55.51
-64.24
-74.3
-84.66
-93.58
-98.93
-98.77
-92.11
-79.27
-61.96
-42.65
-23.78
-7.01
7.03
18.61
28.31
36.61
43.66
49.3
53.37
55.85
56.95
57.01
56.37
55.21
53.66
51.78
49.81
48.11
47.06
46.86
47.37
48.08
48.19
46.94
43.86
39.0
32.96
26.61
20.78
15.94
12.02
8.49
4.56
-0.35
-6.41
-13.29
-20.33
-26.81
-32.31
-36.78
-40.7
-44.76
-49.81
-56.49
-65.03
-74.89
-84.69
-92.39
-95.78
-93.2
-84.18
-69.59
-51.35
-31.81
-13.03
3.67
17.78
29.31
38.52
45.63
50.8
54.15
55.92
56.47
56.33
55.98
55.76
55.69
55.49
54.81
53.43
51.45
49.32
47.54
46.4
45.78
45.16
43.85
41.37
37.6
32.89
27.81
22.92
18.46
14.38
10.28
5.77
0.54
-5.4
-11.76
-18.08
-23.93
-29.09
-33.63
-37.95
-42.67
-48.42
-55.71
-64.68
-74.92
-85.27
-93.94
-98.84
-98.21
-91.19
-78.21
-60.92
-41.7
-22.95
-6.46
6.9
17.11
24.69
30.33
34.56
37.62
39.52
40.18
39.6
37.98
35.68
33.18
30.86
29.02
27.77
27.19
27.32
28.06
29.15
30.16
30.54
29.87
28.0
25.07
21.46
17.53
13.49
9.32
4.86
-0.07
-5.52
-11.26
-16.94
-22.12
-26.58
-30.37
-33.86
-37.66
-42.42
-48.54
-55.97
-64.07
-71.52
-76.65
-77.76
-73.64
-64.03
-49.79
-32.67
-14.86
1.72
15.79
26.92
35.33
41.47
45.77
48.41
49.5
49.12
47.5
45.04
42.21
39.43
36.99
35.0
33.48
32.37
31.59
31.06
30.64
30.05
28.94
26.96
23.9
19.86
15.23
10.57
6.4
2.87
-0.27
-3.61
-7.7
-12.8
-18.73
-24.88
-30.56
-35.27
-38.92
-41.86
-44.74
-48.39
-53.51
-60.5
-69.12
-78.34
-86.39
-91.01
-90.24
-83.03
-69.76
-52.14
-32.72
-14.03
2.19
15.26
25.45
33.45
39.86
44.93
48.57
50.63
51.17
50.52
49.24
47.83
46.56
45.43
44.19
42.63
40.74
38.77
37.13
36.15
35.9
35.98
35.72
34.4
31.58
27.27
22.0
16.52
11.51
7.34
3.9
0.8
-2.47
-6.29
-10.81
-15.92
-21.35
-26.72
-31.66
-35.96
-39.66
-43.05
