0
21.13
19.8
18.85
18.32
18.18
18.38
18.78
19.17
19.26
18.83
17.81
16.29
14.5
12.6
10.55
8.14
5.11
1.4
-2.76
-6.92
-10.62
-13.61
-15.96
-17.97
-20.05
-22.48
-25.46
-29.09
-33.44
-38.43
-43.67
-48.34
-51.28
-51.29
-47.57
-40.13
-29.81
-18.09
-6.59
3.47
11.5
17.55
22.01
25.28
27.58
28.93
29.24
28.55
27.08
25.25
23.54
22.31
21.66
21.47
21.46
21.38
21.13
20.72
20.18
19.46
18.42
16.89
14.84
12.47
10.11
8.08
6.45
4.99
3.27
0.97
-1.96
-5.19
-8.22
-10.71
-12.61
-14.28
-16.3
-19.22
-23.4
-28.88
-35.28
-41.85
-47.47
-50.84
-50.84
-46.88
-39.18
-28.72
-17.0
-5.5
4.66
12.97
19.36
23.95
26.87
28.26
28.3
27.34
25.85
24.31
23.05
22.2
21.73
21.51
21.36
21.15
20.8
20.26
19.6
18.95
18.37
17.79
16.98
15.56
13.21
9.87
5.76
1.35
-2.88
-6.48
-9.28
-11.36
-13.04
-14.76
-17.06
-20.39
-24.92
-30.32
-35.78
-40.09
-42.04
-40.85
-36.39
-29.29
-20.58
-11.35
-2.44
5.71
12.91
19.02
23.81
26.99
28.43
28.26
27.0
25.34
23.89
22.98
22.61
22.62
22.8
23.0
23.09
22.93
22.32
21.12
19.27
16.9
14.22
11.5
8.88
6.39
3.96
1.49
-1.09
-3.82
-6.68
-9.59
-12.42
-15.04
-17.31
-19.28
-21.14
-23.24
-26.06
-29.95
-34.99
-40.81
-46.44
-50.52
-51.68
-48.99
-42.35
-32.57
-21.09
-9.51
0.91
9.49
16.12
21.0
24.4
26.57
27.68
27.93
27.53
26.71
25.72
24.76
24.01
23.56
23.44
23.57
23.77
23.84
23.62
23.07
22.21
21.11
19.75
17.98
15.59
12.46
8.65
4.48
0.33
-3.44
-6.67
-9.38
-11.74
-13.88
-15.88
-17.77
-19.7
-21.91
-24.75
-28.48
-33.03
-37.83
-41.9
-44.03
-43.21
-38.98
-31.59
-21.96
-11.36
-1.06
8.02
15.43
21.13
25.22
27.79
28.86
28.5
27.02
24.98
23.11
22.03
22.02
22.89
24.1
24.95
24.89
23.79
21.84
19.5
17.22
15.28
13.66
12.09
10.16
7.53
4.03
-0.2
-4.82
-9.33
-13.25
-16.34
-18.64
-20.47
-22.34
-24.75
-28.05
-32.25
-37.06
-41.78
-45.43
-46.91
-45.31
-40.18
-31.84
-21.3
-9.95
0.82
10.07
17.43
22.97
26.94
29.47
30.56
30.24
28.73
26.51
24.2
22.35
21.25
20.83
20.84
21.01
21.16
21.24
21.27
21.18
20.84
20.0
18.48
16.27
13.57
10.72
8.04
5.67
3.52
1.32
-1.2
-4.21
-7.71
-11.47
-15.16
-18.44
-21.08
-23.05
-24.62
-26.38
-28.99
-32.95
-38.26
-44.18
-49.35
-52.1
-51.11
-45.82
-36.74
-25.26
-13.16
-1.99
7.33
14.6
20.1
24.22
27.15
28.83
29.15
28.19
26.32
24.17
22.41
21.49
21.48
22.14
22.98
23.64
23.85
23.62
23.01
22.1
20.86
19.17
16.94
14.17
11.02
7.73
4.51
1.5
-1.31
-4.03
-6.7
-9.34
-11.92
-14.37
-16.69
-18.95
-21.35
-24.17
-27.69
-31.96
-36.57
-40.63
-42.87
-42.16
-37.9
-30.36
-20.57
-9.96
0.17
9.0
16.19
21.72
25.6
27.75
28.13
26.92
24.63
22.02
19.87
18.69
18.57
19.18
19.96
20.41
20.19
19.29
17.89
16.28
14.65
13.01
11.23
9.13
6.6
3.66
0.47
-2.73
-5.74
-8.44
-10.87
-13.19
-15.61
-18.36
-21.63
-25.53
-30.06
-34.99
-39.78
-43.63
-45.54
-44.61
-40.36
-33.0
-23.44
-13.05
-3.22
5.14
11.68
16.58
20.21
22.85
24.52
25.13
24.71
23.52
22.08
20.9
20.32
20.37
20.8
21.3
21.58
21.55
21.16
20.42
19.27
17.71
15.76
13.55
11.29
9.07
6.86
4.51
1.84
-1.24
-4.63
-8.1
-11.39
-14.32
-16.86
-19.12
-21.26
-23.47
-25.98
-29.1
-33.13
-38.12
-43.6
-48.54
-51.48
-51.07
-46.55
-38.15
-27.1
-15.12
-3.91
5.47
12.7
18.07
22.04
24.92
26.73
27.39
26.89
25.51
23.77
22.3
21.58
21.75
22.62
23.73
24.57
24.77
24.19
22.93
21.25
19.41
17.58
15.79
13.95
12.01
9.94
7.77
5.55
3.25
0.77
-1.97
-4.95
-8.07
-11.17
-14.17
-17.1
-20.09
-23.35
-27.05
-31.21
-35.63
-39.84
-43.05
-44.36
-42.96
-38.47
-31.09
-21.63
-11.22
-0.99
8.19
15.78
21.5
25.25
27.09
27.2
26.01
24.1
22.05
20.31
19.1
18.41
18.13
18.02
17.9
17.61
17.04
16.18
15.1
13.89
12.6
11.24
9.72
7.94
5.82
3.32
0.5
-2.55
-5.71
-8.82
-11.75
-14.41
-16.75
-18.83
-20.81
-23.0
-25.78
-29.56
-34.52
-40.4
-46.38
-51.17
-53.42
-52.16
-47.12
-38.85
-28.45
-17.22
-6.28
3.53
11.75
18.15
22.68
25.47
26.82
27.11
26.75
26.07
25.34
24.72
24.33
24.24
24.4
24.7
24.94
24.95
24.58
23.77
22.58
21.12
19.5
17.78
15.93
13.88
11.58
9.0
6.22
3.34
0.43
-2.49
-5.44
-8.45
-11.52
-14.55
-17.41
-20.01
-22.33
-24.52
-26.87
-29.78
-33.52
-38.15
-43.27
-48.04
-51.34
-52.06
-49.43
-43.27
-34.12
-23.03
-11.37
-0.45
8.77
15.8
20.68
23.79
25.6
26.47
26.57
25.97
24.82
23.46
22.3
21.66
21.55
21.71
21.71
21.23
20.27
19.08
18.03
17.33
16.89
16.34
15.19
13.13
10.14
6.51
2.74
-0.7
-3.53
-5.74
-7.61
-9.55
-11.96
-15.07
-18.93
-23.43
-28.38
-33.49
-38.35
-42.3
-44.48
-44.0
-40.25
-33.16
-23.37
-12.13
-0.91
8.96
16.7
22.16
25.65
27.66
28.63
28.79
28.21
26.93
25.11
23.1
21.32
20.17
19.8
20.05
20.46
20.52
19.91
18.67
17.12
15.66
14.5
13.53
12.37
10.61
8.13
5.06
1.74
-1.53
-4.69
-7.85
-11.18
-14.65
-18.07
-21.1
-23.57
-25.62
-27.73
-30.57
-34.62
-39.87
-45.63
-50.66
-53.46
-52.82
-48.25
-40.15
-29.71
-18.44
-7.73
1.6
9.26
15.35
20.06
23.47
25.6
26.53
26.53
26.01
25.38
24.92
24.68
24.56
24.43
24.27
24.12
24.04
23.97
23.82
23.4
22.57
21.24
19.44
17.21
14.63
11.77
8.72
5.57
2.41
-0.65
-3.48
-5.99
-8.16
-10.1
-12.06
-14.37
-17.31
-21.01
-25.44
-30.4
-35.55
-40.45
-44.47
-46.8
-46.58
-43.13
-36.32
-26.74
-15.63
-4.51
5.31
13.11
18.78
22.66
25.14
26.49
26.75
25.94
24.25
22.14
20.26
19.15
19.08
19.9
21.1
22.06
22.31
21.67
20.28
18.45
16.39
14.16
11.68
8.81
5.52
1.93
-1.72
-5.24
-8.48
-11.41
-14.1
-16.64
-19.18
-21.94
-25.22
-29.23
-33.98
-39.02
-43.43
-46.04
-45.72
-41.86
-34.6
-24.88
-14.11
-3.72
5.26
12.4
17.77
21.68
24.41
26.06
26.68
26.38
25.47
24.37
23.51
23.12
23.19
23.54
23.94
24.22
24.24
23.86
22.91
21.26
18.94
16.19
13.37
10.8
8.58
6.55
4.38
1.79
-1.29
-4.71
-8.18
-11.46
-14.48
-17.28
-19.99
-22.81
-25.96
-29.67
-34.14
-39.29
-44.69
-49.44
-52.39
-52.48
-49.04
-42.14
-32.53
-21.43
-10.13
0.33
9.34
16.73
22.54
26.86
29.69
30.97
30.74
29.23
26.93
24.5
22.58
21.54
21.44
22.08
23.05
23.97
24.5
24.38
23.44
21.66
19.11
16.1
13.05
10.36
8.18
6.37
4.56
2.38
-0.31
-3.3
-6.24
-8.79
-10.92
-12.87
-15.14
-18.21
-22.35
-27.54
-33.35
-39.05
-43.6
-45.94
-45.16
-40.92
-33.48
-23.75
-12.97
-2.41
6.96
14.55
20.17
23.91
26.04
26.9
26.85
26.2
25.22
24.15
23.19
22.55
22.3
22.39
22.56
22.46
21.8
20.49
18.73
16.86
15.17
13.68
12.17
10.17
7.37
3.7
-0.5
-4.73
-8.48
-11.5
-13.95
-16.24
-18.89
-22.28
-26.55
-31.6
-37.06
-42.31
-46.53
-48.74
-48.09
-44.16
-37.17
-28.0
-17.87
-7.96
0.95
8.63
15.12
20.54
24.84
27.79
29.17
29.0
27.65
25.76
24.0
22.87
22.55
22.92
23.67
24.45
24.98
25.1
24.7
23.81
22.46
20.67
18.51
16.03
13.29
10.35
7.26
4.02
0.63
-2.93
-6.57
-10.1
-13.28
-15.88
-17.84
-19.4
-21.06
-23.45
-27.09
-32.16
-38.27
-44.57
-49.84
-52.79
-52.39
-48.16
-40.35
-29.85
-18.02
-6.34
3.94
12.12
18.07
22.06
24.6
26.16
27.0
27.22
26.87
26.14
25.35
24.88
24.98
25.64
26.57
27.3
27.41
26.71
25.32
23.47
21.46
19.43
17.4
15.34
13.21
10.99
8.67
6.14
3.28
-0.05
-3.79
-7.72
-11.45
-14.67
-17.26
-19.46
-21.74
-24.62
-28.4
-33.01
-37.9
-42.12
-44.56
-44.24
-40.6
-33.71
-24.28
-13.46
-2.59
7.16
15.01
20.63
24.11
25.83
26.25
25.87
25.09
24.2
23.42
22.86
22.57
22.57
22.78
23.02
23.07
22.7
21.76
20.23
18.19
15.8
13.26
10.72
8.25
5.87
3.46
0.86
-2.07
-5.35
-8.88
-12.44
-15.89
-19.21
-22.51
-25.92
-29.55
-33.39
-37.39
-41.46
-45.36
-48.64
-50.57
-50.2
-46.73
-39.87
-30.1
-18.67
-7.13
3.12
11.35
17.45
21.83
24.91
26.98
28.06
28.15
27.36
26.07
24.77
23.88
23.61
23.86
24.36
24.82
25.04
24.92
24.4
23.51
22.29
20.87
19.32
17.64
15.66
13.11
9.74
5.55
0.84
-3.86
-8.0
-11.25
-13.57
-15.21
-16.54
-17.95
-19.73
-22.16
-25.5
-29.9
-35.35
-41.44
-47.28
-51.63
-53.2
-51.08
-45.08
-35.9
-24.83
-13.38
-2.77
6.32
13.74
19.65
24.16
27.24
28.79
28.83
27.68
25.9
24.15
22.9
22.35
22.35
22.58
22.67
22.38
21.63
20.54
19.28
17.98
16.65
15.17
13.34
10.95
7.94
4.4
0.6
-3.09
-6.34
-8.98
-11.04
-12.8
-14.69
-17.2
-20.7
-25.3
-30.77
-36.44
-41.31
-44.26
-44.33
-41.04
-34.58
-25.8
-15.92
-6.18
2.56
9.94
15.99
20.93
24.81
27.52
28.79
28.48
26.75
24.1
21.26
18.89
17.44
16.9
16.96
17.13
16.99
16.37
15.37
14.21
13.06
11.98
10.86
9.48
7.67
5.3
2.37
-1.01
-4.63
-8.27
-11.69
-14.76
-17.45
-19.88
-22.26
-24.81
-27.76
-31.31
-35.55
-40.43
-45.58
-50.23
-53.31
-53.61
-50.31
-43.24
-33.09
-21.21
-9.16
1.74
10.69
17.48
22.23
25.22
26.74
27.08
26.59
25.7
24.84
24.31
24.23
24.5
24.92
25.27
25.48
25.52
25.45
25.32
25.08
24.6
23.69
22.17
19.96
17.15
13.95
10.66
7.51
4.63
1.98
-0.51
-2.94
-5.34
-7.71
-10.06
-12.44
-14.96
-17.77
-21.03
-24.9
-29.56
-34.93
-40.63
-45.83
-49.42
-50.26
-47.67
-41.61
-32.78
-22.33
-11.49
-1.27
7.66
14.99
20.62
24.53
26.79
27.55
27.06
25.74
24.09
22.66
21.88
22.0
22.94
24.34
25.67
26.45
26.4
25.55
24.1
22.3
20.34
18.2
15.82
13.09
9.94
6.4
2.54
-1.52
-5.57
-9.35
-12.6
-15.18
-17.17
-19.0
-21.27
-24.63
-29.39
-35.32
-41.57
-46.84
-49.7
-49.05
-44.48
-36.36
-25.77
-14.15
-2.95
6.82
14.62
20.4
24.41
26.98
28.36
28.76
28.32
27.28
25.97
24.73
23.86
23.49
23.57
23.91
24.26
24.36
24.02
23.15
21.78
20.01
18.02
15.93
13.83
11.64
9.24
6.48
3.31
-0.23
-3.96
-7.71
-11.35
-14.77
-17.88
-20.59
-22.85
-24.76
-26.62
-28.93
-32.2
-36.69
-42.18
-47.85
-52.47
-54.67
-53.47
-48.5
-40.18
-29.52
-17.86
-6.51
3.49
11.49
17.29
21.06
23.25
24.39
25.0
25.39
25.65
25.69
25.4
24.82
24.11
23.54
23.35
23.61
24.15
24.67
24.81
24.33
23.14
21.35
19.17
16.84
14.48
12.12
9.63
6.84
3.69
0.26
-3.2
-6.42
-9.19
-11.53
-13.66
-15.91
-18.62
-22.06
-26.29
-31.17
-36.27
-40.94
-44.29
-45.42
-43.57
-38.48
-30.44
-20.34
-9.42
0.98
9.8
16.46
20.93
23.62
25.06
25.68
25.69
25.1
23.93
22.34
20.65
19.27
18.52
18.44
18.81
19.31
19.61
19.52
18.96
17.92
16.4
14.42
12.09
9.6
7.12
4.72
2.35
-0.18
-3.01
-6.21
-9.7
-13.31
-16.87
-20.26
-23.45
-26.52
-29.62
-33.05
-37.09
-41.93
-47.32
-52.48
-56.19
-57.04
-54.02
-46.83
-36.13
-23.29
-9.99
2.26
12.39
19.95
25.0
27.91
29.19
29.33
28.8
28.02
27.36
27.12
27.45
28.28
29.34
30.21
30.47
29.91
28.54
26.66
24.72
23.14
22.08
21.37
20.57
19.15
16.78
13.51
9.83
6.43
3.82
2.11
0.89
-0.48
-2.55
-5.47
-9.0
-12.72
-16.27
-19.53
-22.59
-25.63
-28.76
-31.97
-35.34
-39.06
-43.4
-48.42
-53.73
-58.31
-60.74
-59.66
-54.37
-45.12
-33.09
-20.01
-7.49
3.34
12.05
18.7
23.56
26.88
28.82
29.58
29.37
28.53
27.39
26.22
25.17
24.3
23.67
23.33
23.35
23.69
24.21
24.65
24.78
24.36
23.29
21.56
19.22
16.45
13.43
10.4
7.51
4.86
2.38
-0.04
-2.55
-5.22
-7.99
-10.77
-13.41
-15.95
-18.54
-21.49
-25.16
-29.74
-35.09
-40.58
-45.17
-47.56
-46.65
-41.9
-33.63
-22.87
-11.14
0.14
9.98
17.96
24.09
28.47
31.16
32.15
31.58
29.79
27.41
25.15
23.53
22.76
22.69
23.01
23.39
23.63
23.65
23.45
23.01
22.23
20.99
19.18
16.77
13.87
10.75
7.72
5.04
2.72
0.56
-1.79
-4.63
-8.01
-11.67
-15.22
-18.3
-20.85
-23.1
-25.39
-28.01
-31.11
-34.81
-39.2
-44.35
-50.08
-55.68
-59.95
-61.41
-58.86
-51.95
-41.36
-28.61
-15.47
-3.4
6.83
15.08
21.53
26.4
29.73
31.46
31.69
30.79
29.41
28.26
27.83
28.2
29.01
29.76
29.98
29.54
28.58
27.4
26.31
25.4
24.61
23.74
22.57
20.93
18.8
16.22
13.34
10.34
7.33
4.38
1.49
-1.4
-4.32
-7.28
-10.23
-13.11
-15.82
-18.34
-20.7
-23.1
-25.92
-29.55
-34.26
-39.98
-46.06
-51.42
-54.73
-54.85
-51.2
-43.98
-34.07
-22.78
-11.43
-1.02
7.94
15.29
21.1
25.42
28.21
29.42
29.17
27.8
25.94
24.27
23.33
23.27
23.9
24.79
25.5
25.81
25.67
25.21
24.52
23.62
22.42
20.87
18.95
16.59
13.75
10.37
6.4
1.98
-2.6
-6.99
-10.9
-14.21
-17.01
-19.51
-21.93
-24.5
-27.41
-30.89
-35.11
-40.06
-45.3
-49.99
-52.92
-52.94
-49.29
-41.93
-31.6
-19.58
-7.32
3.89
13.26
20.49
25.65
29.0
30.87
31.54
31.29
30.47
29.41
28.44
27.8
27.55
27.58
27.74
27.82
27.77
27.64
27.51
27.42
27.23
26.68
25.44
23.34
20.41
16.96
13.4
10.07
7.09
4.37
1.7
-1.13
-4.25
-7.68
-11.37
-15.21
-19.04
-22.61
-25.68
-28.14
-30.14
-32.2
-35.07
-39.37
-45.29
-52.22
-58.79
-63.29
-64.08
-60.26
-51.89
-40.0
-26.18
-12.14
0.71
11.5
19.83
25.7
29.31
31.01
31.21
30.34
28.81
27.0
25.19
23.63
22.53
22.02
22.1
22.66
23.43
24.05
24.22
23.75
22.63
20.99
19.03
16.89
14.64
12.3
9.82
7.2
4.44
1.58
-1.35
-4.37
-7.43
-10.5
-13.48
-16.29
-18.96
-21.66
-24.76
-28.65
-33.46
-38.84
-43.83
-47.07
-47.16
-43.25
-35.32
-24.36
-11.96
0.05
10.29
18.06
23.39
26.74
28.66
29.5
29.41
28.52
27.07
25.44
24.08
23.22
22.86
22.74
22.59
22.29
21.89
21.47
21.02
20.34
19.14
17.23
14.61
11.52
8.24
4.93
1.63
-1.76
-5.3
-8.94
-12.53
-15.9
-18.95
-21.68
-24.26
-26.95
-29.98
-33.61
-37.97
-43.07
-48.61
-53.91
-57.88
-59.26
-56.99
-50.62
-40.6
-28.15
-14.96
-2.61
7.81
15.89
21.76
25.79
28.34
29.65
29.85
29.13
27.83
26.41
25.32
24.85
25.0
25.52
26.1
26.49
26.6
26.49
26.21
25.7
24.77
23.23
21.02
18.31
15.45
12.76
10.38
8.2
5.92
3.26
0.12
-3.34
-6.86
-10.21
-13.31
-16.27
-19.28
-22.54
-26.18
-30.34
-35.12
-40.54
-46.27
-51.59
-55.36
-56.37
-53.76
-47.42
-38.06
-26.98
-15.59
-4.97
4.34
12.26
18.93
24.4
28.52
31.06
31.86
31.07
29.21
27.0
25.13
24.01
23.68
23.83
24.1
24.18
23.92
23.29
22.31
20.99
19.31
17.32
15.11
12.78
10.36
7.82
5.02
1.84
-1.74
-5.59
-9.43
-12.91
-15.77
-17.98
-19.84
-21.97
-25.08
-29.66
-35.57
-41.9
-47.13
-49.61
-48.23
-42.71
-33.82
-22.9
-11.48
-0.72
8.68
16.5
22.69
27.24
30.13
31.4
31.28
30.17
28.61
27.17
26.29
26.12
26.55
27.24
27.76
27.77
27.15
26.03
24.67
23.33
22.05
20.73
19.18
17.25
14.95
12.42
9.82
7.21
4.49
1.46
-2.05
-6.02
-10.21
-14.25
-17.83
-20.81
-23.34
-25.73
-28.39
-31.68
-35.84
-40.93
-46.76
-52.76
-57.99
-61.18
-61.05
-56.72
-48.14
-36.14
-22.26
-8.28
4.3
14.54
22.14
27.25
30.28
31.76
32.17
31.9
31.25
30.41
29.53
28.77
28.31
28.27
28.62
29.14
29.57
29.67
29.39
28.86
28.22
27.51
26.56
25.12
23.05
20.4
17.45
14.48
11.65
8.9
6.07
2.99
-0.35
-3.85
-7.33
-10.67
-13.79
-16.67
-19.35
-21.86
-24.4
-27.29
-30.99
-35.86
-41.9
-48.46
-54.26
-57.79
-57.72
-53.43
-45.21
-34.1
-21.56
-9.04
2.3
11.76
19.06
24.24
27.56
29.39
30.08
29.94
29.25
28.24
27.17
26.29
25.83
25.84
26.16
26.5
26.54
26.03
24.9
23.2
21.15
18.98
16.85
14.83
12.81
10.55
7.84
4.59
0.94
-2.86
-6.54
-10.0
-13.24
-16.39
-19.56
-22.76
-26.03
-29.41
-33.12
-37.37
-42.15
-47.01
-51.0
-52.86
-51.42
-46.1
-37.17
-25.71
-13.34
-1.6
8.38
16.17
21.93
26.02
28.7
30.05
30.07
28.94
27.12
25.3
24.15
23.94
24.57
25.56
26.45
26.98
27.14
27.06
26.81
26.31
25.35
23.74
21.44
18.56
15.37
12.12
9.01
6.11
3.39
0.81
-1.74
-4.32
-7.0
-9.8
-12.71
-15.66
-18.61
-21.53
-24.48
-27.54
-30.85
-34.58
-38.88
-43.84
-49.31
-54.81
-59.4
-61.87
-61.05
-56.24
-47.56
-35.97
-22.98
-10.22
1.13
10.44
17.67
22.98
26.61
28.75
29.62
29.54
28.96
28.41
28.23
28.52
29.13
29.73
29.97
29.65
28.75
27.43
26.01
24.75
23.83
23.19
22.55
21.56
19.85
17.33
14.16
10.77
7.6
4.94
2.73
0.63
-1.76
-4.7
-8.08
-11.56
-14.63
-17.02
-18.81
-20.46
-22.64
-25.93
-30.65
-36.63
-43.17
-49.11
-53.08
-53.8
-50.47
-43.05
-32.31
-19.67
-6.8
4.85
14.33
21.29
25.89
28.54
29.72
29.88
29.34
28.36
27.13
25.81
24.59
23.71
23.34
23.52
24.1
24.75
25.19
25.23
24.9
24.29
23.51
22.45
20.86
18.47
15.2
11.23
7.06
3.17
-0.09
-2.76
-5.16
-7.73
-10.75
-14.31
-18.2
-22.08
-25.63
-28.71
-31.35
-33.88
-36.75
-40.44
-45.23
-50.89
-56.6
-61.0
-62.58
-60.21
-53.64
-43.53
-31.24
-18.3
-5.94
5.1
14.5
22.12
27.81
31.45
33.1
33.12
32.18
30.99
30.13
29.82
29.95
30.24
30.41
30.36
30.17
29.99
29.97
30.13
30.34
30.39
30.03
29.1
27.54
25.4
22.8
19.92
16.88
13.75
10.6
7.49
4.52
1.74
-0.87
-3.39
-5.99
-8.75
-11.68
-14.65
-17.53
-20.29
-23.01
-25.88
-29.07
-32.63
-36.47
-40.55
-44.84
-49.37
-54.0
-58.22
-61.08
-61.39
-58.18
-51.11
-40.73
-28.3
-15.42
-3.48
6.67
14.8
21.07
25.74
28.96
30.79
31.33
30.84
29.8
28.71
27.97
27.68
27.72
27.86
27.9
27.77
27.49
27.12
26.67
26.09
25.27
24.07
22.42
20.31
17.81
15.03
12.09
9.15
6.32
3.62
1.0
-1.67
-4.54
-7.7
-11.09
-14.52
-17.75
-20.61
-23.11
-25.55
-28.42
-32.24
-37.2
-42.99
-48.72
-53.08
-54.75
-52.75
-46.82
-37.45
-25.74
-13.1
-0.89
9.85
18.52
24.9
29.07
31.27
31.87
31.29
30.02
28.57
27.38
26.67
26.49
26.67
26.97
27.18
27.24
27.18
27.07
26.88
26.49
25.69
24.32
22.34
19.81
16.9
13.81
10.73
7.78
5.0
2.36
-0.2
-2.79
-5.52
-8.5
-11.73
-15.14
-18.54
-21.69
-24.41
-26.62
-28.53
-30.52
-33.06
-36.62
-41.45
-47.46
-54.11
-60.46
-65.2
-67.01
-64.9
-58.58
-48.61
-36.24
-23.06
-10.54
0.36
9.25
16.21
21.51
25.39
27.99
29.42
29.83
29.54
28.97
28.6
28.75
29.47
30.61
31.82
32.78
33.22
33.11
32.52
31.58
30.38
28.97
27.3
25.35
23.09
20.57
17.92
15.25
12.71
10.35
8.05
5.62
2.9
-0.19
-3.56
-7.03
-10.45
-13.7
-16.76
-19.65
-22.38
-24.92
-27.37
-29.93
-32.99
-36.98
-42.1
-48.13
-54.23
-59.04
-61.02
-59.03
-52.67
-42.51
-29.92
-16.56
-3.96
6.91
15.66
22.31
27.03
30.01
31.45
31.62
30.97
29.98
29.09
28.54
28.35
28.33
28.25
27.99
27.55
27.08
26.71
26.51
26.34
25.96
25.11
23.58
21.39
18.69
15.75
12.77
9.84
6.88
3.75
0.31
-3.44
-7.41
-11.47
-15.47
-19.33
-22.98
-26.41
-29.58
-32.58
-35.64
-39.15
-43.47
-48.54
-53.72
-57.72
-58.98
-56.26
-49.16
-38.4
-25.46
-12.13
0.11
10.41
18.56
24.75
29.24
32.25
33.87
34.3
33.76
32.66
31.39
30.32
29.67
29.51
29.76
30.26
30.84
31.34
31.68
31.81
31.64
31.08
30.01
28.37
26.2
23.66
20.94
18.16
15.33
12.36
9.18
5.84
2.55
-0.52
-3.29
-5.94
-8.75
-12.03
-15.84
-19.98
-24.02
-27.48
-30.13
-32.07
-33.71
-35.75
-38.86
-43.46
-49.47
-56.18
-62.33
-66.4
-67.07
-63.6
-56.03
-45.14
-32.21
-18.61
-5.61
5.88
15.26
22.31
27.11
29.96
31.29
31.58
31.28
30.71
30.11
29.67
29.51
29.65
30.03
30.52
30.93
31.1
30.99
30.65
30.16
29.53
28.69
27.42
25.47
22.64
18.99
14.83
10.7
7.12
4.36
2.28
0.36
-2.01
-5.22
-9.21
-13.45
-17.26
-20.16
-22.13
-23.63
-25.42
-28.25
-32.56
-38.31
-44.91
-51.24
-55.83
-57.17
-54.15
-46.56
-35.19
-21.65
-7.91
4.35
14.18
21.35
26.17
29.15
30.72
31.26
31.06
30.46
29.8
29.3
29.05
28.96
28.79
28.32
27.41
26.16
24.79
23.67
23.08
23.02
23.14
22.83
21.5
18.81
14.92
10.39
5.97
2.21
-0.76
-3.23
-5.68
-8.57
-12.08
-16.03
-20.01
-23.53
-26.31
-28.38
-30.12
-32.17
-35.22
-39.72
-45.69
-52.49
-58.93
-63.43
-64.51
-61.22
-53.52
-42.35
-29.3
-16.11
-4.18
5.75
13.61
19.69
24.31
27.61
29.6
30.28
29.9
28.97
28.08
27.71
27.97
28.68
29.43
29.9
29.94
29.66
29.2
28.67
28.0
26.99
25.46
23.29
20.53
17.28
13.8
10.35
7.24
4.7
2.78
1.3
-0.2
-2.24
-5.17
-8.96
-13.15
-17.13
-20.37
-22.74
-24.54
-26.38
-28.94
-32.69
-37.81
-44.05
-50.75
-56.78
-60.78
-61.37
-57.68
-49.62
-38.05
-24.56
-10.96
1.2
11.07
18.45
23.69
27.28
29.64
31.0
31.43
31.01
29.92
28.48
27.08
26.06
25.62
25.72
26.18
26.74
27.2
27.36
27.12
26.34
24.89
22.72
19.88
16.6
13.2
9.97
7.03
4.31
1.57
-1.44
-4.86
-8.64
-12.56
-16.34
-19.79
-22.83
-25.61
-28.49
-31.89
-36.15
-41.32
-46.89
-51.83
-54.8
-54.54
-50.39
-42.49
-31.78
-19.65
-7.52
3.55
12.95
20.44
26.02
29.71
31.62
32.01
31.31
30.1
28.96
28.33
28.33
28.83
29.56
30.17
30.47
30.34
29.89
29.26
28.66
28.16
27.66
26.85
25.3
22.7
19.07
14.78
10.47
6.73
3.8
1.55
-0.45
-2.66
-5.36
-8.57
-12.09
-15.64
-18.96
-21.93
-24.56
-26.97
-29.43
-32.3
-35.97
-40.76
-46.76
-53.66
-60.6
-66.29
-69.2
-67.98
-61.95
-51.41
-37.67
-22.68
-8.46
3.51
12.64
19.2
23.94
27.62
30.63
32.98
34.45
34.96
34.72
34.18
33.87
34.07
34.7
35.43
35.85
35.77
35.25
34.53
33.87
33.33
32.7
31.61
29.7
26.84
23.16
19.09
15.12
11.67
8.93
6.82
5.08
3.4
1.46
-0.96
-3.94
-7.41
-11.13
-14.8
-18.19
-21.2
-23.97
-26.81
-30.13
-34.32
-39.55
-45.57
-51.74
-56.99
-60.09
-59.91
-55.79
-47.77
-36.62
-23.64
-10.29
2.17
12.85
21.33
27.49
31.48
33.59
34.24
33.94
33.18
32.35
31.64
31.09
30.63
30.22
29.88
29.69
29.69
29.75
29.66
29.19
28.19
26.62
24.56
22.07
19.2
16.01
12.65
9.3
6.15
3.24
0.43
-2.55
-5.89
-9.62
-13.52
-17.27
-20.64
-23.57
-26.25
-29.02
-32.23
-36.2
-41.14
-47.04
-53.51
-59.63
-63.98
-65.03
-61.63
-53.53
-41.6
-27.6
-13.53
-1.03
9.09
16.87
22.89
27.71
31.57
34.33
35.71
35.65
34.47
32.84
31.48
30.83
30.92
31.38
31.79
31.86
31.64
31.32
31.1
30.95
30.65
29.93
28.61
26.7
24.39
21.87
19.29
16.72
14.17
11.67
9.21
6.76
4.26
1.63
-1.2
-4.27
-7.61
-11.19
-14.95
-18.76
-22.44
-25.8
-28.74
-31.35
-33.9
-36.81
-40.5
-45.26
-51.0
-57.1
-62.45
-65.54
-64.92
-59.74
-50.11
-37.3
-23.31
-10.2
0.63
8.84
14.97
19.96
24.47
28.54
31.72
33.45
33.55
32.38
30.72
29.36
28.75
28.86
29.35
29.82
30.08
30.16
30.19
30.21
30.07
29.42
27.92
25.38
21.85
17.67
13.33
9.37
6.16
3.82
2.1
0.5
-1.57
-4.45
-8.1
-12.06
-15.7
-18.59
-20.66
-22.27
-23.98
-26.27
-29.47
-33.61
-38.53
-43.71
-48.34
-51.22
-51.09
-47.07
-39.1
-28.09
-15.72
-3.74
6.54
14.61
20.67
25.23
28.69
31.2
32.69
33.04
32.36
30.94
29.23
27.61
26.31
25.35
24.6
23.93
23.34
22.88
22.63
22.56
22.46
21.94
20.62
18.26
14.88
10.72
6.23
1.89
-1.89
-4.89
-7.16
-8.97
-10.78
-13.01
-15.87
-19.26
-22.8
-26.04
-28.69
-30.76
-32.59
-34.71
-37.63
-41.72
-46.96
-52.86
-58.38
-62.11
-62.64
-59.01
-51.13
-39.86
-26.76
-13.55
-1.63
8.21
15.83
21.44
25.42
28.07
29.65
30.33
30.3
29.82
29.13
28.49
28.06
27.94
28.08
28.32
28.49
28.46
28.18
27.64
26.87
25.82
24.47
22.78
20.76
18.48
16.01
13.43
10.8
8.21
5.75
3.49
1.42
-0.6
-2.79
-5.35
-8.38
-11.78
-15.32
-18.7
-21.68
-24.18
-26.31
-28.34
-30.6
-33.49
-37.31
-42.2
-47.96
-53.84
-58.67
-60.99
-59.55
-53.74
-43.95
-31.41
-17.95
-5.32
5.32
13.57
19.7
24.2
27.5
29.74
30.95
31.08
30.26
28.82
27.2
25.76
24.78
24.3
24.25
24.48
24.87
25.33
25.76
26.0
25.82
24.95
23.16
20.42
16.96
13.21
9.58
6.28
3.22
0.08
-3.41
-7.33
-11.43
-15.32
-18.67
-21.43
-23.84
-26.29
-29.1
-32.53
-36.68
-41.52
-46.79
-51.89
-55.76
-57.15
-54.91
-48.58
-38.67
-26.55
-14.05
-2.71
6.62
13.88
19.53
24.09
27.82
30.63
32.28
32.61
31.79
30.25
28.55
27.14
26.15
25.48
24.91
24.35
23.87
23.67
23.88
24.43
24.96
25.0
24.07
21.95
18.77
14.93
11.01
7.53
4.8
2.82
1.28
-0.32
-2.49
-5.58
-9.61
-14.21
-18.83
-22.89
-26.05
-28.37
-30.32
-32.62
-35.99
-40.86
-47.11
-54.08
-60.56
-65.1
-66.28
-63.16
-55.51
-43.98
-30.04
-15.54
-2.21
8.69
16.73
22.15
25.59
27.72
29.04
29.72
29.79
29.24
28.23
27.08
26.2
25.92
26.3
27.17
28.15
28.83
28.9
28.29
27.04
25.29
23.21
20.89
18.38
15.69
12.86
9.87
6.76
3.55
0.26
-3.05
-6.29
-9.33
-12.12
-14.64
-17.08
-19.78
-23.21
-27.74
-33.37
-39.6
-45.42
-49.54
-50.77
-48.34
-42.18
-32.91
-21.64
-9.68
1.78
11.85
20.0
26.08
30.1
32.24
32.8
32.15
30.74
29.05
27.46
26.2
25.34
24.81
24.51
24.3
24.02
23.53
22.71
21.47
19.8
17.75
15.47
13.12
10.81
8.52
6.09
3.3
-0.1
-4.15
-8.7
-13.37
-17.72
-21.45
-24.52
-27.19
-29.9
-33.14
-37.28
-42.38
-48.08
-53.61
-57.79
-59.36
-57.33
-51.33
-41.81
-29.86
-16.99
-4.62
6.21
15.03
21.88
27.01
30.74
33.24
34.63
35.0
34.54
33.53
32.32
31.17
30.18
29.36
28.65
28.04
27.59
27.35
27.3
27.27
26.94
25.97
24.11
21.31
17.86
14.27
11.11
8.71
6.99
5.42
3.27
0.05
-4.18
-8.86
-13.13
-16.36
-18.48
-19.97
-21.68
-24.43
-28.72
-34.62
-41.71
-49.17
-55.75
-60.02
-60.62
-56.8
-48.66
-37.3
-24.38
-11.59
-0.14
9.45
17.17
23.17
27.51
30.12
30.96
30.28
28.56
26.56
24.93
24.11
24.24
25.13
26.45
27.83
28.93
29.49
29.43
28.77
27.68
26.36
24.92
23.32
21.42
19.02
16.0
12.43
8.5
4.55
0.87
-2.33
-5.03
-7.34
-9.5
-11.78
-14.48
-17.88
-22.16
-27.36
-33.13
-38.73
-42.99
-44.63
-42.61
-36.58
-27.04
-15.28
-2.94
8.46
17.91
25.02
29.88
32.8
34.08
33.95
32.68
30.65
28.37
26.33
24.88
24.09
23.8
23.66
23.41
22.91
22.19
21.32
20.36
19.24
17.8
15.89
13.48
10.72
7.88
5.21
2.77
0.37
-2.38
-5.86
-10.23
-15.24
-20.33
-24.81
-28.17
-30.36
-31.83
-33.36
-35.76
-39.51
-44.59
-50.44
-56.1
-60.39
-62.16
-60.55
-55.14
-46.2
-34.6
-21.7
-8.99
2.31
11.54
18.62
23.89
27.78
30.53
32.2
32.79
32.48
31.64
30.76
30.24
30.21
30.53
30.88
31.0
30.78
30.33
29.84
29.47
29.2
28.76
27.75
25.78
22.66
18.62
14.23
10.2
7.08
4.96
3.48
2.02
-0.03
-2.95
-6.67
-10.82
-14.98
-18.86
-22.33
-25.44
-28.36
-31.35
-34.74
-38.81
-43.65
-48.92
-53.8
-57.03
-57.4
-54.04
-46.86
-36.61
-24.63
-12.47
-1.38
7.94
15.35
21.01
25.13
27.77
28.82
28.23
26.21
23.34
20.5
18.54
18.01
18.91
20.74
22.68
23.98
24.17
23.21
21.39
19.1
16.67
14.26
11.84
9.3
6.58
3.67
0.66
-2.28
-5.04
-7.55
-9.84
-11.98
-14.07
-16.17
-18.37
-20.81
-23.74
-27.44
-32.08
-37.58
-43.33
-48.2
-50.83
-50.01
-45.2
-36.78
-25.95
-14.29
-3.21
6.41
14.26
20.38
24.89
27.82
29.2
29.17
28.17
26.77
25.55
24.85
24.73
25.0
25.43
25.76
25.92
25.83
25.53
25.06
24.47
23.79
22.99
21.89
20.26
17.97
15.01
11.61
8.11
4.78
1.78
-0.9
-3.39
-5.91
-8.65
-11.77
-15.35
-19.28
-23.28
-26.91
-29.86
-32.05
-33.8
-35.75
-38.57
-42.72
-48.12
-54.19
-59.88
-63.91
-65.12
-62.64
-56.18
-46.15
-33.58
-19.92
-6.72
4.82
14.08
21.04
26.09
29.68
32.16
33.65
34.2
33.94
33.24
32.59
32.38
32.74
33.47
34.16
34.45
34.27
33.81
33.34
32.94
32.47
31.61
30.15
28.09
25.68
23.19
20.76
18.27
15.47
12.18
8.49
4.72
1.24
-1.69
-4.13
-6.39
-8.82
-11.64
-14.8
