0
-99.53
-81.24
-59.71
-37.61
-17.24
-0.01
13.66
24.15
32.15
38.3
42.99
46.37
48.57
49.85
50.64
51.5
52.91
55.08
57.94
61.19
64.45
67.41
69.85
71.65
72.73
73.0
72.36
70.73
68.08
64.49
60.1
55.13
49.83
44.43
39.11
34.0
29.16
24.58
20.22
15.92
11.52
6.8
1.56
-4.26
-10.58
-17.13
-23.53
-29.5
-34.97
-40.25
-45.94
-52.78
-61.34
-71.61
-82.84
-93.42
-101.22
-104.0
-100.11
-89.03
-71.67
-50.19
-27.38
-5.91
12.38
26.73
37.28
44.59
49.26
51.66
52.06
50.84
48.62
46.27
44.65
44.36
45.58
48.05
51.18
54.31
56.85
58.48
59.17
59.11
58.58
57.65
56.13
53.63
49.75
44.39
37.88
31.0
24.6
19.27
15.03
11.38
7.54
2.83
-3.01
-9.83
-17.13
-24.42
-31.31
-37.63
-43.46
-48.99
-54.71
-61.27
-69.48
-79.88
-92.37
-105.83
-118.12
-126.54
-128.58
-122.82
-109.34
-89.86
-67.09
-43.95
-22.74
-4.74
9.85
21.56
31.1
38.99
45.38
50.23
53.55
55.6
56.97
58.36
60.24
62.71
65.48
68.04
69.92
70.9
71.06
70.66
69.94
69.01
67.78
65.98
63.31
59.54
54.61
48.71
42.27
35.83
29.87
24.69
20.22
16.15
11.98
7.24
1.67
-4.67
-11.49
-18.39
-25.06
-31.42
-37.66
-44.09
-51.14
-59.23
-68.7
-79.72
-91.94
-104.24
-114.72
-120.92
-120.6
-112.5
-96.96
-75.85
-52.01
-28.37
-7.15
10.57
24.73
35.9
44.73
51.75
57.14
60.93
63.24
64.37
64.86
65.33
66.29
67.92
70.1
72.52
74.83
76.81
78.29
79.16
79.29
78.53
76.78
74.09
70.56
66.31
61.43
55.96
49.98
43.69
37.39
31.37
25.75
20.43
15.1
9.42
3.19
-3.56
-10.6
-17.61
-24.34
-30.7
-36.76
-42.76
-49.06
-56.1
-64.4
-74.39
-86.22
-99.44
-112.77
-124.05
-130.69
-130.33
-121.75
-105.34
-83.18
-58.34
-33.98
-12.43
5.22
19.06
29.77
38.02
44.14
48.19
50.19
50.46
49.69
48.76
48.46
49.12
50.59
52.33
53.82
54.77
55.25
55.52
55.77
55.91
55.48
53.87
50.58
45.49
38.98
31.77
24.73
18.57
13.55
9.4
5.43
0.85
-4.88
-11.71
-19.05
-26.0
-31.86
-36.47
-40.31
-44.32
-49.51
-56.67
-66.12
-77.66
-90.37
-102.58
-112.0
-116.13
-113.02
-101.97
-83.95
-61.39
-37.4
-14.75
4.76
20.57
33.0
42.68
50.07
55.4
58.68
60.05
59.92
58.97
58.02
57.72
58.36
59.74
61.35
62.57
63.02
62.66
61.74
60.6
59.37
57.84
55.52
51.88
46.61
39.89
32.29
24.65
17.67
11.71
6.67
2.05
-2.75
-8.24
-14.56
-21.51
-28.6
-35.36
-41.49
-47.08
-52.57
-58.7
-66.27
-75.92
-87.82
-101.44
-115.38
-127.48
-135.13
-135.95
-128.52
-112.95
-90.95
-65.39
-39.5
-15.95
3.78
19.46
31.7
41.41
49.21
55.3
59.62
62.21
63.37
63.71
63.91
64.47
65.53
66.95
68.49
69.97
71.38
72.72
73.89
74.62
74.5
73.2
70.54
66.63
61.8
56.53
51.25
46.29
41.69
37.24
32.62
27.49
21.79
15.74
9.76
4.23
-0.76
-5.5
-10.61
-16.64
-23.87
-32.08
-40.67
-48.92
-56.36
-62.98
-69.26
-76.08
-84.34
-94.68
-106.94
-120.05
-131.87
-139.7
-140.91
-133.85
-118.5
-96.57
-70.98
-45.0
-21.24
-1.15
14.99
27.65
37.49
44.99
50.44
54.1
56.33
57.71
58.86
60.24
62.05
64.17
66.31
68.19
69.67
70.81
71.79
72.72
73.56
73.98
73.53
71.77
68.55
64.14
59.13
54.19
49.74
45.75
41.82
37.42
32.22
26.28
20.03
14.05
8.79
4.31
0.32
-3.77
-8.53
-14.35
-21.23
-28.78
-36.4
-43.54
-49.92
-55.7
-61.48
-68.1
-76.37
-86.72
-98.98
-112.07
-124.04
-132.29
-134.26
-128.22
-113.95
-93.02
-68.36
-43.31
-20.65
-1.89
12.72
23.75
31.89
37.63
41.09
42.46
42.19
41.1
40.16
40.19
41.5
43.83
46.56
48.92
50.45
51.07
51.08
50.91
50.83
50.73
50.1
48.27
44.71
39.41
32.89
26.03
19.72
14.5
10.25
6.4
2.22
-2.89
-8.97
-15.62
-22.18
-28.03
-32.98
-37.33
-41.76
-47.06
-53.92
-62.69
-73.3
-85.12
-96.83
-106.52
-111.96
-111.18
-103.22
-88.48
-68.8
-46.83
-25.26
-6.05
9.91
22.6
32.52
40.12
45.63
49.12
50.61
50.41
49.16
47.77
47.14
47.86
49.98
52.99
56.11
58.57
60.01
60.52
60.43
59.97
59.05
57.26
54.1
49.28
43.0
35.87
28.71
22.28
16.91
12.43
8.25
3.56
-2.28
-9.52
-17.88
-26.65
-34.97
-42.2
-48.11
-53.02
-57.67
-63.0
-69.92
-79.07
-90.57
-103.75
-116.99
-127.82
-133.45
-131.55
-121.16
-103.09
-79.84
-54.71
-30.86
-10.4
5.93
18.5
28.24
36.04
42.39
47.46
51.26
53.86
55.51
56.59
57.49
58.52
59.81
61.33
62.96
64.58
66.06
67.32
68.29
68.84
68.81
67.97
66.07
62.96
58.68
53.43
47.52
41.37
35.28
29.46
24.0
18.89
14.02
9.22
4.18
-1.41
-7.78
-14.91
-22.48
-29.98
-36.95
-43.22
-49.03
-54.95
-61.7
-69.95
-80.12
-92.11
-105.11
-117.39
-126.46
-129.68
-125.06
-112.09
-92.09
-67.86
-42.75
-19.57
0.03
15.7
27.87
37.27
44.39
49.5
52.77
54.47
55.12
55.35
55.79
56.8
58.37
60.18
61.8
62.87
63.33
63.39
63.39
63.54
63.67
63.34
61.9
58.9
54.21
48.2
41.54
34.94
28.89
23.51
18.58
13.65
8.22
1.99
-5.04
-12.54
-19.99
-26.84
-32.76
-37.79
-42.36
-47.24
-53.26
-61.08
-70.95
-82.37
-94.09
-104.15
-110.27
-110.46
-103.66
-90.14
-71.5
-50.21
-28.88
-9.57
6.6
19.41
29.16
36.26
40.96
43.36
43.7
42.47
40.5
38.82
38.22
39.05
41.11
43.78
46.4
48.56
50.14
51.27
51.99
52.14
51.3
49.04
45.12
39.71
33.35
26.76
20.61
15.2
10.41
5.76
0.69
-5.17
-11.72
-18.46
-24.67
-29.83
-33.88
-37.33
-41.06
-46.02
-52.93
-62.04
-72.94
-84.53
-94.96
-101.96
-103.29
-97.54
-84.71
-66.34
-45.1
-23.88
-4.92
10.78
23.34
33.46
41.85
48.8
54.26
58.02
60.12
60.88
60.85
60.67
60.79
61.42
62.49
63.78
64.98
65.84
66.27
66.28
65.99
65.46
64.6
63.14
60.68
56.86
51.55
44.96
37.57
30.02
22.87
16.4
10.57
5.01
-0.76
-7.12
-14.19
-21.76
-29.34
-36.4
-42.6
-47.93
-52.79
-57.84
-63.83
-71.38
-80.73
-91.58
-102.9
-112.97
-119.65
-120.82
-115.15
-102.56
-84.46
-63.37
-42.12
-23.0
-7.23
5.1
14.61
22.07
28.04
32.74
36.27
38.78
40.62
42.28
44.15
46.39
48.86
51.25
53.23
54.68
55.7
56.55
57.46
58.39
59.03
58.85
57.33
54.3
49.98
44.97
39.92
35.29
31.09
26.97
22.49
17.42
11.91
6.41
1.44
-2.73
-6.23
-9.59
-13.47
-18.35
-24.36
-31.19
-38.26
-44.93
-50.77
-55.73
-60.11
-64.56
-69.86
-76.71
-85.48
-95.9
-106.85
-116.38
-122.05
-121.6
-113.73
-98.7
-78.37
-55.66
-33.65
-14.7
0.14
10.99
18.72
24.34
28.56
31.69
33.83
35.05
35.62
35.94
36.46
37.47
39.05
41.06
43.27
45.47
47.51
49.25
50.56
51.24
51.04
49.76
47.34
43.88
39.59
34.73
29.54
24.23
19.03
14.18
9.9
6.27
3.08
-0.1
-3.75
-8.2
-13.44
-19.12
-24.72
-29.83
-34.34
-38.44
-42.64
-47.48
-53.51
-61.08
-70.28
-80.7
-91.28
-100.3
-105.61
-105.25
-98.1
-84.45
-65.94
-45.15
-24.74
-6.7
8.05
19.59
28.5
35.35
40.32
43.34
44.35
43.64
41.95
40.31
39.59
40.21
41.98
44.31
46.55
48.29
49.52
50.5
51.41
52.17
52.4
51.52
49.07
44.88
39.19
32.55
25.69
19.26
13.63
8.81
4.42
-0.15
-5.48
-11.88
-19.25
-27.04
-34.5
-40.99
-46.22
-50.45
-54.43
-59.2
-65.75
-74.72
-86.04
-98.71
-110.83
-119.89
-123.38
-119.59
-108.21
-90.54
-69.14
-46.96
-26.53
-9.28
4.57
15.56
24.51
31.98
38.15
42.93
46.25
48.26
49.44
50.41
51.71
53.62
56.06
58.65
60.89
62.45
63.25
63.49
63.49
63.43
63.19
62.36
60.39
56.95
52.06
46.11
39.76
33.62
28.02
22.99
18.25
13.37
7.95
1.77
-5.17
-12.56
-19.95
-26.85
-32.96
-38.25
-43.1
-48.17
-54.28
-62.17
-72.24
-84.3
-97.39
-109.74
-118.98
-122.71
-119.14
-107.78
-89.76
-67.54
-44.18
-22.45
-4.02
10.66
22.08
31.11
38.45
44.38
48.92
52.08
54.08
55.34
56.36
57.5
58.91
60.54
62.22
63.82
65.23
66.38
67.28
67.9
68.19
67.98
66.96
64.74
61.01
55.73
49.23
42.2
35.39
29.42
24.44
20.18
16.1
11.61
6.32
0.07
-6.95
-14.32
-21.56
-28.29
-34.33
-39.88
-45.4
-51.53
-58.9
-67.98
-78.87
-91.11
-103.49
-114.06
-120.41
-120.26
-112.26
-96.59
-75.07
-50.68
-26.59
-5.34
11.76
24.62
33.9
40.43
44.87
47.62
49.02
49.44
49.41
49.47
50.02
51.19
52.79
54.5
56.07
57.41
58.65
59.98
61.35
62.43
62.64
61.32
58.11
53.13
46.98
40.47
34.23
28.5
23.04
17.36
11.01
3.91
-3.61
-10.98
-17.6
-23.2
-27.94
-32.35
-37.26
-43.51
-51.72
-61.96
-73.55
-84.84
-93.51
-97.11
-93.83
-83.17
-66.23
-45.4
-23.58
-3.31
13.8
27.25
37.28
44.5
49.44
52.45
53.73
53.6
52.44
50.82
49.32
48.38
48.22
48.8
49.84
51.01
52.06
52.88
53.37
53.45
52.8
51.01
47.69
42.81
36.73
30.23
24.16
19.05
14.94
11.33
7.48
2.76
-3.09
-9.91
-17.2
-24.35
-30.89
-36.65
-41.84
-47.08
-53.24
-61.1
-70.94
-82.1
-92.87
-100.78
-103.32
-98.82
-87.07
-69.5
-48.71
-27.62
-8.61
6.96
18.78
27.24
32.91
36.2
37.34
36.55
34.29
31.35
28.74
27.35
27.63
29.5
32.4
35.61
38.49
40.66
41.99
42.41
41.89
40.39
37.91
34.6
30.62
26.12
21.15
15.66
9.65
3.26
-3.22
-9.39
-14.94
-19.78
-24.07
-28.22
-32.74
-38.17
-44.95
-53.26
-62.77
-72.46
-80.62
-85.13
-84.13
-76.66
-63.09
-45.18
-25.46
-6.48
9.91
22.86
32.46
39.24
43.81
46.57
47.77
47.66
46.63
45.25
44.08
43.58
43.93
45.02
46.46
47.8
48.64
48.75
48.06
46.61
44.45
41.6
38.05
33.83
29.06
23.94
18.61
13.11
7.39
1.37
-4.91
-11.18
-17.02
-22.06
-26.2
-29.73
-33.26
-37.62
-43.51
-51.35
-61.02
-71.69
-81.8
-89.27
-91.98
-88.46
-78.44
-63.06
-44.55
-25.5
-8.1
6.43
17.85
26.65
33.46
38.81
42.93
45.84
47.61
48.4
48.55
48.49
48.57
48.96
49.58
50.21
50.6
50.65
50.44
50.15
49.89
49.53
48.72
46.99
44.0
39.72
34.45
28.73
23.17
18.26
14.19
10.85
7.85
4.7
0.94
-3.58
-8.68
-13.9
-18.66
-22.64
-25.87
-28.82
-32.14
-36.54
-42.44
-49.91
-58.57
-67.55
-75.55
-81.02
-82.49
-78.98
-70.44
-57.75
-42.6
-26.91
-12.36
0.06
10.04
17.74
23.54
27.76
30.64
32.41
33.35
33.85
34.31
34.98
35.93
37.02
38.01
38.72
39.09
39.23
39.27
39.3
39.23
38.86
37.93
36.24
33.81
30.83
27.58
24.31
21.09
17.85
14.45
10.83
7.14
3.7
0.8
-1.48
-3.4
-5.42
-8.01
-11.33
-15.19
-19.1
-22.65
-25.63
-28.2
-30.76
-33.8
-37.76
-42.9
-49.27
-56.51
-63.81
-69.86
-73.08
-72.1
-66.28
-56.05
-42.85
-28.71
-15.52
-4.52
3.89
9.95
14.16
16.9
18.32
18.54
17.71
16.26
14.75
13.76
13.59
14.21
15.33
16.52
17.5
18.23
18.85
19.56
20.39
21.13
21.42
20.79
18.95
15.96
12.16
8.17
4.54
1.65
-0.5
-2.19
-3.89
-6.04
-8.87
-12.4
-16.33
-20.31
-23.97
-27.1
-29.76
-32.23
-35.01
-38.6
-43.45
-49.7
-56.99
-64.42
-70.62
-73.99
-73.2
-67.63
-57.65
-44.64
-30.56
-17.31
-6.17
2.44
8.84
13.7
17.51
20.45
22.44
23.38
23.37
22.77
22.06
21.62
21.56
21.77
22.11
22.46
22.83
23.34
23.99
24.66
25.1
25.01
24.16
22.45
19.92
16.82
13.46
10.19
7.31
4.91
2.91
1.07
-0.93
-3.35
-6.35
-9.93
-13.98
-18.32
-22.7
-26.8
-30.37
-33.26
-35.57
-37.76
-40.57
-44.82
-51.03
-59.15
-68.33
-77.06
-83.43
-85.72
-82.92
-75.08
-63.29
-49.33
-35.15
-22.17
-11.19
-2.26
4.92
10.68
15.22
18.56
20.78
22.07
22.82
23.41
24.14
25.09
26.16
27.27
28.44
29.8
31.5
33.59
35.86
37.9
39.29
39.76
39.29
38.08
36.36
34.32
31.95
29.18
25.99
22.45
18.74
15.07
11.54
8.22
5.07
2.03
-0.98
-4.08
-7.46
-11.3
-15.7
-20.55
-25.55
-30.29
-34.48
-38.15
-41.67
-45.71
-50.97
-57.9
-66.42
-75.75
-84.43
-90.55
-92.27
-88.43
-78.94
-64.96
-48.49
-31.81
-16.73
-4.23
5.57
13.11
18.94
23.41
26.63
28.6
29.41
29.38
28.93
28.57
28.68
29.46
30.9
32.83
34.99
37.11
38.98
40.47
41.53
42.12
42.13
41.41
39.77
37.16
33.68
29.63
25.44
21.49
17.98
14.87
11.93
8.84
5.34
1.3
-3.27
-8.19
-13.23
-18.11
-22.6
-26.56
-30.02
-33.26
-36.77
-41.21
-47.19
-54.98
-64.25
-73.83
-81.86
-86.2
-85.06
-77.69
-64.75
-48.11
-30.25
-13.46
0.82
12.12
20.64
26.82
30.98
33.23
33.77
33.07
31.87
31.03
31.12
32.31
34.35
36.81
39.28
41.56
43.53
45.17
46.42
47.19
47.37
46.75
45.05
41.96
37.37
31.5
24.97
18.68
13.37
9.33
6.2
3.16
-0.65
-5.72
-11.96
-18.77
-25.37
-31.14
-35.91
-39.94
-43.83
-48.37
-54.29
-62.08
-71.8
-82.75
-93.49
-101.88
-105.66
-103.07
-93.54
-78.0
-58.59
-38.07
-18.9
-2.67
10.16
20.02
27.66
33.75
38.58
42.16
44.45
45.57
45.91
46.06
46.59
47.81
49.71
51.98
54.22
56.05
57.38
58.24
58.77
58.99
58.73
57.65
55.45
52.0
47.47
42.27
36.96
32.03
27.73
24.05
20.67
17.1
12.81
7.45
1.01
-6.16
-13.46
-20.31
-26.33
-31.58
-36.53
-41.89
-48.4
-56.63
-66.73
-78.24
-90.02
-100.16
-106.35
-106.53
-99.55
-85.74
-66.9
-45.71
-24.89
-6.4
8.93
21.19
30.93
38.7
44.77
49.23
52.2
53.97
55.0
55.81
56.8
58.17
59.92
61.91
63.9
65.72
67.23
68.36
69.1
69.38
69.04
67.85
65.57
62.02
57.26
51.55
45.36
39.23
33.62
28.76
24.62
20.94
17.38
13.59
9.35
4.65
-0.37
-5.43
-10.29
-14.79
-19.02
-23.29
-28.09
-33.94
-41.29
-50.36
-61.01
-72.59
-83.84
-92.95
-97.87
-96.88
-89.19
-75.34
-57.15
-37.16
-17.9
-1.13
12.43
22.86
30.66
36.27
39.89
41.64
41.8
40.91
39.75
39.04
39.22
40.37
42.25
44.48
46.74
48.8
50.53
51.82
52.47
52.24
50.92
48.41
44.75
40.19
35.16
30.16
25.54
21.44
17.63
13.65
9.05
3.65
-2.31
-8.32
-13.81
-18.53
-22.67
-26.83
-31.79
-38.24
-46.47
-56.26
-66.66
-76.13
-82.71
-84.49
-80.22
-69.75
-54.28
-36.01
-17.45
-0.68
13.16
23.91
32.04
38.12
42.52
45.36
46.71
46.76
46.0
45.04
44.47
44.66
45.68
47.3
49.17
50.91
52.27
53.14
53.52
53.46
52.91
51.68
49.54
46.32
42.04
37.04
31.83
26.92
22.61
18.82
15.18
11.2
6.49
0.98
-5.17
-11.54
-17.68
-23.22
-28.06
-32.38
-36.61
-41.34
-47.19
-54.54
-63.31
-72.79
-81.64
-88.15
-90.6
-87.79
-79.47
-66.46
-50.43
-33.48
-17.51
-3.83
7.07
15.36
21.59
26.33
30.01
32.89
35.09
36.73
38.0
39.11
40.24
41.44
42.7
43.95
45.11
46.16
47.09
47.87
48.39
48.47
47.93
46.69
44.75
42.22
39.19
35.77
31.97
27.86
23.61
19.38
15.32
11.48
7.82
4.19
0.45
-3.5
-7.67
-12.04
-16.56
-21.15
-25.72
-30.17
-34.41
-38.51
-42.75
-47.55
-53.37
-60.48
-68.63
-76.93
-83.9
-87.79
-87.11
-81.17
-70.39
-56.19
-40.59
-25.53
-12.38
-1.67
6.77
13.39
18.62
22.63
25.45
27.13
27.87
28.08
28.23
28.72
29.71
31.14
32.77
34.27
35.37
35.92
35.92
35.51
34.79
33.77
32.32
30.24
27.43
23.99
20.18
16.35
12.76
9.49
6.51
3.69
0.97
-1.77
-4.61
-7.77
-11.41
-15.61
-20.24
-24.95
-29.34
-33.07
-36.04
-38.47
-40.86
-43.86
-48.09
-53.92
-61.19
-69.1
-76.28
-81.02
-81.76
-77.58
-68.52
-55.58
-40.54
-25.36
-11.68
-0.47
8.03
14.11
18.27
20.92
22.35
22.74
22.4
21.81
21.56
22.12
23.64
25.92
28.45
30.71
32.36
33.3
33.71
33.82
33.77
33.56
33.03
31.97
30.2
27.66
24.43
20.71
16.78
12.93
9.38
6.15
3.18
0.22
-3.06
-6.95
-11.61
-16.98
-22.81
-28.64
-34.01
-38.64
-42.54
-46.12
-50.04
-55.07
-61.8
-70.34
-80.16
-89.97
-97.96
-102.18
-101.13
-94.32
-82.42
-67.15
-50.72
-35.13
-21.62
-10.55
-1.64
5.68
11.83
17.03
21.32
24.75
27.45
29.67
31.67
33.64
35.68
37.81
40.02
42.29
44.57
46.8
48.85
50.55
51.76
52.36
52.22
51.29
49.52
46.97
43.78
40.18
36.35
32.4
28.31
24.05
19.62
15.22
11.09
7.49
4.47
1.81
-0.87
-3.98
-7.75
-12.19
-17.12
-22.28
-27.48
-32.64
-37.85
-43.33
-49.48
-56.72
-65.38
-75.3
-85.58
-94.57
-100.19
-100.54
-94.65
-82.9
-66.95
-49.14
-31.83
-16.63
-4.17
5.71
13.61
20.09
25.4
29.53
32.39
34.06
34.91
35.54
36.53
38.22
40.55
43.14
45.56
47.51
48.97
50.14
51.19
52.11
52.65
52.45
51.24
48.97
45.83
42.13
38.15
34.09
30.03
26.0
22.03
18.19
14.51
11.07
7.82
4.69
1.48
-2.04
-6.09
-10.72
-15.85
-21.2
-26.5
-31.58
-36.51
-41.63
-47.48
-54.55
-63.1
-72.82
-82.67
-90.98
-95.75
-95.21
-88.5
-76.03
-59.41
-40.97
-23.06
-7.36
5.35
15.08
22.18
27.07
30.0
31.22
31.1
30.27
29.47
29.33
30.15
31.9
34.25
36.86
39.45
41.88
44.01
45.69
46.72
46.88
45.99
43.97
40.82
36.72
31.93
26.82
21.81
17.2
13.06
9.16
5.11
0.48
-4.88
-10.81
-16.9
-22.69
-27.94
-32.74
-37.54
-43.06
-50.05
-58.95
-69.59
-80.9
-91.04
-97.69
-98.81
-93.32
-81.54
-65.08
-46.35
-27.71
-10.9
3.24
14.66
23.66
30.57
35.59
38.88
40.74
41.64
42.24
43.14
44.72
47.01
49.72
52.39
54.54
55.97
56.72
57.06
57.33
57.66
57.93
57.7
56.44
53.73
49.48
44.02
37.92
31.77
25.94
20.49
15.24
9.94
4.38
-1.47
-7.51
-13.59
-19.5
-25.1
-30.28
-35.14
-39.98
-45.37
-51.99
-60.42
-70.82
-82.61
-94.38
-103.98
-109.06
-107.72
-99.15
-84.02
-64.34
-42.9
-22.43
-4.92
8.77
18.89
26.26
31.8
36.09
39.34
41.55
42.79
43.36
43.83
44.73
46.41
48.88
51.79
54.76
57.44
59.71
61.55
62.97
63.86
64.0
63.17
61.26
58.35
54.64
50.39
45.84
41.14
36.38
31.66
27.06
22.63
18.29
13.83
9.0
3.52
-2.64
-9.33
-16.16
-22.75
-28.81
-34.32
-39.52
-44.88
-50.97
-58.32
-67.28
-77.8
-89.28
-100.36
-109.15
-113.54
-111.8
-103.19
-88.28
-68.89
-47.56
-26.77
-8.39
6.7
18.49
27.47
34.25
39.3
42.86
45.13
46.36
46.96
47.42
48.23
49.7
51.89
54.64
57.61
60.46
62.84
64.51
65.33
65.28
64.39
62.67
60.12
56.73
52.46
47.4
41.83
36.12
30.72
25.93
21.83
18.18
14.52
10.35
5.36
-0.46
-6.81
-13.19
-19.1
-24.27
-28.71
-32.79
-37.1
-42.34
-49.16
-58.01
-68.94
-81.42
-94.21
-105.4
-112.72
-114.05
-108.09
-94.89
-75.93
-53.79
-31.4
-11.17
5.53
18.48
28.22
35.47
40.68
44.01
45.49
45.45
44.57
43.81
44.0
45.53
48.2
51.4
54.46
56.88
58.52
59.41
59.67
59.32
58.21
56.17
53.0
48.64
43.18
36.88
30.16
23.5
17.37
11.97
7.26
2.89
-1.64
-6.76
-12.64
-19.17
-26.02
-32.77
-39.13
-44.98
-50.4
-55.68
-61.25
-67.71
-75.7
-85.63
-97.33
-109.7
-120.63
-127.43
-127.6
-119.73
-104.14
-82.77
-58.67
-34.93
-13.86
3.46
17.09
27.72
36.11
42.78
47.95
51.71
54.22
55.82
56.95
58.04
59.43
61.23
63.42
65.83
68.26
70.46
72.23
73.38
73.71
73.05
71.29
68.43
64.57
59.97
54.94
49.76
44.58
39.41
34.14
28.68
23.01
17.33
11.89
6.96
2.59
-1.44
-5.64
-10.57
-16.6
-23.62
-31.09
-38.21
-44.4
-49.57
-54.24
-59.34
-65.87
-74.56
-85.6
-98.35
-111.35
-122.33
-128.6
-127.73
-118.42
-101.07
-77.85
-52.1
-27.24
-5.72
11.4
24.33
33.94
41.19
46.7
50.82
53.83
56.08
58.0
59.94
62.1
64.4
66.58
68.36
69.53
70.1
70.24
70.2
70.14
70.08
69.73
68.64
66.36
62.67
57.75
52.17
46.69
41.95
38.19
35.11
32.1
28.57
24.22
19.27
14.23
9.65
5.68
2.05
-1.85
-6.67
-12.72
-19.85
-27.5
-35.01
-41.89
-47.95
-53.42
-58.85
-65.06
-72.84
-82.74
-94.62
-107.47
-119.28
-127.42
-129.33
-123.34
-109.38
-89.07
-65.26
-41.22
-19.58
-1.82
11.88
22.12
29.71
35.18
38.64
40.06
39.68
38.15
36.44
35.49
35.79
37.24
39.32
41.47
43.39
45.13
46.87
48.71
50.43
51.56
51.63
50.27
47.42
43.23
38.02
32.21
26.32
20.83
16.13
12.27
8.9
5.35
0.99
-4.57
-11.19
-18.25
-24.99
-30.82
-35.64
-39.87
-44.36
-50.1
-57.86
-67.92
-79.79
-92.19
-103.09
-110.13
-111.12
-104.82
-91.27
-71.98
-49.48
-26.65
-5.92
11.22
24.35
33.88
40.51
44.93
47.66
49.02
49.36
49.1
48.79
48.96
49.97
51.87
54.38
56.97
59.05
60.29
60.61
60.28
59.63
58.86
57.85
56.27
53.71
49.92
44.92
38.95
32.42
25.79
19.49
13.87
9.09
5.04
1.27
-2.79
-7.67
-13.58
-20.25
-27.24
-34.04
-40.4
-46.36
-52.19
-58.34
-65.33
-73.72
-83.89
-95.67
-107.93
-118.53
-124.76
-124.14
-115.44
-99.22
-77.72
-54.13
-31.47
-11.84
3.91
15.99
25.12
32.05
37.27
41.05
43.61
45.29
46.57
47.97
49.85
52.29
55.01
57.64
59.83
61.5
62.77
63.82
64.62
64.96
64.47
62.91
60.31
56.94
53.1
48.9
44.27
39.07
33.29
27.25
21.47
16.46
12.38
8.97
5.63
1.74
-3.13
-9.09
-15.9
-23.15
-30.4
-37.28
-43.61
-49.47
-55.16
-61.19
-68.19
-76.7
-86.86
-98.2
-109.34
-118.19
-122.29
-119.66
-109.46
-92.47
-71.01
-48.08
-26.55
-8.25
6.27
17.46
26.19
33.13
38.49
42.12
43.97
44.3
43.83
43.48
44.03
45.76
48.41
51.39
54.08
56.11
57.39
58.03
58.21
57.91
57.04
55.44
52.99
49.7
45.67
41.05
36.01
30.76
25.42
20.14
15.01
10.04
5.18
0.32
-4.73
-10.16
-16.04
-22.26
-28.48
-34.25
-39.24
-43.46
-47.35
-51.71
-57.42
-65.1
-74.83
-85.95
-97.06
-106.18
-111.12
-110.03
-101.95
-87.27
-67.68
-45.75
-24.18
-5.04
10.58
22.58
31.38
37.5
41.27
42.94
42.83
41.59
40.1
39.25
39.58
41.13
43.5
46.07
48.29
49.86
50.75
51.07
50.93
50.3
48.97
46.67
43.17
38.47
32.86
26.87
21.13
16.05
11.63
7.44
2.77
-2.91
-9.7
-17.15
-24.5
-31.02
-36.39
-40.8
-44.91
-49.6
-55.69
-63.78
-74.01
-85.92
-98.18
-108.66
-114.79
-114.29
-106.03
-90.58
-70.11
-47.69
-26.23
-7.64
7.44
19.33
28.72
36.12
41.71
45.46
47.43
47.98
47.73
47.42
47.67
48.79
50.73
53.12
55.47
57.33
58.51
59.08
59.24
59.16
58.74
57.62
55.34
51.67
46.71
40.95
35.02
29.48
24.54
20.14
16.0
11.82
7.33
2.35
-3.26
-9.54
-16.34
-23.38
-30.24
-36.55
-42.24
-47.56
-53.14
-59.73
-68.01
-78.28
-90.26
-102.88
-114.23
-121.88
-123.44
-117.4
-103.7
-83.97
-61.08
-38.13
-17.61
-0.73
12.5
22.77
30.9
37.38
42.33
45.84
48.11
49.6
50.85
52.29
54.08
56.07
58.03
59.75
61.2
62.44
63.55
64.48
65.11
65.2
64.55
62.98
60.47
57.11
53.14
48.97
44.97
41.29
37.83
34.18
29.91
24.85
19.28
13.76
8.83
4.67
0.84
-3.38
-8.67
-15.28
-22.9
-30.82
-38.27
-44.74
-50.18
-54.99
-59.93
-65.9
-73.75
-83.8
-95.49
-107.26
-116.66
-121.08
-118.45
-108.07
-90.88
-69.19
-45.97
-23.99
-5.12
9.95
21.48
30.25
37.05
42.29
46.1
48.49
49.61
49.94
50.15
50.88
52.45
54.75
57.36
59.79
61.8
63.41
64.83
66.19
67.35
67.87
67.21
64.98
61.21
56.37
51.16
46.26
41.98
38.18
34.38
30.03
24.87
19.03
13.04
7.46
2.7
-1.32
-5.1
-9.33
-14.56
-20.87
-27.87
-34.84
-41.1
-46.3
-50.59
-54.47
-58.71
-64.04
-71.01
-79.79
-89.99
-100.49
-109.42
-114.46
-113.52
-105.43
-90.54
-70.72
-48.8
-27.68
-9.41
5.12
16.08
24.21
30.2
34.45
37.12
38.33
38.43
37.99
37.72
38.19
39.65
41.98
44.68
47.2
49.05
50.07
50.4
50.35
50.21
50.01
49.46
48.03
45.27
41.02
35.56
29.54
23.67
18.52
14.27
10.69
7.29
3.5
-1.11
-6.71
-13.13
-19.9
-26.45
-32.3
-37.3
-41.74
-46.28
-51.79
-59.01
-68.29
-79.35
-91.24
-102.31
-110.46
-113.55
-109.99
-99.32
-82.47
-61.61
-39.57
-18.95
-1.45
12.38
22.95
31.02
37.22
41.87
45.05
46.88
47.72
48.15
48.75
49.88
51.54
53.46
55.32
56.94
58.32
59.58
60.77
61.79
62.38
62.17
60.86
58.31
54.61
50.04
45.02
39.96
35.1
30.5
26.02
21.5
16.87
12.28
7.97
4.13
0.71
-2.63
-6.43
-11.19
-17.05
-23.78
-30.83
-37.6
-43.67
-49.03
-54.07
-59.57
-66.37
-75.12
-85.94
-98.16
-110.18
-119.72
-124.31
-122.03
-112.13
-95.47
-74.26
-51.45
-29.81
-11.22
3.64
15.09
23.88
30.78
36.22
40.36
43.32
45.33
46.79
48.16
49.75
51.72
53.94
56.17
58.15
59.71
60.84
61.65
62.29
62.77
62.92
62.38
60.8
58.01
54.2
49.79
45.31
41.01
36.92
32.79
28.36
23.57
18.62
13.82
9.47
5.65
2.21
-1.22
-5.04
-9.56
-14.91
-20.93
-27.24
-33.35
-38.88
-43.74
-48.26
-53.17
-59.34
-67.47
-77.82
-89.81
-102.02
-112.26
-118.07
-117.38
-109.2
-94.06
-73.96
-51.76
-30.34
-11.77
3.08
14.42
23.0
29.54
34.48
37.93
39.96
40.85
41.11
41.34
42.0
43.25
44.95
46.85
48.72
50.46
52.06
53.47
54.55
55.07
54.75
53.41
51.04
47.78
43.83
39.38
34.6
29.61
24.54
19.62
15.04
10.96
7.36
4.02
0.57
-3.34
-7.94
-13.16
-18.69
-24.08
-28.96
-33.2
-37.05
-40.99
-45.66
-51.69
-59.45
-68.97
-79.69
-90.4
-99.27
-104.18
-103.27
-95.54
-81.35
-62.39
-41.25
-20.61
-2.52
12.02
23.0
30.91
36.34
39.67
41.15
41.03
39.79
38.13
36.79
36.35
37.06
38.75
41.0
43.31
45.29
46.74
47.67
48.21
48.48
48.48
48.04
46.81
44.48
40.86
36.08
30.52
24.76
19.29
14.42
10.17
6.32
2.52
-1.61
-6.38
-11.95
-18.33
-25.26
-32.31
-39.01
-45.04
-50.37
-55.5
-61.25
-68.52
-77.96
-89.5
-102.15
-113.98
-122.52
-125.34
-120.89
-108.97
-90.91
-69.17
-46.65
-25.88
-8.42
5.23
15.5
23.21
29.17
33.88
37.59
40.4
42.46
44.11
45.74
47.69
50.08
52.75
55.42
57.85
59.9
61.6
62.97
63.96
64.36
63.88
62.26
59.44
55.54
50.87
45.84
40.79
35.9
31.18
26.47
21.59
16.49
11.25
6.06
1.05
-3.85
-8.88
-14.36
-20.43
-26.93
-33.5
-39.71
-45.38
-50.65
-56.03
-62.24
-69.97
-79.69
-91.31
-103.95
-115.81
-124.44
-127.31
-122.62
-110.1
-91.16
-68.5
-45.22
-23.83
-5.71
8.9
20.47
29.61
36.75
42.13
45.93
48.46
50.2
51.66
53.2
54.95
56.84
58.69
60.35
61.78
63.03
64.14
65.15
65.98
66.43
66.24
65.15
62.98
59.82
55.94
51.71
47.44
43.2
38.86
34.23
29.26
24.12
19.17
14.74
10.92
7.49
3.95
-0.21
-5.36
-11.61
-18.71
-26.22
-33.59
-40.33
-46.18
-51.33
-56.42
-62.5
-70.62
-81.28
-94.0
-107.1
-117.96
-123.73
-122.27
-112.78
-96.2
-74.85
-51.72
-29.62
-10.49
4.85
16.53
25.17
31.44
35.82
38.61
40.09
40.62
40.71
40.92
41.69
43.12
45.11
47.35
49.52
51.43
53.01
54.3
55.28
55.87
55.84
54.91
52.85
49.56
45.14
39.93
34.38
28.96
23.98
19.47
15.18
10.69
5.58
-0.32
-6.84
-13.49
-19.72
-25.15
-29.8
-34.09
-38.72
-44.44
-51.81
-61.1
-72.15
-84.21
-95.87
-105.06
-109.5
-107.34
-97.93
-82.11
-62.09
-40.65
-20.28
-2.49
12.29
24.31
34.02
41.64
47.14
50.53
52.04
52.26
51.98
51.93
52.58
54.1
56.32
58.92
61.49
63.68
65.3
66.32
66.8
66.78
66.15
64.62
61.92
57.91
52.71
46.75
40.58
34.71
29.43
24.77
20.51
16.28
11.71
6.47
0.48
-6.1
-12.93
-19.58
-25.79
-31.55
-37.1
-42.94
-49.61
-57.65
-67.45
-79.12
-92.11
-105.06
-115.81
-121.81
-120.91
-112.16
-96.28
-75.53
-52.93
-31.32
-12.54
2.76
14.94
24.74
32.78
39.32
44.34
47.83
49.96
51.18
52.06
53.09
54.49
56.24
58.14
59.99
61.67
63.14
64.42
65.44
66.01
65.82
64.57
62.05
58.28
53.56
48.41
43.37
38.78
34.66
30.74
26.64
22.14
17.28
12.36
7.66
3.24
-1.15
-5.93
-11.41
-17.64
-24.33
-31.06
-37.44
-43.33
-48.84
-54.32
-60.28
-67.29
-75.8
-85.83
-96.65
-106.69
-113.75
-115.59
-110.69
-98.87
-81.42
-60.7
-39.39
-19.73
-3.0
10.54
21.29
29.93
36.92
42.45
46.52
49.08
50.32
50.68
50.72
50.96
51.67
52.88
54.43
56.14
57.86
59.45
60.73
61.44
61.29
60.05
57.67
54.34
50.37
46.12
41.85
37.65
33.44
29.09
24.5
19.72
14.92
10.3
6.0
1.98
-2.04
-6.39
-11.27
-16.65
-22.17
-27.4
-32.02
-36.04
-39.84
-44.07
-49.5
-56.75
-65.97
-76.7
-87.7
-97.08
-102.72
-102.83
-96.47
-84.0
-66.94
-47.64
-28.53
-11.51
2.45
13.29
21.57
27.94
32.8
36.23
38.13
38.59
38.04
37.26
37.05
37.87
39.68
42.02
44.24
45.87
46.8
47.17
47.23
47.07
46.56
45.35
43.05
39.43
34.55
28.83
22.93
17.54
13.1
9.61
6.59
3.28
-0.97
-6.43
-12.81
-19.47
-25.68
-30.95
-35.26
-38.98
-42.79
-47.4
-53.48
-61.4
-71.17
-82.11
-92.81
-101.19
-105.02
-102.56
-93.2
-77.86
-58.68
-38.38
-19.43
-3.4
9.22
18.82
26.13
31.88
36.49
40.14
42.91
44.93
46.37
47.48
48.45
49.36
50.27
51.13
51.95
52.76
53.58
54.44
55.26
55.84
55.83
54.88
52.74
49.37
45.01
40.04
34.86
29.75
24.83
20.18
15.88
12.01
8.6
5.5
2.32
-1.41
-6.09
-11.8
-18.3
