0
17.79
18.42
18.77
19.02
19.18
19.15
18.83
18.19
17.33
16.4
15.56
14.92
14.49
14.22
13.98
13.58
12.78
11.39
9.38
6.92
4.3
1.87
-0.18
-1.92
-3.57
-5.5
-7.93
-10.97
-14.56
-18.55
-22.72
-26.8
-30.38
-32.95
-33.98
-33.14
-30.36
-25.91
-20.29
-14.12
-7.93
-2.14
2.95
7.16
10.37
12.53
13.69
14.04
13.86
13.47
13.16
13.08
13.22
13.43
13.49
13.22
12.61
11.79
10.94
10.25
9.74
9.27
8.6
7.5
5.87
3.77
1.42
-0.94
-3.11
-5.03
-6.82
-8.74
-11.08
-14.11
-17.78
-21.82
-25.69
-28.67
-30.18
-29.85
-27.66
-23.9
-19.11
-13.83
-8.55
-3.59
0.9
4.86
8.25
11.05
13.2
14.6
15.3
15.42
15.16
14.72
14.21
13.64
12.91
11.96
10.82
9.71
8.84
8.37
8.23
8.09
7.57
6.34
4.36
1.85
-0.81
-3.27
-5.35
-7.13
-8.84
-10.84
-13.4
-16.71
-20.75
-25.23
-29.68
-33.44
-35.82
-36.32
-34.72
-31.17
-26.08
-20.01
-13.53
-7.14
-1.14
4.24
8.89
12.77
15.9
18.31
20.07
21.26
21.96
22.27
22.32
22.18
21.97
21.78
21.66
21.62
21.57
21.4
20.98
20.27
19.27
18.1
16.82
15.41
13.73
11.64
9.07
6.08
2.85
-0.44
-3.66
-6.77
-9.75
-12.54
-15.09
-17.45
-19.82
-22.53
-25.91
-30.05
-34.66
-39.07
-42.4
-43.85
-42.93
-39.61
-34.3
-27.63
-20.33
-13.03
-6.18
-0.0
5.43
10.15
14.17
17.45
19.98
21.71
22.77
23.34
23.63
23.75
23.74
23.58
23.25
22.86
22.6
22.63
22.96
23.46
23.8
23.73
23.06
21.77
19.97
17.81
15.5
13.22
11.14
9.29
7.54
5.65
3.29
0.32
-3.17
-6.86
-10.36
-13.36
-15.86
-18.13
-20.58
-23.6
-27.39
-31.86
-36.6
-41.0
-44.31
-45.89
-45.28
-42.35
-37.31
-30.65
-23.1
-15.31
-7.89
-1.19
4.58
9.35
13.14
16.0
18.05
19.42
20.31
20.84
21.1
21.1
20.88
20.57
20.4
20.63
21.39
22.6
23.95
25.13
25.85
26.02
25.68
24.87
23.63
21.98
19.98
17.76
15.51
13.4
11.42
9.46
7.34
4.94
2.29
-0.53
-3.39
-6.24
-9.2
-12.43
-16.07
-20.26
-25.0
-30.19
-35.59
-40.71
-44.93
-47.55
-48.02
-46.06
-41.82
-35.8
-28.71
-21.29
-14.12
-7.59
-1.84
3.14
7.42
11.02
13.87
15.93
17.24
18.0
18.55
19.25
20.25
21.47
22.62
23.47
23.91
24.1
24.33
24.81
25.52
26.19
26.45
25.99
24.68
22.65
20.2
17.66
15.25
13.04
10.87
8.53
5.82
2.69
-0.76
-4.34
-7.86
-11.21
-14.4
-17.47
-20.56
-23.77
-27.19
-30.95
-35.01
-39.22
-43.15
-46.19
-47.66
-47.08
-44.26
-39.39
-32.92
-25.47
-17.66
-10.05
-3.14
2.77
7.48
10.99
13.48
15.17
16.4
17.4
18.32
19.17
19.88
20.35
20.55
20.56
20.53
20.62
20.9
21.23
21.4
21.16
20.33
18.93
17.08
14.96
12.67
10.28
7.78
5.17
2.42
-0.52
-3.64
-6.85
-9.96
-12.7
-14.86
-16.42
-17.58
-18.76
-20.42
-22.84
-26.12
-30.08
-34.31
-38.25
-41.2
-42.44
-41.44
-38.07
-32.63
-25.9
-18.79
-12.08
-6.2
-1.19
3.11
6.93
10.34
13.29
15.69
17.41
18.43
18.85
18.82
18.51
18.1
17.66
17.26
16.87
16.46
15.98
15.41
14.77
14.06
13.25
12.29
11.14
9.72
8.0
6.02
3.86
1.66
-0.48
-2.53
-4.55
-6.68
-9.08
-11.89
-15.14
-18.83
-22.87
-27.02
-30.95
-34.19
-36.23
-36.61
-35.1
-31.74
-26.93
-21.18
-15.12
-9.23
-3.87
0.81
4.7
7.79
10.09
11.57
12.31
12.4
11.93
11.1
10.1
9.14
8.45
8.16
8.34
8.9
9.7
10.53
11.24
11.66
11.67
11.12
9.92
8.1
5.82
3.35
0.99
-1.11
-3.01
-5.0
-7.49
-10.88
-15.33
-20.71
-26.51
-31.97
-36.2
-38.47
-38.39
-35.98
-31.67
-26.11
-19.99
-13.89
-8.19
-3.12
1.24
4.89
7.86
10.2
11.93
13.11
13.8
14.1
14.11
13.95
13.69
13.36
12.96
12.56
12.23
12.01
11.85
11.57
10.94
9.77
8.04
5.84
3.34
0.7
-2.06
-4.94
-8.0
-11.33
-15.04
-19.24
-23.93
-28.9
-33.67
-37.52
-39.65
-39.48
-36.8
-31.89
-25.32
-17.86
-10.21
-2.92
3.65
9.35
14.12
17.96
20.91
23.01
24.3
24.85
24.82
24.34
23.59
22.63
21.53
20.32
19.05
17.78
16.56
15.39
14.21
12.9
11.34
9.47
7.24
4.66
1.79
-1.27
-4.37
-7.39
-10.28
-13.17
-16.33
-20.11
-24.7
-29.94
-35.26
-39.77
-42.54
-42.9
-40.6
-35.93
-29.48
-21.94
-13.94
-5.95
1.77
9.02
15.6
21.27
25.8
29.06
31.05
32.01
32.22
32.03
31.67
31.26
30.84
30.42
30.05
29.76
29.49
29.15
28.6
27.7
26.43
24.82
22.94
20.73
18.11
15.01
11.48
7.66
3.8
0.05
-3.51
-6.95
-10.4
-14.03
-17.98
-22.32
-27.04
-31.86
-36.29
-39.63
-41.09
-40.09
-36.46
-30.5
-22.84
-14.36
-5.83
2.19
9.36
15.55
20.66
24.62
27.32
28.72
28.93
28.25
27.11
25.92
24.98
24.42
24.2
24.23
24.42
24.68
24.92
25.06
25.01
24.73
24.24
23.58
22.75
21.71
20.38
18.7
16.73
14.55
12.27
9.98
7.66
5.27
2.76
0.16
-2.56
-5.42
-8.54
-12.06
-16.13
-20.79
-25.85
-30.87
-35.17
-37.94
-38.46
-36.31
-31.55
-24.75
-16.85
-8.86
-1.55
4.75
10.09
14.64
18.52
21.62
23.67
24.5
24.2
23.18
22.04
21.24
20.99
21.18
21.46
21.57
21.35
20.84
20.14
19.35
18.52
17.61
16.53
15.2
13.54
11.54
9.23
6.76
4.26
1.88
-0.3
-2.23
-3.97
-5.6
-7.26
-9.17
-11.56
-14.66
-18.53
-23.03
-27.73
-31.96
-34.98
-36.16
-35.14
-31.91
-26.81
-20.36
-13.17
-5.77
1.36
7.9
13.57
18.2
21.71
24.15
25.66
26.44
26.7
26.63
26.38
26.08
25.83
25.64
25.43
25.05
24.36
23.35
22.08
20.72
19.38
18.06
16.63
14.9
12.78
10.22
7.37
4.38
1.43
-1.4
-4.14
-6.83
-9.59
-12.49
-15.62
-19.07
-22.89
-27.12
-31.67
-36.26
-40.41
-43.46
-44.64
-43.41
-39.53
-33.24
-25.29
-16.7
-8.52
-1.52
3.97
8.03
11.04
13.39
15.32
16.9
18.08
18.81
19.15
19.21
19.17
19.12
19.14
19.2
19.32
19.47
19.67
19.86
19.95
19.8
19.26
18.21
16.59
14.45
11.9
9.11
6.18
3.19
0.18
-2.87
-5.89
-8.76
-11.38
-13.72
-15.92
-18.29
-21.2
-24.91
-29.41
-34.31
-38.91
-42.34
-43.81
-42.84
-39.41
-33.95
-27.14
-19.73
-12.39
-5.54
0.61
6.0
10.67
14.6
17.78
20.21
21.89
22.88
23.26
23.2
22.87
22.44
22.05
21.76
21.61
21.57
21.59
21.59
21.46
21.06
20.26
19.04
17.4
15.47
13.38
11.26
9.12
6.88
4.42
1.67
-1.37
-4.55
-7.7
-10.7
-13.52
-16.21
-18.95
-21.93
-25.32
-29.2
-33.48
-37.84
-41.73
-44.49
-45.38
-43.94
-40.07
-34.13
-26.87
-19.18
-11.84
-5.39
0.05
4.57
8.39
11.61
14.17
15.97
16.94
17.21
17.06
16.82
16.72
16.79
16.97
17.15
17.34
17.56
17.85
18.12
18.17
17.8
16.86
15.37
13.37
10.93
8.1
4.96
1.64
-1.62
-4.65
-7.32
-9.64
-11.72
-13.7
-15.75
-18.02
-20.68
-23.89
-27.56
-31.37
-34.69
-36.78
-37.02
-35.15
-31.29
-25.9
-19.59
-12.98
-6.58
-0.75
4.32
8.58
12.05
14.79
16.78
17.99
18.39
18.1
17.33
16.38
15.51
14.8
14.24
13.76
13.3
12.87
12.44
11.94
11.22
10.07
8.37
6.12
3.41
0.47
-2.49
-5.29
-7.85
-10.21
-12.53
-15.0
-17.85
-21.15
-24.84
-28.61
-31.95
-34.3
-35.11
-34.03
-30.98
-26.21
-20.24
-13.73
-7.31
-1.45
3.56
7.64
10.76
12.95
14.19
14.54
14.1
13.12
11.83
10.52
9.38
8.55
8.07
7.91
8.0
8.15
8.18
7.87
7.1
5.86
4.21
2.28
0.19
-1.98
-4.27
-6.74
-9.5
-12.63
-16.16
-20.07
-24.25
-28.46
-32.34
-35.37
-36.94
-36.57
-34.01
-29.41
-23.39
-16.71
-10.16
-4.25
0.85
5.18
8.88
11.91
14.17
15.5
15.9
15.61
14.99
14.4
14.07
14.01
14.12
14.23
14.24
14.03
13.5
12.53
11.04
9.04
6.69
4.23
1.85
-0.41
-2.63
-5.02
-7.77
-10.99
-14.67
-18.67
-22.75
-26.47
-29.28
-30.5
-29.57
-26.25
-20.78
-13.86
-6.4
0.68
6.84
11.87
15.9
19.12
21.63
23.45
24.45
24.62
24.09
23.17
22.22
21.48
21.02
20.69
20.25
19.57
18.68
17.75
16.92
16.25
15.61
14.77
13.51
11.75
9.53
6.96
4.18
1.29
-1.63
-4.47
-7.19
-9.82
-12.55
-15.62
-19.26
-23.49
-28.06
-32.35
-35.55
-36.87
-35.79
-32.2
-26.46
-19.29
-11.57
-4.11
2.55
8.14
12.65
16.12
18.61
20.2
21.01
21.27
21.23
21.13
21.09
21.11
21.1
21.01
20.8
20.52
20.23
19.96
19.67
19.27
18.65
17.77
16.62
15.28
13.86
12.43
11.0
9.41
7.45
4.93
1.83
-1.65
-5.17
-8.41
-11.23
-13.73
-16.23
-19.06
-22.44
-26.44
-30.83
-35.2
-38.97
-41.45
-42.0
-40.23
-36.1
-29.98
-22.55
-14.57
-6.79
0.24
6.23
11.03
14.72
17.44
19.44
20.86
21.78
22.2
22.09
21.58
20.88
20.25
19.91
19.89
20.06
20.22
20.21
20.01
19.66
19.14
18.42
17.34
15.84
13.98
11.92
9.83
7.77
5.66
3.33
0.64
-2.39
-5.62
-8.85
-11.91
-14.77
-17.57
-20.5
-23.78
-27.5
-31.46
-35.2
-37.97
-39.0
-37.7
-33.95
-28.1
-20.88
-13.14
-5.64
1.13
6.88
11.49
14.97
17.38
18.93
19.83
20.38
20.78
21.13
21.44
21.65
21.71
21.64
21.49
21.32
21.22
21.19
21.23
21.28
21.3
21.14
20.68
19.77
18.36
16.49
14.33
12.04
9.79
7.59
5.41
3.11
0.65
-1.99
-4.74
-7.52
-10.31
-13.13
-16.06
-19.24
-22.78
-26.75
-30.98
-35.09
-38.41
-40.19
-39.81
-36.98
-31.86
-25.05
-17.39
-9.8
-3.04
2.46
6.66
9.82
12.32
14.48
16.44
18.14
19.44
20.26
20.66
20.81
20.84
20.76
20.47
19.88
18.98
17.9
16.87
16.05
15.47
15.0
14.46
13.63
12.41
10.8
8.89
6.76
4.54
2.32
0.14
-1.96
-3.99
-5.95
-7.82
-9.64
-11.5
-13.57
-16.02
-19.01
-22.49
-26.21
-29.64
-32.17
-33.2
-32.32
-29.43
-24.82
-19.06
-12.85
-6.84
-1.45
3.11
6.8
9.65
11.67
12.88
13.36
13.32
12.98
12.57
12.26
12.17
12.36
12.85
13.62
14.55
15.38
15.81
15.62
14.77
13.43
11.85
10.26
8.73
7.17
5.47
3.57
1.52
-0.55
-2.55
-4.41
-6.2
-8.0
-9.95
-12.1
-14.45
-17.02
-19.75
-22.67
-25.78
-28.94
-31.88
-34.08
-34.95
-33.99
-31.05
-26.39
-20.63
-14.51
-8.68
-3.45
1.09
5.02
8.41
11.19
13.24
14.38
14.6
14.02
13.0
11.91
11.06
10.54
10.26
10.0
9.57
8.88
8.02
7.14
6.31
5.55
4.78
3.91
2.9
1.78
0.61
-0.57
-1.71
-2.84
-4.0
-5.29
-6.89
-8.97
-11.67
-15.04
-19.0
-23.36
-27.75
-31.74
-34.83
-36.56
-36.57
-34.75
-31.22
-26.38
-20.73
-14.83
-9.11
-3.89
0.64
4.41
7.39
9.59
11.06
11.87
12.09
11.9
11.47
11.01
10.65
10.39
10.1
9.63
8.86
7.87
6.86
6.04
5.58
5.43
5.42
5.25
4.72
3.69
2.21
0.4
-1.64
-3.83
-6.14
-8.55
-11.06
-13.67
-16.47
-19.59
-23.14
-27.09
-31.11
-34.6
-36.83
-37.17
-35.36
-31.62
-26.58
-21.01
-15.56
-10.57
-6.04
-1.82
2.17
5.93
9.22
11.79
13.5
14.42
14.76
14.83
14.89
15.0
15.18
15.32
15.4
15.46
15.63
15.92
16.24
16.34
15.93
14.8
12.97
10.63
8.05
5.52
3.19
1.12
-0.74
-2.48
-4.19
-6.06
-8.28
-11.09
-14.52
-18.44
-22.42
-25.78
-27.82
-27.97
-26.02
-22.16
-16.91
-10.97
-5.02
0.45
5.17
9.04
12.08
14.31
15.76
16.45
16.48
16.0
15.2
14.25
13.23
12.16
11.08
10.03
9.09
8.35
7.85
7.54
7.29
6.9
6.17
4.95
3.18
0.92
-1.61
-4.2
-6.61
-8.79
-10.86
-13.1
-15.83
-19.22
-23.13
-27.07
-30.35
-32.25
-32.24
-30.13
-26.13
-20.71
-14.52
-8.2
-2.19
3.22
7.92
11.81
14.8
16.78
17.69
17.66
16.92
15.82
14.7
13.77
13.1
12.61
12.15
11.54
10.68
9.57
8.24
6.77
5.2
3.51
1.62
-0.58
-3.16
-6.15
-9.56
-13.35
-17.46
-21.69
-25.63
-28.73
-30.31
-29.89
-27.29
-22.75
-16.89
-10.46
-4.2
1.42
6.2
10.17
13.45
16.11
18.11
19.4
19.92
19.75
19.03
18.04
17.06
16.28
15.74
15.33
14.85
14.1
12.98
11.51
9.84
8.1
6.3
4.37
2.1
-0.66
-3.93
-7.65
-11.64
-15.73
-19.75
-23.46
-26.48
-28.31
-28.41
-26.46
-22.46
-16.8
-10.21
-3.45
2.82
8.26
12.8
16.51
19.59
22.12
24.12
25.56
26.43
26.79
26.76
26.49
26.07
25.51
24.81
23.96
23.0
21.99
20.97
19.89
18.61
16.92
14.69
11.86
8.56
4.96
1.33
-2.14
-5.37
-8.41
-11.53
-15.02
-19.17
-23.98
-29.06
-33.73
-37.14
-38.51
-37.41
-33.84
-28.27
-21.4
-14.01
-6.74
-0.03
5.94
11.16
15.74
19.73
23.14
25.89
27.88
29.08
29.57
29.54
29.21
28.82
28.49
28.31
28.3
28.43
28.61
28.68
28.52
27.99
27.01
25.6
23.8
21.68
19.33
16.81
14.18
11.45
8.58
5.47
2.05
-1.62
-5.34
-8.79
-11.73
-14.14
-16.24
-18.45
-21.22
-24.76
-29.04
-33.69
-38.1
-41.54
-43.29
-42.86
-40.09
-35.23
-28.9
-21.85
-14.83
-8.29
-2.43
2.73
7.27
11.21
14.57
17.37
19.72
21.72
23.44
24.85
25.87
26.47
26.7
26.72
26.7
26.74
26.79
26.74
26.46
25.91
25.06
23.91
22.38
20.42
18.01
15.33
12.64
10.19
8.04
6.04
3.91
1.43
-1.42
-4.45
-7.33
-9.83
-11.94
-13.89
-16.12
-19.01
-22.78
-27.37
-32.48
-37.6
-42.17
-45.58
-47.34
-47.02
-44.44
-39.6
-32.84
-24.75
-16.13
-7.81
-0.4
5.72
10.53
14.23
17.09
19.37
21.16
22.5
23.38
23.85
24.02
24.04
23.97
23.81
23.48
22.94
22.24
21.56
21.13
21.06
21.23
21.31
20.87
19.65
17.65
15.14
12.44
9.81
7.29
4.75
2.04
-0.9
-3.96
-6.94
-9.67
-12.09
-14.27
-16.33
-18.47
-20.88
-23.75
-27.21
-31.28
-35.75
-40.18
-43.9
-46.15
-46.28
-43.96
-39.25
-32.63
-24.88
-16.88
-9.37
-2.82
2.64
7.12
10.83
13.99
16.7
18.97
20.78
22.09
22.89
23.21
23.12
22.74
22.26
21.82
21.61
21.68
21.97
22.26
22.37
22.06
21.26
20.0
18.39
16.62
14.87
13.24
11.67
10.01
8.02
5.49
2.36
-1.27
-5.15
-8.99
-12.61
-15.94
-19.1
-22.27
-25.63
-29.32
-33.31
-37.41
-41.16
-43.92
-45.07
-44.11
-40.93
-35.82
-29.42
-22.4
-15.39
-8.78
-2.8
2.44
6.88
10.5
13.36
15.52
17.07
18.12
18.76
19.11
19.3
19.46
19.58
19.6
19.36
18.73
17.76
16.63
15.59
14.78
14.23
13.75
13.14
12.21
10.85
9.05
6.82
4.26
1.48
-1.36
-4.13
-6.83
-9.57
-12.45
-15.64
-19.21
-23.18
-27.47
-31.88
-36.0
-39.23
-40.82
-40.18
-37.07
-31.75
-24.93
-17.48
-10.17
-3.46
2.43
7.42
11.48
14.55
16.61
17.75
18.15
18.08
17.8
17.5
17.32
17.26
17.29
17.31
17.2
16.9
16.39
15.75
15.09
14.43
13.74
12.91
11.8
10.28
8.33
6.0
3.38
0.58
-2.26
-5.08
-7.85
-10.67
-13.68
-17.09
-21.01
-25.36
-29.84
-33.93
-36.96
-38.21
-37.26
-33.98
-28.74
-22.21
-15.23
-8.54
-2.56
2.54
6.82
10.3
12.98
14.78
15.69
15.88
15.71
15.65
16.0
16.86
18.04
19.2
19.99
20.19
19.85
19.1
18.17
17.17
16.11
14.87
13.27
11.16
8.51
5.41
2.08
-1.21
-4.28
-7.03
-9.61
-12.23
-15.11
-18.45
-22.29
-26.51
-30.8
-34.69
-37.59
-38.89
-38.15
-35.22
-30.29
-23.9
-16.73
-9.48
-2.68
3.39
8.56
12.82
16.16
18.54
19.98
20.52
20.36
19.83
19.3
19.09
19.31
19.83
20.34
20.55
20.35
19.78
19.04
18.29
17.59
16.82
15.74
14.14
11.88
8.99
5.63
2.06
-1.47
-4.8
-7.96
-11.27
-15.08
-19.65
-24.96
-30.58
-35.8
-39.79
-41.87
-41.65
-39.07
-34.42
-28.2
-21.07
-13.73
-6.73
-0.5
4.77
9.04
12.38
14.85
16.57
17.68
18.37
18.86
19.29
19.7
19.98
20.02
19.72
19.17
18.6
18.25
18.22
18.36
18.33
17.68
16.1
13.55
10.26
6.61
2.99
-0.34
-3.37
-6.27
-9.32
-12.78
-16.85
-21.5
-26.51
-31.36
-35.33
-37.67
-37.72
-35.26
-30.45
-23.96
-16.6
-9.19
-2.31
3.76
8.92
13.18
16.48
18.85
20.36
21.18
21.58
21.8
21.93
21.94
21.74
21.28
20.62
19.9
19.26
18.75
18.35
17.94
17.35
16.38
14.86
12.69
9.9
6.62
3.1
-0.45
-3.92
-7.36
-10.89
-14.71
-18.92
-23.49
-28.21
-32.68
-36.36
-38.62
-38.92
-36.93
-32.71
-26.66
-19.45
-11.86
-4.55
2.01
7.55
11.98
15.3
17.57
18.88
19.36
19.18
18.58
17.87
17.29
16.98
16.87
16.78
16.48
15.85
14.94
13.87
12.75
11.58
10.21
8.5
6.37
3.88
1.16
-1.66
-4.52
-7.44
-10.51
-13.85
-17.53
-21.53
-25.67
-29.51
-32.41
-33.68
-32.78
-29.54
-24.22
-17.45
-10.04
-2.78
3.73
9.18
13.46
16.69
18.99
20.52
21.34
21.52
21.09
20.15
18.93
17.69
16.64
15.88
15.36
14.92
14.4
13.7
12.8
11.72
10.45
8.98
7.28
5.31
3.08
0.64
-1.98
-4.81
-8.0
-11.75
-16.2
-21.26
-26.52
-31.19
-34.35
-35.19
-33.34
-28.99
-22.84
-15.81
-8.74
-2.26
3.33
7.95
11.59
14.31
16.19
17.31
17.81
17.85
17.61
17.27
16.97
16.82
16.84
16.95
17.09
17.25
17.45
17.72
17.94
17.87
17.17
15.63
13.19
10.11
6.75
3.42
0.24
-2.81
-5.9
-9.2
-12.85
-16.99
-21.68
-26.79
-31.86
-36.12
-38.67
-38.78
-36.24
-31.37
-24.95
-17.85
-10.76
-4.08
2.04
7.52
12.22
15.98
18.69
20.36
21.17
21.41
21.39
21.33
21.33
21.32
21.1
20.53
19.54
18.28
17.03
16.09
15.56
15.29
14.93
14.05
12.42
10.01
7.05
3.88
0.81
-1.99
-4.47
-6.7
-8.86
-11.19
-13.94
-17.34
-21.49
-26.27
-31.24
-35.72
-38.83
-39.79
-38.15
-33.94
-27.69
-20.26
-12.56
-5.31
1.09
6.55
11.13
14.9
17.94
20.27
21.97
23.17
24.05
24.76
25.35
25.76
25.95
25.85
25.49
24.94
24.27
23.54
22.7
21.61
20.14
18.15
15.68
12.86
9.92
7.07
4.42
1.95
-0.43
-2.81
-5.21
-7.52
-9.65
-11.57
-13.39
-15.33
-17.69
-20.67
-24.36
-28.62
-33.09
-37.16
-40.11
-41.23
-40.09
-36.61
-31.15
-24.38
-17.03
-9.76
-2.98
3.14
8.51
13.05
16.68
19.28
20.82
21.38
21.14
20.36
19.35
18.36
17.55
16.94
16.49
16.07
15.61
15.05
14.41
13.7
12.92
11.96
10.67
8.91
6.63
3.94
1.03
-1.82
-4.39
-6.49
-8.16
-9.48
-10.68
-12.04
-13.84
-16.33
-19.58
-23.45
-27.48
-31.05
-33.41
-33.94
-32.31
-28.58
-23.13
-16.61
-9.75
-3.24
2.43
6.99
10.41
12.83
14.48
15.59
16.35
16.88
17.34
17.83
18.48
19.29
20.11
20.71
20.83
20.32
19.26
17.87
16.38
14.96
13.55
12.03
10.24
8.09
5.63
2.98
0.32
-2.18
-4.44
-6.39
-8.06
-9.59
-11.23
-13.36
-16.32
-20.25
-24.95
-29.83
-34.09
-36.9
-37.67
-36.17
-32.54
-27.2
-20.67
-13.54
-6.33
0.47
6.49
11.5
15.41
18.25
20.06
20.93
20.93
20.23
19.07
17.76
16.63
15.83
15.42
15.33
15.4
15.52
15.55
15.4
14.98
14.18
12.9
11.06
8.58
5.48
1.93
-1.79
-5.31
-8.29
-10.62
-12.38
-13.87
-15.44
-17.45
-20.13
-23.55
-27.57
-31.76
-35.49
-37.92
-38.33
-36.31
-31.98
-25.95
-19.09
-12.18
-5.69
0.18
5.4
9.9
13.54
16.18
17.85
18.74
19.22
19.54
19.82
19.93
19.74
19.18
18.36
17.49
16.73
16.17
15.8
15.53
15.28
14.93
14.34
13.31
11.68
9.36
6.41
3.04
-0.48
-3.83
-6.74
-9.1
-10.96
-12.59
-14.39
-16.81
-20.15
-24.44
-29.39
-34.36
-38.56
-41.16
-41.52
-39.34
-34.76
-28.35
-20.94
-13.4
-6.42
-0.4
4.58
8.64
11.92
14.52
16.45
17.68
18.22
18.18
17.71
17.08
16.47
16.02
15.73
15.49
15.22
14.88
14.56
14.36
14.34
14.39
14.22
13.56
12.19
10.16
7.68
5.03
2.43
-0.0
-2.31
-4.55
-6.84
-9.34
-12.26
-15.84
-20.26
-25.5
-31.2
-36.69
-41.11
-43.57
-43.47
-40.66
-35.44
-28.51
-20.72
-12.89
-5.61
0.8
6.19
10.47
13.61
15.57
16.44
16.46
16.01
15.47
15.12
15.01
15.04
15.02
14.78
14.3
13.63
12.85
12.03
11.17
10.21
9.08
7.67
5.92
3.77
1.3
-1.34
-3.92
-6.25
-8.26
-10.15
-12.21
-14.81
-18.16
-22.18
-26.45
-30.35
-33.17
-34.27
-33.24
-30.01
-24.89
-18.48
-11.58
-4.91
1.0
5.95
9.96
13.14
15.58
17.27
18.18
18.37
18.06
17.52
17.09
16.98
17.2
17.62
18.0
18.19
18.13
17.89
17.52
17.04
16.32
15.11
13.2
10.54
7.28
3.76
0.36
-2.75
-5.61
-8.5
-11.77
-15.7
-20.29
-25.29
-30.19
-34.33
-37.1
-37.98
-36.75
-33.46
-28.48
-22.36
-15.73
-9.19
-3.23
1.91
6.14
9.52
12.19
14.26
15.81
16.92
17.65
18.11
18.46
18.8
19.16
19.49
19.7
19.77
19.76
19.8
19.89
19.87
19.39
18.1
15.79
12.56
8.76
4.81
1.08
-2.3
-5.36
-8.27
-11.21
-14.33
-17.74
-21.49
-25.51
-29.45
-32.73
-34.64
-34.56
-32.18
-27.66
-21.55
-14.64
-7.63
-1.05
4.81
9.84
13.94
17.01
18.97
19.88
19.91
19.44
18.89
18.54
18.5
18.6
18.6
18.25
17.53
16.57
15.58
14.69
13.89
13.01
11.89
10.4
8.53
6.32
3.79
0.95
-2.13
-5.29
-8.27
-10.92
-13.29
-15.75
-18.7
-22.43
-26.75
-31.02
-34.31
-35.7
-34.64
-31.06
-25.38
-18.25
-10.49
-2.84
4.11
9.96
14.54
17.83
19.97
21.2
21.78
21.93
21.89
21.76
21.57
21.3
20.86
20.15
19.15
17.96
16.71
15.54
14.54
13.66
12.77
11.66
10.11
8.01
5.4
2.47
-0.48
-3.22
-5.67
-8.0
-10.53
-13.56
-17.27
-21.54
-25.95
-29.86
-32.55
-33.48
-32.31
-29.13
-24.34
-18.51
-12.29
-6.22
-0.66
4.18
8.22
11.46
13.91
15.64
16.79
17.51
17.93
18.12
18.09
17.85
17.47
17.0
16.55
16.08
15.54
14.75
13.54
11.87
9.79
7.43
4.94
2.46
-0.02
-2.54
-5.23
-8.19
-11.52
-15.28
-19.42
-23.7
-27.71
-30.86
-32.52
-32.2
-29.68
-25.15
-19.1
-12.23
-5.25
1.26
6.94
11.64
15.36
18.14
20.03
21.1
21.46
21.27
20.74
20.07
19.41
18.83
18.32
17.84
17.38
16.93
16.54
16.2
15.83
15.25
14.2
12.45
9.89
6.61
2.86
-1.03
-4.79
-8.34
-11.8
-15.38
-19.23
-23.33
-27.37
-30.88
-33.27
-34.06
-32.98
-29.99
-25.35
-19.5
-13.03
-6.48
-0.31
5.2
9.88
13.65
16.44
18.22
19.04
19.05
18.53
17.79
17.15
16.82
16.88
17.26
17.8
18.25
18.43
18.19
17.53
16.51
15.2
13.66
11.87
9.77
7.33
4.6
1.75
-1.05
-3.71
-6.28
-8.96
-12.03
-15.7
-19.94
-24.49
-28.81
-32.2
-33.97
-33.68
-31.19
-26.74
-20.86
-14.21
-7.45
-1.13
4.45
9.18
13.12
16.37
18.95
20.82
21.85
21.98
21.31
20.18
19.09
18.43
18.36
18.69
19.03
19.03
18.57
17.83
17.08
16.45
15.81
14.8
13.07
10.5
7.26
3.81
0.57
-2.25
-4.68
-6.94
-9.28
-11.84
-14.69
-17.83
-21.26
-24.96
-28.72
-32.17
-34.74
-35.84
-35.04
-32.24
-27.71
-22.04
-15.87
-9.78
-4.11
0.98
5.47
9.33
12.52
15.0
16.78
18.03
18.94
19.71
20.41
20.98
21.32
21.3
20.86
20.06
19.02
17.91
16.84
15.91
15.11
14.29
13.21
11.6
9.31
6.41
3.2
0.11
-2.6
-4.86
-6.84
-8.89
-11.27
-14.16
-17.6
-21.49
-25.62
-29.64
-33.04
-35.19
-35.52
-33.67
-29.66
-23.91
-17.08
-9.89
-3.01
3.1
8.21
12.24
15.22
17.21
18.28
18.5
18.04
17.19
16.28
15.61
15.32
15.35
15.47
15.48
15.3
14.96
14.63
14.41
14.25
13.99
13.39
12.25
10.49
8.16
5.45
2.6
-0.1
-2.45
-4.38
-6.01
-7.63
-9.66
-12.4
-16.04
-20.42
-25.18
-29.69
-33.19
-34.96
-34.45
-31.55
-26.57
-20.17
-13.19
-6.4
-0.31
4.85
8.99
12.09
14.12
15.12
15.24
14.79
14.16
13.66
13.45
13.45
13.52
13.52
13.38
13.12
12.8
12.46
12.11
11.73
11.24
10.5
9.33
7.55
5.09
1.98
-1.5
-5.02
-8.25
-10.97
-13.23
-15.21
-17.26
-19.73
-22.76
-26.29
-29.87
-32.87
-34.52
-34.28
-31.93
-27.76
-22.29
-16.25
-10.19
-4.53
0.5
4.81
8.3
10.88
12.53
13.29
13.35
12.99
12.53
12.23
12.29
12.64
13.13
13.48
13.5
13.16
12.63
12.19
11.99
11.96
11.77
11.02
9.47
7.19
4.43
1.64
-0.95
-3.28
-5.49
-7.89
-10.73
-14.22
-18.41
-23.09
-27.77
-31.73
-34.13
-34.38
-32.31
-28.23
-22.81
-16.78
-10.69
-4.91
0.34
4.86
8.46
11.05
12.67
13.57
14.09
14.48
14.88
15.27
15.56
15.73
15.76
15.71
15.57
15.34
14.98
14.51
13.97
13.34
12.52
11.33
9.58
7.19
4.27
1.1
-2.06
-4.99
-7.67
-10.27
-13.05
-16.23
-19.95
-24.16
-28.61
-32.82
-36.14
-37.91
-37.66
-35.24
-30.91
-25.23
-18.86
-12.34
-6.08
-0.26
4.95
9.37
12.8
15.03
16.05
16.07
15.5
14.87
14.55
14.71
15.23
15.82
16.16
16.07
15.53
14.66
13.68
12.71
11.81
10.89
9.83
8.48
6.73
4.53
1.93
-0.87
-3.68
-6.32
-8.74
-11.01
-13.38
-16.12
-19.4
-23.23
-27.31
-31.07
-33.76
-34.65
-33.32
-29.71
-24.25
-17.63
-10.65
-3.97
1.97
6.99
11.02
14.09
16.23
17.58
18.24
18.34
18.04
17.46
16.7
15.89
15.12
14.43
13.8
13.19
12.52
11.79
10.97
10.07
9.0
7.72
6.15
4.29
2.24
0.17
-1.76
-3.46
-4.99
-6.54
-8.38
-10.76
-13.89
-17.76
-22.09
-26.32
-29.72
-31.51
-31.15
-28.51
-23.85
-17.78
-11.03
-4.31
1.84
7.07
11.23
14.3
16.34
17.5
17.97
17.94
17.62
17.19
16.83
16.66
16.69
16.85
17.0
17.02
16.89
16.67
16.42
16.18
15.81
15.14
13.94
12.09
9.59
6.6
3.35
0.06
-3.18
-6.44
-9.91
-13.77
-18.07
-22.55
-26.66
-29.73
-31.12
-30.45
-27.71
-23.26
-17.68
-11.65
-5.73
-0.28
4.48
8.53
11.78
14.17
15.57
15.97
15.54
14.69
13.92
13.67
14.06
14.88
15.73
16.22
16.21
15.82
15.28
14.87
14.64
14.5
14.2
13.54
12.39
10.73
8.67
6.31
3.8
1.19
-1.45
-4.14
-6.98
-10.05
-13.5
-17.42
-21.78
-26.34
-30.58
-33.78
-35.17
-34.17
-30.69
-25.1
-18.18
-10.8
-3.71
2.65
8.09
12.52
15.88
18.14
19.31
19.59
19.29
18.78
18.38
18.23
18.3
18.47
18.62
18.7
18.74
18.79
18.85
18.82
18.55
17.92
16.86
15.41
13.72
11.94
10.2
8.56
6.98
5.34
3.51
1.37
-1.1
-3.8
-6.54
-9.09
-11.3
-13.19
-14.97
-16.99
-19.62
-23.09
-27.38
-32.02
-36.28
-39.22
-40.05
-38.33
-34.07
-27.85
-20.51
-12.96
-5.92
0.18
5.21
9.2
12.25
14.45
15.88
16.66
16.99
17.1
17.22
17.49
17.9
18.37
18.79
19.09
19.33
19.62
19.98
20.35
20.52
20.27
19.41
17.96
16.04
13.89
11.68
9.48
7.27
4.97
2.48
-0.15
-2.82
-5.36
-7.62
-9.61
-11.45
-13.32
-15.45
-18.05
-21.26
-25.14
-29.54
-34.08
-38.05
-40.58
-40.88
-38.54
-33.74
-27.22
-19.99
-12.93
-6.59
-1.05
3.81
8.12
11.86
14.88
17.07
18.42
19.12
19.41
19.5
19.44
19.21
18.78
18.16
17.59
17.22
17.13
17.26
17.33
17.04
16.19
14.78
12.95
10.97
9.05
7.27
5.52
3.67
1.6
-0.63
-2.87
-5.0
-7.0
-9.06
-11.54
-14.74
-18.76
-23.49
-28.52
-33.32
-37.31
-39.98
-40.91
-39.84
-36.71
-31.75
-25.47
-18.54
-11.7
-5.55
-0.4
3.71
6.94
9.48
11.53
13.13
14.27
14.89
15.02
14.79
14.42
14.15
14.15
14.43
14.89
15.35
15.65
15.69
15.46
15.01
14.33
13.41
12.18
10.56
8.53
6.13
3.49
0.74
-2.03
-4.78
-7.58
-10.58
-13.92
-17.69
-21.81
-26.07
-30.09
-33.41
-35.55
-36.06
-34.66
-31.33
-26.37
-20.34
-13.94
-7.83
-2.41
2.18
5.95
9.01
11.35
12.95
13.76
13.86
13.48
12.95
12.59
12.67
13.25
14.28
15.54
16.78
17.76
18.35
18.52
18.29
17.73
16.82
15.46
13.61
11.29
8.54
5.55
2.46
-0.64
-3.7
-6.74
-9.77
-12.85
-16.06
-19.6
-23.59
-28.05
-32.77
-37.24
-40.78
-42.68
-42.42
-39.83
-35.15
-28.97
-22.04
-15.11
-8.67
-2.98
1.97
6.27
9.99
13.1
15.51
17.13
17.94
18.1
17.79
17.24
16.59
15.99
15.47
15.09
14.82
14.65
14.55
14.43
14.23
13.86
13.23
12.3
11.02
9.4
7.45
5.22
2.79
0.32
-2.06
-4.16
-5.97
-7.6
-9.37
-11.62
-14.68
-18.63
-23.28
-28.21
-32.83
-36.47
-38.55
-38.56
-36.3
-31.85
-25.69
-18.59
-11.37
-4.67
1.16
6.04
10.06
13.34
15.89
17.72
18.84
19.33
19.37
19.18
18.95
18.81
18.86
19.14
19.61
20.17
20.66
20.92
20.86
20.43
19.69
18.64
17.26
15.51
13.3
10.6
7.47
4.04
0.49
-3.0
-6.34
-9.58
-12.88
-16.51
-20.66
-25.33
-30.3
-35.06
-38.96
-41.36
-41.74
-39.94
-36.03
-30.43
-23.73
-16.61
-9.69
-3.39
2.14
6.9
10.99
14.48
17.3
19.37
20.63
21.14
21.1
20.7
20.12
19.4
18.56
17.65
16.81
16.2
15.87
15.69
15.36
14.55
13.05
10.84
8.05
4.95
1.78
-1.31
-4.26
-7.09
-9.96
-13.06
-16.65
-20.88
-25.71
-30.79
-35.52
-39.11
-40.81
-40.1
-36.87
-31.41
-24.28
-16.26
-8.04
-0.19
6.91
13.02
17.94
21.58
23.92
25.12
25.44
25.22
24.73
24.14
23.53
22.84
22.06
21.21
20.32
19.46
18.66
17.88
17.03
15.98
14.57
12.7
10.35
7.57
4.5
1.31
-1.91
-5.17
-8.59
-12.38
-16.74
-21.65
-26.86
-31.72
-35.4
-37.07
-36.23
-32.86
-27.46
-20.77
-13.61
