0
-27.55
-32.69
-39.0
-46.8
-56.08
-66.33
-76.46
-84.71
-88.92
-87.19
-78.58
-63.61
-44.22
-23.25
-3.45
13.2
25.9
34.71
40.15
42.74
42.79
40.63
36.8
32.22
28.06
25.4
24.84
26.36
29.28
32.58
35.34
37.02
37.61
37.41
36.77
35.78
34.12
31.27
26.76
20.48
12.84
4.68
-3.02
-9.51
-14.57
-18.58
-22.36
-26.98
-33.33
-41.89
-52.43
-63.96
-74.73
-82.54
-85.21
-81.2
-70.16
-53.2
-32.68
-11.56
7.47
22.64
33.4
40.19
43.85
45.15
44.61
42.51
39.25
35.46
31.99
29.71
29.17
30.39
32.92
36.02
38.93
41.08
42.19
42.14
40.95
38.63
35.22
30.76
25.38
19.28
12.65
5.71
-1.33
-8.31
-15.03
-21.28
-26.95
-32.12
-37.11
-42.5
-49.02
-57.28
-67.5
-79.14
-90.8
-100.31
-105.2
-103.47
-94.21
-78.08
-57.17
-34.4
-12.67
5.84
20.13
30.2
36.68
40.31
41.76
41.48
39.98
37.84
35.82
34.64
34.79
36.4
39.21
42.7
46.22
49.21
51.22
51.98
51.4
49.47
46.31
42.1
37.02
31.29
25.14
18.76
12.32
5.94
-0.31
-6.43
-12.32
-17.9
-23.06
-27.85
-32.54
-37.63
-43.79
-51.68
-61.56
-72.96
-84.52
-94.03
-98.93
-97.14
-87.8
-71.71
-51.2
-29.36
-9.12
7.56
19.96
28.31
33.26
35.42
35.25
33.2
29.98
26.56
24.01
23.17
24.39
27.35
31.23
35.04
37.96
39.57
39.95
39.48
38.58
37.41
35.76
33.12
28.96
23.14
15.96
8.21
0.82
-5.52
-10.58
-14.68
-18.52
-22.97
-28.84
-36.58
-46.19
-56.83
-66.95
-74.35
-76.83
-72.84
-62.09
-45.75
-26.14
-6.02
12.21
27.01
37.84
44.84
48.45
49.15
47.37
43.66
38.85
34.02
30.35
28.78
29.68
32.74
37.06
41.48
44.96
46.82
46.86
45.27
42.43
38.74
34.45
29.63
24.17
17.93
10.85
3.13
-4.83
-12.48
-19.35
-25.22
-30.25
-34.88
-39.79
-45.66
-53.11
-62.5
-73.66
-85.69
-96.77
-104.45
-106.19
-100.28
-86.58
-66.7
-43.57
-20.53
-0.32
15.5
26.75
34.1
38.58
41.04
42.03
41.86
40.87
39.54
38.49
38.31
39.32
41.46
44.29
47.24
49.78
51.56
52.43
52.35
51.26
49.12
45.96
41.9
37.13
31.83
26.06
19.87
13.27
6.41
-0.43
-6.95
-12.89
-18.16
-22.9
-27.43
-32.32
-38.31
-46.15
-56.27
-68.32
-80.9
-91.6
-97.59
-96.54
-87.47
-71.26
-50.32
-27.87
-6.93
10.48
23.61
32.71
38.47
41.62
42.64
41.84
39.66
36.78
34.16
32.73
33.15
35.43
39.04
43.05
46.51
48.75
49.55
49.06
47.64
45.6
43.14
40.2
36.57
31.99
26.3
19.55
12.1
4.52
-2.58
-8.78
-13.97
-18.37
-22.45
-26.77
-31.98
-38.62
-47.1
-57.34
-68.47
-78.71
-85.66
-86.98
-81.2
-68.37
-50.12
-29.18
-8.42
9.89
24.51
35.19
42.18
45.9
46.65
44.77
40.81
35.75
30.87
27.44
26.32
27.66
30.84
34.73
38.17
40.35
41.03
40.48
39.1
37.21
34.72
31.3
26.51
20.13
12.35
3.8
-4.68
-12.32
-18.64
-23.69
-27.92
-32.11
-37.13
-43.78
-52.54
-63.33
-75.25
-86.54
-94.76
-97.43
-92.83
-80.7
-62.44
-40.79
-18.84
0.8
16.67
28.45
36.55
41.57
43.97
44.07
42.26
39.21
35.89
33.3
32.19
32.81
34.91
37.85
40.92
43.53
45.32
46.12
45.91
44.68
42.42
39.12
34.82
29.62
23.63
17.01
9.91
2.58
-4.68
-11.51
-17.59
-22.82
-27.33
-31.54
-36.04
-41.49
-48.51
-57.46
-68.29
-80.18
-91.4
-99.52
-102.02
-97.11
-84.52
-65.72
-43.53
-21.17
-1.32
14.52
26.01
33.64
38.18
40.33
40.6
39.47
37.46
35.2
33.4
32.65
33.31
35.36
38.45
41.95
45.15
47.52
48.77
48.83
47.79
45.75
42.75
38.82
34.02
28.47
22.41
16.07
9.62
3.24
-2.95
-8.8
-14.15
-18.92
-23.23
-27.45
-32.19
-38.24
-46.27
-56.51
-68.35
-80.14
-89.42
-93.58
-90.69
-80.32
-63.7
-43.37
-22.36
-3.23
12.43
24.1
32.0
36.59
38.36
37.78
35.48
32.27
29.18
27.15
26.79
28.18
30.81
33.87
36.55
38.36
39.25
39.52
39.49
39.2
38.27
36.04
31.87
25.53
17.37
8.26
-0.68
-8.45
-14.5
-18.94
-22.43
-26.09
-31.12
-38.5
-48.5
-60.43
-72.59
-82.52
-87.59
-85.81
-76.54
-60.71
-40.67
-19.41
0.32
16.64
28.86
37.19
42.21
44.47
44.34
42.16
38.51
34.33
30.8
28.91
29.11
31.15
34.19
37.21
39.35
40.2
39.81
38.52
36.7
34.5
31.77
28.13
23.15
16.67
8.89
0.44
-7.87
-15.31
-21.5
-26.54
-30.94
-35.46
-40.87
-47.91
-57.03
-68.2
-80.59
-92.49
-101.41
-104.78
-100.71
-88.8
-70.4
-48.2
-25.39
-4.76
12.0
24.4
32.86
38.08
40.78
41.41
40.42
38.37
36.04
34.35
34.02
35.38
38.14
41.58
44.76
46.91
47.68
47.16
45.76
43.86
41.6
38.78
34.97
29.76
23.07
15.24
7.01
-0.76
-7.43
-12.77
-17.05
-20.93
-25.19
-30.53
-37.46
-46.26
-56.75
-68.16
-78.94
-86.9
-89.72
-85.73
-74.56
-57.44
-36.91
-15.98
2.74
17.73
28.62
35.86
40.18
42.2
42.29
40.75
38.09
35.07
32.67
31.7
32.6
35.21
38.83
42.53
45.48
47.2
47.62
46.94
45.46
43.38
40.73
37.41
33.25
28.14
22.11
15.4
8.44
1.79
-4.11
-9.07
-13.3
-17.28
-21.63
-26.94
-33.74
-42.32
-52.66
-64.18
-75.53
-84.67
-89.28
-87.48
-78.55
-63.29
-43.88
-23.13
-3.69
12.59
24.84
33.01
37.45
38.67
37.26
33.96
29.73
25.68
22.83
21.88
22.97
25.64
29.03
32.23
34.6
35.96
36.43
36.26
35.48
33.81
30.75
25.95
19.48
11.95
4.3
-2.54
-8.12
-12.64
-16.94
-22.11
-29.12
-38.43
-49.6
-61.3
-71.4
-77.52
-77.7
-71.01
-57.99
-40.49
-21.15
-2.5
13.59
26.26
35.46
41.54
44.86
45.62
44.08
40.73
36.5
32.62
30.19
29.86
31.52
34.4
37.37
39.47
40.22
39.76
38.55
37.01
35.27
32.97
29.54
24.44
17.52
9.18
0.22
-8.39
-15.86
-21.86
-26.65
-30.93
-35.69
-41.93
-50.41
-61.27
-73.77
-86.23
-96.18
-100.98
-98.65
-88.59
-71.89
-51.07
-29.25
-9.23
7.27
19.7
28.4
34.13
37.54
39.07
39.06
37.95
36.38
35.12
34.87
35.96
38.21
40.99
43.55
45.28
45.94
45.71
45.01
44.19
43.31
42.06
39.89
36.26
30.89
23.91
15.87
7.6
-0.11
-6.7
-12.02
-16.42
-20.54
-25.18
-31.09
-38.88
-48.73
-60.27
-72.32
-82.96
-89.78
-90.63
-84.28
-71.04
-52.75
-32.24
-12.47
4.36
17.19
26.09
31.75
34.97
36.35
36.27
35.04
33.15
31.3
30.26
30.59
32.38
35.25
38.49
41.34
43.24
43.97
43.65
42.59
41.06
39.16
36.78
33.62
29.28
23.59
16.69
9.11
1.62
-5.05
-10.49
-14.79
-18.49
-22.36
-27.18
-33.53
-41.75
-51.72
-62.65
-73.1
-80.91
-83.88
-80.33
-69.9
-53.74
-34.28
-14.37
3.51
17.89
28.36
35.2
38.87
39.79
38.27
34.82
30.28
25.86
22.74
21.75
23.03
25.99
29.58
32.71
34.68
35.3
34.84
33.74
32.27
30.37
27.62
23.56
17.88
10.7
2.59
-5.56
-12.87
-18.78
-23.3
-26.96
-30.7
-35.54
-42.34
-51.42
-62.35
-73.82
-83.74
-89.64
-89.4
-81.91
-67.63
-48.51
-27.4
-7.22
9.91
23.02
32.16
37.93
40.97
41.73
40.56
37.92
34.55
31.42
29.46
29.29
30.99
34.07
37.72
40.96
43.05
43.59
42.58
40.31
37.16
33.44
29.3
24.74
19.7
14.15
8.14
1.79
-4.76
-11.32
-17.7
-23.73
-29.25
-34.28
-39.05
-44.05
-49.95
-57.49
-67.05
-78.34
-90.09
-100.09
-105.65
-104.46
-95.35
-78.93
-57.44
-34.09
-12.06
6.41
20.39
30.07
36.2
39.6
40.94
40.71
39.43
37.77
36.44
35.99
36.73
38.58
41.2
44.09
46.81
49.05
50.57
51.21
50.79
49.23
46.53
42.85
38.5
33.77
28.85
23.78
18.44
12.7
6.52
-0.01
-6.66
-13.13
-19.18
-24.65
-29.63
-34.46
-39.78
-46.38
-55.01
-65.91
-78.43
-90.82
-100.49
-104.71
-101.44
-90.22
-72.34
-50.54
-28.19
-8.24
7.54
18.73
25.98
30.34
32.72
33.6
33.17
31.67
29.57
27.71
26.96
27.91
30.62
34.56
38.84
42.59
45.19
46.44
46.47
45.53
43.83
41.43
38.23
34.05
28.71
22.24
14.93
7.3
-0.0
-6.46
-11.88
-16.42
-20.57
-24.89
-29.98
-36.37
-44.43
-54.18
-65.06
-75.63
-83.74
-86.98
-83.44
-72.59
-55.52
-34.72
-13.27
6.1
21.66
32.84
39.95
43.65
44.58
43.25
40.09
35.73
31.07
27.18
25.02
25.07
27.15
30.46
33.94
36.64
38.06
38.2
37.46
36.27
34.82
33.0
30.4
26.51
21.01
13.94
5.78
-2.69
-10.7
-17.71
-23.63
-28.8
-33.87
-39.55
-46.51
-55.19
-65.64
-77.16
-88.29
-96.77
-100.13
-96.51
-85.38
-67.9
-46.59
-24.5
-4.34
12.26
24.78
33.5
39.01
41.9
42.58
41.48
39.15
36.41
34.17
33.25
34.1
36.62
40.12
43.62
46.19
47.27
46.83
45.26
43.05
40.49
37.55
33.92
29.22
23.2
15.92
7.77
-0.61
-8.51
-15.36
-20.94
-25.51
-29.68
-34.36
-40.42
-48.45
-58.56
-70.14
-81.72
-91.1
-95.8
-93.71
-83.91
-67.14
-45.68
-22.75
-1.45
16.02
28.79
37.09
41.79
43.84
44.02
42.9
40.97
38.81
37.03
36.23
36.79
38.76
41.76
45.1
48.0
49.8
50.26
49.49
47.85
45.67
43.09
40.0
36.13
31.31
25.53
18.99
12.02
4.97
-1.86
-8.23
-14.01
-19.18
-23.94
-28.73
-34.17
-40.96
-49.58
-60.04
-71.56
-82.47
-90.43
-93.07
-88.71
-77.09
-59.57
-38.8
-17.81
0.83
15.69
26.46
33.63
37.9
39.81
39.71
37.91
34.97
31.76
29.26
28.34
29.38
32.17
35.98
39.85
42.92
44.67
45.03
44.23
42.62
40.43
37.68
34.19
29.7
24.05
17.31
9.86
2.29
-4.71
-10.64
-15.39
-19.33
-23.16
-27.73
-33.73
-41.54
-51.04
-61.49
-71.53
-79.19
-82.35
-79.26
-69.25
-53.16
-33.22
-12.41
6.47
21.53
32.11
38.51
41.51
41.8
39.93
36.34
31.71
27.01
23.34
21.64
22.32
25.04
28.86
32.64
35.39
36.65
36.53
35.5
34.04
32.32
30.03
26.59
21.48
14.55
6.26
-2.51
-10.73
-17.68
-23.21
-27.71
-31.93
-36.73
-42.85
-50.73
-60.48
-71.62
-82.92
-92.4
-97.7
-96.71
-88.42
-73.33
-53.52
-31.94
-11.5
5.71
18.75
27.74
33.33
36.23
37.03
36.23
34.36
32.18
30.53
30.12
31.28
33.83
37.22
40.69
43.58
45.46
46.16
45.74
44.32
42.04
39.03
35.34
30.95
25.84
19.94
13.28
6.04
-1.43
-8.7
-15.41
-21.36
-26.57
-31.34
-36.15
-41.64
-48.45
-57.1
-67.66
-79.41
-90.74
-99.28
-102.54
-98.68
-87.24
-69.48
-47.91
-25.63
-5.34
11.3
23.78
32.48
38.13
41.43
42.84
42.72
41.49
39.71
38.09
37.3
37.78
39.61
42.49
45.82
48.96
51.29
52.42
52.15
50.5
47.61
43.69
38.96
33.6
27.74
21.47
14.85
8.01
1.12
-5.56
-11.8
-17.41
-22.32
-26.67
-30.77
-35.1
-40.27
-46.9
-55.45
-65.87
-77.3
-87.91
-95.2
-96.65
-90.6
-77.0
-57.51
-35.11
-13.02
6.12
20.94
31.16
37.29
39.98
39.84
37.46
33.59
29.26
25.63
23.65
23.82
26.01
29.54
33.47
36.94
39.44
40.87
41.46
41.49
41.04
39.83
37.35
33.09
26.94
19.31
11.14
3.5
-2.85
-7.75
-11.73
-15.75
-20.88
-27.94
-37.22
-48.28
-59.9
-70.12
-76.63
-77.37
-71.21
-58.42
-40.71
-20.71
-1.18
15.75
29.01
38.44
44.36
47.23
47.36
45.02
40.78
35.57
30.67
27.31
26.31
27.71
30.83
34.53
37.67
39.55
40.01
39.37
38.03
36.22
33.83
30.49
25.77
19.45
11.72
3.16
-5.41
-13.18
-19.64
-24.8
-29.12
-33.45
-38.77
-45.96
-55.47
-67.09
-79.72
-91.37
-99.42
-101.34
-95.52
-81.97
-62.42
-39.85
-17.51
2.01
17.37
28.4
35.66
39.88
41.66
41.43
39.71
37.23
34.87
33.52
33.74
35.58
38.6
41.99
44.89
46.67
47.14
46.51
45.26
43.8
42.21
40.18
37.12
32.46
25.96
17.91
9.03
0.28
-7.52
-13.95
-19.11
-23.59
-28.24
-33.94
-41.37
-50.83
-61.97
-73.67
-84.02
-90.66
-91.36
-84.86
-71.36
-52.66
-31.61
-11.2
6.32
19.88
29.47
35.71
39.25
40.59
40.06
38.07
35.27
32.5
30.65
30.33
31.68
34.32
37.47
40.26
42.05
42.69
42.42
41.72
40.88
39.79
37.96
34.71
29.64
22.81
14.82
6.59
-1.03
-7.49
-12.7
-17.05
-21.16
-25.8
-31.62
-39.14
-48.45
-59.1
-69.92
-79.04
-84.29
-83.77
-76.53
-62.95
-44.78
-24.6
-5.09
11.66
24.57
33.41
38.5
40.33
39.41
36.33
31.9
27.19
23.3
21.05
20.76
22.18
24.68
27.54
30.24
32.5
34.2
35.19
35.23
33.92
30.89
26.02
19.5
11.92
4.1
-3.15
-9.35
-14.47
-19.09
-24.1
-30.49
-38.93
-49.27
-60.49
-70.64
-77.34
-78.45
-72.82
-60.74
-43.88
-24.78
-6.08
10.24
23.14
32.37
38.18
40.91
40.92
38.65
34.82
30.45
26.64
24.31
23.9
25.24
27.67
30.29
32.34
33.41
33.53
33.03
32.22
31.13
29.35
26.25
21.25
14.23
5.74
-3.2
-11.41
-18.12
-23.3
-27.62
-32.24
-38.39
-46.94
-58.08
-71.08
-84.27
-95.24
-101.34
-100.48
-91.78
-75.99
-55.32
-32.86
-11.58
6.34
19.97
29.38
35.26
38.41
39.42
38.72
36.77
34.22
31.95
30.83
31.45
33.83
37.41
41.25
44.45
46.4
47.01
46.52
45.29
43.54
41.22
38.05
33.61
27.65
20.22
11.79
3.14
-4.89
-11.62
-16.89
-21.07
-25.0
-29.69
-36.05
-44.61
-55.28
-67.16
-78.6
-87.4
-91.32
-88.71
-79.12
-63.55
-44.13
-23.58
-4.37
11.78
24.01
32.3
36.97
38.58
37.73
35.16
31.78
28.58
26.45
25.97
27.24
29.8
32.91
35.79
37.9
39.09
39.47
39.24
38.39
36.68
33.68
29.09
22.9
15.57
7.86
0.63
-5.5
-10.38
-14.41
-18.44
-23.48
-30.4
-39.54
-50.39
-61.54
-70.85
-75.93
-74.86
-66.89
-52.74
-34.45
-14.77
3.69
19.17
30.88
38.94
43.77
45.78
45.18
42.26
37.59
32.26
27.65
24.99
24.94
27.28
31.07
35.04
38.11
39.71
39.89
39.04
37.57
35.6
32.88
28.9
23.22
15.77
6.95
-2.38
-11.2
-18.71
-24.66
-29.39
-33.75
-38.77
-45.42
-54.27
-65.31
-77.66
-89.59
-98.6
-102.12
-98.24
-86.52
-68.33
-46.45
-24.2
-4.35
11.54
23.24
31.37
36.74
39.91
41.1
40.43
38.28
35.42
32.92
31.84
32.79
35.74
39.95
44.31
47.76
49.62
49.83
48.8
47.07
44.98
42.55
39.47
35.29
29.68
22.65
14.49
5.8
-2.71
-10.39
-16.9
-22.25
-26.85
-31.38
-36.59
-43.21
-51.75
-62.31
-74.32
-86.28
-95.91
-100.54
-98.0
-87.46
-69.91
-47.98
-25.04
-4.16
12.72
25.04
33.24
38.16
40.54
40.85
39.44
36.81
33.71
31.06
29.73
30.19
32.33
35.55
38.96
41.76
43.53
44.34
44.51
44.4
44.03
43.02
40.75
36.62
30.44
22.55
13.74
5.01
-2.8
-9.25
-14.48
-19.08
-23.87
-29.71
-37.22
-46.61
-57.48
-68.67
-78.33
-84.23
-84.3
-77.41
-63.82
-45.27
-24.46
-4.24
13.16
26.55
35.77
41.19
43.38
42.81
40.01
35.71
30.91
26.76
24.25
23.95
25.72
28.84
32.22
34.87
36.2
36.22
35.37
34.18
32.83
30.99
27.94
22.96
15.81
7.0
-2.36
-11.04
-18.14
-23.5
-27.65
-31.54
-36.26
-42.72
-51.38
-62.03
-73.58
-84.05
-90.88
-91.69
-85.11
-71.36
-52.24
-30.63
-9.49
8.94
23.51
34.1
41.09
44.95
46.02
44.64
41.36
37.04
32.86
29.94
29.1
30.5
33.69
37.73
41.57
44.32
45.5
45.1
43.45
40.98
38.03
34.67
30.69
25.75
19.6
12.27
4.12
-4.24
-12.17
-19.24
-25.35
-30.77
-36.05
-41.84
-48.85
-57.57
-68.13
-79.93
-91.51
-100.68
-104.95
-102.3
-91.94
-74.71
-52.91
-29.65
-7.9
10.23
23.83
33.04
38.55
41.19
41.6
40.33
37.98
35.3
33.14
32.24
33.05
35.53
39.21
43.37
47.26
50.26
52.02
52.45
51.63
49.7
46.77
42.88
38.0
32.14
25.37
17.93
10.16
2.44
-4.91
-11.71
-17.9
-23.56
-28.89
-34.2
-40.05
-47.08
-55.88
-66.5
-78.21
-89.21
-96.99
-99.0
-93.52
-80.34
-60.99
-38.24
-15.25
5.23
21.59
33.35
40.9
45.0
46.41
45.77
43.64
40.66
37.58
35.18
34.11
34.64
36.67
39.66
42.88
45.61
47.31
47.75
46.99
45.31
42.99
40.22
36.93
32.83
27.61
21.09
13.48
5.32
-2.66
-9.85
-15.93
-20.99
-25.43
-29.85
-34.83
-40.97
-48.72
-58.24
-69.07
-79.98
-88.93
-93.52
-91.72
-82.64
-66.91
-46.63
-24.72
-4.03
13.36
26.43
35.09
39.77
41.06
39.55
35.89
30.97
25.9
21.87
19.73
19.84
21.89
25.13
28.65
31.73
34.02
35.46
36.13
36.02
34.93
32.48
28.32
22.31
14.76
6.41
-1.78
-8.96
-14.72
-19.33
-23.63
-28.77
-35.8
-45.16
-56.4
-68.05
-77.85
-83.3
-82.38
-74.27
-59.71
-40.77
-20.26
-0.8
15.79
28.69
37.89
43.62
46.1
45.48
42.06
36.59
30.31
24.69
21.04
20.09
21.71
25.06
28.96
32.35
34.57
35.55
35.54
34.76
33.18
30.41
25.91
19.37
11.02
1.62
-7.75
-16.09
-22.9
-28.33
-33.09
-38.18
-44.58
-53.0
-63.62
-75.9
-88.39
-98.9
-104.89
-104.15
-95.64
-79.91
-59.04
-36.02
-13.82
5.38
20.55
31.67
39.25
43.82
45.74
45.32
43.02
39.74
36.62
34.79
34.9
36.88
39.98
43.14
45.43
46.43
46.26
45.34
44.1
42.61
40.57
37.37
32.51
25.79
17.54
8.58
-0.12
-7.72
-13.88
-18.88
-23.46
-28.59
-35.17
-43.78
-54.49
-66.7
-79.06
-89.52
-95.66
-95.41
-87.69
-72.95
-53.12
-31.03
-9.57
9.1
23.84
34.49
41.45
45.26
46.4
45.35
42.74
39.45
36.51
34.87
35.05
36.99
40.01
43.1
45.33
46.22
45.88
44.85
43.67
42.53
41.1
38.72
34.7
28.79
21.25
12.88
4.62
-2.73
-8.81
-13.71
-17.96
-22.28
-27.42
-34.04
-42.53
-52.85
-64.27
-75.25
-83.63
-87.11
-83.97
-73.74
-57.48
-37.47
-16.56
2.69
18.58
30.41
38.22
42.38
43.33
41.58
37.87
33.21
28.82
25.79
24.78
25.77
28.15
30.97
33.39
35.01
35.86
36.3
36.6
36.63
35.84
33.42
28.79
21.97
13.68
5.08
-2.64
-8.86
-13.66
-17.85
-22.53
-28.72
-37.0
-47.28
-58.63
-69.32
-77.14
-79.87
-76.02
-65.37
-49.2
-29.91
-10.22
7.55
22.03
32.77
39.94
43.88
44.89
43.32
39.7
34.94
30.24
26.79
25.49
26.58
29.56
33.42
36.94
39.22
39.87
39.09
37.4
35.22
32.6
29.14
24.31
17.82
9.82
1.06
-7.47
-14.89
-20.81
-25.42
-29.38
-33.61
-38.99
-46.21
-55.64
-67.05
-79.44
-90.93
-99.01
-101.18
-95.82
-82.87
-63.95
-41.94
-19.97
-0.51
15.13
26.8
34.99
40.31
43.18
43.93
42.95
40.91
38.74
37.37
37.44
39.08
41.81
44.79
47.12
48.16
47.81
46.39
44.46
42.47
40.53
38.34
35.31
30.88
24.8
17.27
8.86
0.38
-7.48
-14.27
-19.95
-24.83
-29.55
-34.87
-41.57
-50.21
-60.97
-73.23
-85.51
-95.5
-100.58
-98.55
-88.52
-71.35
-49.48
-26.23
-4.73
12.9
25.91
34.68
40.09
42.98
43.91
43.24
41.38
38.96
36.8
35.69
36.09
38.03
41.0
44.26
47.03
48.77
49.29
48.75
47.45
45.64
43.33
40.27
36.12
30.67
23.99
16.5
8.79
1.37
-5.46
-11.69
-17.54
-23.31
-29.33
-35.98
-43.7
-52.92
-63.73
-75.51
-86.71
-95.03
-97.96
-93.65
-81.71
-63.46
-41.59
-19.28
0.75
16.86
28.6
36.34
40.76
42.42
41.81
39.42
35.99
32.5
29.93
29.02
30.06
32.74
36.37
40.09
43.11
44.95
45.51
44.97
43.66
41.8
39.35
36.03
31.45
25.36
17.9
9.63
1.4
-5.97
-12.0
-16.69
-20.49
-24.17
-28.5
-34.2
-41.7
-51.06
-61.72
-72.41
-81.15
-85.65
-83.95
-75.14
-59.78
-39.88
-18.29
2.2
19.54
32.78
41.79
46.89
48.43
46.72
42.29
36.06
29.45
23.99
20.91
20.7
22.96
26.59
30.28
33.0
34.27
34.19
33.2
31.69
29.75
27.1
23.26
17.86
10.92
2.93
-5.29
-12.9
-19.36
-24.62
-29.12
-33.63
-39.05
-46.16
-55.37
-66.41
-78.12
-88.47
-94.94
-95.23
-88.07
-73.72
-54.0
-31.74
-9.96
8.99
23.8
34.2
40.63
43.75
44.19
42.46
39.11
34.82
30.53
27.27
25.87
26.7
29.46
33.29
37.04
39.71
40.77
40.23
38.53
36.19
33.52
30.48
26.73
21.86
15.71
8.43
0.54
-7.3
-14.59
-21.05
-26.76
-32.02
-37.26
-43.04
-49.97
-58.65
-69.41
-81.82
-94.47
-104.91
-110.3
-108.28
-97.88
-80.01
-57.19
-32.78
-9.96
9.05
23.37
33.17
39.24
42.45
43.49
42.89
41.11
38.74
36.53
35.22
35.36
37.09
40.08
43.69
47.14
49.8
51.31
51.61
50.83
49.17
46.73
43.48
39.3
34.04
27.67
20.34
12.43
4.41
-3.29
-10.35
-16.68
-22.4
-27.77
-33.19
-39.21
-46.46
-55.49
-66.38
-78.45
-89.99
-98.51
-101.37
-96.71
-84.19
-65.24
-42.69
-19.83
0.57
16.92
28.84
36.78
41.45
43.42
43.12
41.08
38.15
35.44
33.96
34.35
36.47
39.61
42.8
45.22
46.5
46.76
46.33
45.54
44.5
43.02
40.71
37.16
32.1
25.57
17.97
9.97
2.32
-4.38
-9.92
-14.55
-18.82
-23.48
-29.24
-36.65
-45.93
-56.71
-67.87
-77.56
-83.53
-83.7
-76.96
-63.57
-45.28
-24.71
-4.6
13.01
27.03
37.24
43.92
47.35
47.79
45.51
41.13
35.72
30.65
27.29
26.56
28.54
32.49
37.14
41.12
43.49
43.94
42.79
40.65
38.06
35.2
31.83
27.45
21.66
14.39
6.06
-2.56
-10.59
-17.47
-23.08
-27.82
-32.42
-37.74
-44.52
-53.22
-63.85
-75.76
-87.54
-97.04
-101.83
-99.84
-90.22
-73.69
-52.5
-29.72
-8.3
9.68
23.35
32.91
39.06
42.59
44.06
43.85
42.31
40.02
37.73
36.28
36.29
37.93
40.85
44.26
47.31
49.36
50.13
49.69
48.27
46.03
43.01
39.07
34.13
28.16
21.33
13.97
6.46
-0.77
-7.46
-13.46
-18.81
-23.72
-28.55
-33.79
-39.98
-47.71
-57.33
-68.71
-80.88
-92.02
-99.65
-101.39
-95.65
-82.34
-63.0
-40.37
-17.63
2.57
18.63
30.17
37.66
41.97
43.96
44.33
43.63
42.4
41.25
40.75
41.35
43.17
46.0
49.32
52.5
54.97
56.35
56.54
55.59
53.61
50.71
46.92
42.28
36.89
30.97
24.79
18.59
12.42
6.22
-0.11
-6.53
-12.85
-18.77
-24.12
-29.03
-33.99
-39.81
-47.27
-56.9
-68.56
-81.23
-92.94
-101.1
-103.17
-97.48
-83.95
-64.23
-41.27
-18.41
1.6
17.26
28.35
35.53
39.72
41.68
41.9
40.78
38.76
36.5
34.78
34.25
35.28
37.79
41.31
45.07
48.29
50.35
50.95
50.09
48.04
45.16
41.78
38.03
33.86
29.13
23.68
17.5
10.8
3.93
-2.71
-8.82
-14.29
-19.22
-23.88
-28.65
-34.03
-40.6
-48.82
-58.77
-69.8
-80.3
-87.97
-90.35
-85.76
-73.94
-56.29
-35.42
-14.34
4.44
19.44
30.22
37.06
40.54
41.19
39.59
36.35
32.32
28.55
26.09
25.63
27.27
30.43
34.07
37.1
38.83
39.15
38.46
37.31
36.05
34.53
32.2
28.43
22.89
15.76
7.74
-0.26
-7.46
-13.5
-18.52
-23.1
-28.04
-34.15
-42.05
-51.95
-63.41
-75.14
-85.13
-90.96
-90.5
-82.68
-67.98
-48.4
-26.87
-6.31
11.18
24.64
34.12
40.17
43.31
43.87
42.12
38.55
34.02
29.71
26.74
25.84
27.09
29.95
33.49
36.79
39.15
40.23
40.03
38.72
36.54
33.62
30.04
25.71
20.52
14.37
7.28
-0.45
-8.32
-15.72
-22.24
-27.8
-32.75
-37.76
-43.66
-51.17
-60.71
-72.14
-84.56
-96.2
-104.68
-107.49
-102.89
-90.54
-71.78
-49.33
-26.35
-5.56
11.44
24.19
33.05
38.66
41.61
42.37
41.41
39.34
36.94
35.01
34.17
34.77
36.72
39.61
42.73
45.4
47.07
47.5
46.77
45.12
42.8
39.87
36.22
31.66
26.04
19.42
12.06
4.43
-3.0
-9.84
-15.93
-21.36
-26.43
-31.63
-37.58
-44.88
-53.99
-64.98
-77.18
-89.09
-98.42
-102.64
-99.75
-89.07
-71.6
-49.79
-26.8
-5.55
12.03
25.22
34.26
39.84
42.71
43.5
42.75
40.99
38.88
37.11
36.27
36.72
38.46
41.21
44.39
47.32
49.41
50.27
49.79
48.1
45.44
42.08
38.19
33.84
28.98
23.53
17.39
10.6
3.34
-4.07
-11.22
-17.76
-23.55
-28.73
-33.74
-39.29
-46.16
-54.99
-65.89
-78.13
-90.01
-99.06
-102.61
-98.7
-86.85
-68.3
-45.75
-22.45
-1.26
16.05
28.93
37.71
43.02
45.46
45.4
43.22
39.56
35.39
31.91
30.18
30.77
33.47
37.42
41.4
44.38
45.78
45.64
44.35
42.36
39.88
36.82
32.89
27.82
21.58
14.45
6.97
-0.23
-6.64
-12.03
-16.61
-20.88
-25.57
-31.43
-38.98
-48.33
-59.08
-70.14
-79.81
-86.0
-86.68
-80.58
-67.66
-49.32
-28.05
-6.77
12.1
27.13
37.92
44.8
48.32
48.89
46.87
42.66
37.08
31.28
26.57
24.01
23.97
26.09
29.39
32.68
35.02
36.01
35.78
34.73
33.15
31.05
28.08
23.8
17.9
10.5
2.15
-6.33
-14.1
-20.64
-25.9
-30.33
-34.74
-40.07
-47.17
-56.5
-67.95
-80.5
-92.33
-101.03
-104.17
-100.06
-88.31
-70.13
-47.98
-24.91
-3.63
14.02
27.37
36.56
42.19
44.82
44.87
42.75
39.11
34.93
31.41
29.6
30.03
32.49
36.13
39.83
42.65
44.11
44.24
43.41
42.02
40.26
38.05
35.01
30.74
24.92
17.6
9.25
0.65
-7.36
-14.21
-19.86
-24.74
-29.69
-35.62
-43.28
-53.07
-64.84
-77.69
-89.95
-99.24
-103.09
-99.62
-88.32
-70.32
-48.16
-24.98
-3.64
13.97
27.06
35.78
40.72
42.59
42.05
39.79
36.61
33.46
31.23
30.57
31.64
34.06
37.06
39.83
41.8
42.84
43.2
43.16
42.82
41.9
39.85
36.11
30.43
23.05
14.6
6.0
-1.95
-8.7
-14.24
-19.01
-23.84
-29.64
-37.27
-47.11
-58.83
-71.2
-82.18
-89.26
-90.25
-83.97
-70.7
-52.17
-31.06
-10.17
8.31
23.12
33.87
40.73
44.06
44.28
41.96
37.91
33.17
28.89
25.99
25.0
25.86
28.04
30.77
33.33
35.29
36.51
36.96
36.58
35.08
32.03
27.12
20.34
12.16
3.45
-4.85
-12.1
-18.16
-23.5
-29.03
-35.8
-44.63
-55.68
-68.11
-80.01
-88.73
-91.61
-86.89
-74.39
-55.64
-33.44
-10.91
9.37
25.92
38.28
46.64
51.39
52.88
51.48
47.81
42.84
37.89
34.17
32.54
33.14
35.42
38.4
41.06
42.71
43.11
42.43
40.9
38.66
35.52
31.15
25.2
17.63
8.77
-0.62
-9.66
-17.59
-24.05
-29.25
-33.92
-39.1
-45.88
-55.03
-66.66
-79.97
-93.15
-103.6
-108.56
-105.93
-94.98
-76.82
-54.06
-30.06
-7.96
10.25
23.95
33.62
40.15
44.33
46.53
46.91
45.71
43.6
41.61
40.79
41.83
44.62
48.39
51.96
54.31
55.0
54.24
52.69
51.03
49.5
47.76
45.01
40.44
33.63
24.85
14.97
5.14
-3.65
-10.92
-16.81
-21.95
-27.23
-33.55
-41.6
-51.77
-63.83
-76.78
-88.73
-97.15
-99.54
-94.24
-81.08
-61.66
-38.83
-15.83
4.61
20.96
32.82
40.64
45.15
46.96
46.55
44.39
41.17
37.85
35.49
34.85
36.12
38.82
42.0
44.7
46.32
46.82
46.54
45.89
44.94
43.28
40.25
35.25
28.15
19.47
10.24
1.62
-5.53
-11.0
-15.25
-19.3
-24.32
-31.3
-40.72
-52.28
-64.78
-76.15
-83.87
-85.54
-79.7
-66.41
-47.32
-25.3
-3.48
15.61
30.56
41.06
47.5
50.44
50.41
47.93
43.74
38.84
34.42
31.46
30.44
31.21
33.12
35.28
37.01
37.99
38.27
38.08
37.58
36.61
34.72
31.25
25.71
18.01
8.65
-1.4
-10.97
-19.1
-25.41
-30.17
-34.29
-39.01
-45.54
-54.65
-66.27
-79.28
-91.46
-99.98
-102.15
-96.29
-82.42
-62.33
-39.06
-15.93
4.39
20.46
32.08
39.81
44.44
46.57
46.6
44.91
42.13
39.11
36.86
36.14
37.25
39.86
43.18
46.29
48.41
49.2
48.69
47.18
45.05
42.45
39.32
35.41
30.39
24.07
16.53
8.17
-0.38
-8.48
-15.65
-21.69
-26.8
-31.46
-36.33
-42.24
-49.96
-60.02
-72.34
-85.89
-98.56
-107.54
-110.02
-104.21
-90.07
-69.42
-45.42
-21.56
-0.62
15.91
27.86
35.84
40.67
42.96
43.12
41.53
38.84
36.03
34.15
34.0
35.75
38.89
42.43
45.35
46.95
47.18
46.46
45.42
44.42
43.38
41.71
38.64
33.67
26.77
18.57
10.07
2.21
-4.42
-9.78
-14.37
-18.94
-24.26
-31.02
-39.65
-50.18
-62.07
-74.02
-83.94
-89.46
-88.54
-80.24
-65.16
-45.32
-23.54
-2.63
15.34
29.37
39.31
45.51
48.36
48.18
45.38
40.73
35.43
30.94
28.51
28.73
31.28
35.11
38.87
41.48
42.51
42.15
40.92
39.31
37.39
34.85
31.11
25.7
18.49
9.85
0.57
-8.39
-16.22
-22.58
-27.69
-32.27
-37.32
-43.85
-52.59
-63.66
-76.39
-89.11
-99.36
-104.44
-102.24
-91.97
-74.56
-52.47
-28.86
-6.69
12.01
26.38
36.52
42.94
46.27
47.02
45.7
42.89
39.39
36.11
33.93
33.45
34.81
37.59
40.92
43.78
45.42
45.55
44.41
42.52
40.29
37.82
34.8
30.71
25.12
18.01
9.75
1.13
-7.0
-14.01
-19.74
-24.5
-29.02
-34.16
-40.7
-49.16
-59.64
-71.69
-84.1
-94.95
-101.77
-102.24
-94.94
-80.01
-59.35
-36.0
-13.23
6.43
21.74
32.63
39.74
43.78
45.27
44.57
42.09
38.54
34.93
32.37
31.66
33.06
36.16
39.98
43.47
45.77
46.57
46.06
44.68
42.83
40.58
37.65
33.6
28.09
21.12
13.05
4.5
-3.8
-11.29
-17.7
-23.1
-27.92
-32.82
-38.53
-45.74
-54.81
-65.56
-77.06
-87.59
-94.8
-96.4
-90.79
-77.8
-58.87
-36.63
-14.21
5.81
21.87
33.54
41.09
45.09
46.04
44.39
40.73
35.97
31.24
27.58
25.71
25.7
27.11
29.18
31.17
32.64
33.52
33.9
33.85
33.19
31.4
27.92
22.43
15.09
6.67
-1.78
-9.29
-15.37
-20.24
-24.68
-29.87
-36.91
-46.48
-58.44
-71.64
-83.95
-92.62
-95.08
-89.75
-76.64
-57.46
-35.06
-12.56
7.52
23.75
35.75
43.82
48.44
49.99
48.83
45.41
40.51
35.27
30.91
28.41
28.13
29.67
32.08
34.3
35.58
35.81
35.33
34.64
33.93
32.86
30.65
26.46
19.9
11.24
1.39
-8.44
-17.17
-24.24
-29.76
-34.49
-39.5
-45.92
-54.66
-66.0
-79.42
-93.37
-105.41
-112.7
-112.77
-104.34
-87.91
-65.67
-40.85
-16.71
4.34
21.1
33.44
41.86
46.92
49.08
48.76
46.55
43.35
40.19
38.01
37.38
38.28
40.23
42.43
44.18
45.0
44.86
44.01
42.84
41.58
40.06
37.75
33.97
28.19
20.4
11.17
1.49
-7.59
-15.31
-21.47
