0
0.29
-3.05
-6.18
-9.15
-12.13
-15.4
-19.12
-23.27
-27.47
-31.1
-33.39
-33.64
-31.42
-26.64
-19.64
-11.0
-1.51
8.0
16.74
24.03
29.37
32.49
33.4
32.38
29.94
26.66
23.06
19.56
16.44
13.87
12.0
10.89
10.5
10.71
11.25
11.78
11.96
11.49
10.19
8.03
5.16
1.86
-1.57
-4.88
-8.01
-11.02
-14.13
-17.6
-21.61
-26.17
-31.0
-35.49
-38.76
-39.84
-38.02
-33.03
-25.24
-15.54
-5.07
5.08
14.12
21.57
27.23
31.05
33.06
33.34
32.13
29.82
26.86
23.75
20.87
18.44
16.52
15.08
14.1
13.58
13.52
13.87
14.39
14.76
14.55
13.43
11.3
8.28
4.7
0.94
-2.69
-6.03
-9.13
-12.17
-15.42
-19.13
-23.44
-28.21
-32.97
-36.99
-39.38
-39.4
-36.57
-30.88
-22.73
-12.88
-2.27
8.09
17.3
24.66
29.79
32.58
33.21
32.07
29.67
26.53
23.18
20.03
17.42
15.51
14.29
13.63
13.34
13.22
13.15
13.06
12.84
12.38
11.51
10.12
8.17
5.71
2.91
-0.1
-3.2
-6.33
-9.48
-12.66
-15.95
-19.47
-23.35
-27.56
-31.84
-35.58
-37.94
-38.08
-35.49
-30.15
-22.59
-13.71
-4.5
4.21
11.85
18.11
22.77
25.68
26.72
25.93
23.61
20.3
16.69
13.38
10.75
8.87
7.61
6.79
6.33
6.23
6.49
6.97
7.38
7.36
6.61
5.0
2.63
-0.22
-3.21
-6.05
-8.57
-10.85
-13.1
-15.72
-19.03
-23.15
-27.88
-32.62
-36.53
-38.73
-38.53
-35.63
-30.13
-22.56
-13.67
-4.36
4.53
12.31
18.52
22.89
25.34
25.96
25.02
22.94
20.27
17.53
15.1
13.12
11.56
10.27
9.16
8.29
7.8
7.74
8.05
8.45
8.63
8.3
7.33
5.71
3.52
0.87
-2.16
-5.45
-8.82
-12.13
-15.24
-18.2
-21.23
-24.62
-28.51
-32.74
-36.67
-39.41
-40.02
-37.91
-32.98
-25.68
-16.77
-7.11
2.5
11.39
18.93
24.63
28.13
29.39
28.74
26.75
24.08
21.26
18.63
16.35
14.48
13.05
12.12
11.68
11.67
11.97
12.4
12.75
12.81
12.41
11.4
9.7
7.4
4.62
1.55
-1.64
-4.88
-8.16
-11.48
-14.85
-18.27
-21.77
-25.37
-28.99
-32.41
-35.15
-36.58
-36.11
-33.37
-28.37
-21.52
-13.49
-5.06
3.06
10.32
16.36
20.89
23.73
24.78
24.14
22.08
19.11
15.79
12.66
10.1
8.3
7.27
6.91
7.08
7.6
8.23
8.72
8.8
8.3
7.17
5.48
3.37
0.99
-1.51
-4.02
-6.44
-8.74
-10.99
-13.43
-16.36
-20.01
-24.31
-28.84
-32.83
-35.44
-35.99
-34.16
-30.04
-24.0
-16.58
-8.37
0.03
7.97
14.8
19.99
23.21
24.43
23.91
22.1
19.48
16.51
13.6
11.04
9.04
7.65
6.81
6.36
6.11
6.0
6.02
6.19
6.44
6.52
6.07
4.77
2.5
-0.6
-4.14
-7.7
-10.96
-13.82
-16.36
-18.83
-21.52
-24.71
-28.5
-32.75
-36.98
-40.43
-42.21
-41.56
-38.07
-31.86
-23.47
-13.76
-3.67
5.92
14.26
20.78
25.15
27.31
27.47
26.11
23.83
21.23
18.81
16.86
15.49
14.64
14.18
13.99
13.98
14.09
14.27
14.38
14.25
13.7
12.6
10.96
8.86
6.41
3.73
0.87
-2.11
-5.16
-8.19
-11.17
-14.16
-17.33
-20.87
-24.88
-29.21
-33.37
-36.62
-38.13
-37.24
-33.66
-27.59
-19.62
-10.57
-1.26
7.6
15.48
21.97
26.72
29.52
30.32
29.36
27.16
24.39
21.69
19.47
17.82
16.6
15.59
14.68
13.89
13.35
13.14
13.2
13.29
13.1
12.37
10.98
8.98
6.58
3.97
1.31
-1.33
-3.96
-6.62
-9.42
-12.45
-15.85
-19.71
-23.94
-28.26
-32.12
-34.8
-35.64
-34.18
-30.28
-24.18
-16.4
-7.68
1.18
9.38
16.26
21.35
24.48
25.74
25.38
23.79
21.35
18.45
15.49
12.86
10.84
9.57
8.97
8.86
9.02
9.28
9.59
9.88
10.04
9.87
9.09
7.56
5.26
2.35
-0.91
-4.3
-7.66
-10.99
-14.38
-17.92
-21.67
-25.54
-29.29
-32.47
-34.5
-34.74
-32.68
-28.1
-21.23
-12.71
-3.46
5.52
13.37
19.53
23.75
26.04
26.57
25.62
23.54
20.77
17.8
15.08
12.93
11.46
10.55
10.03
9.73
9.62
9.72
10.02
10.34
10.37
9.76
8.3
6.04
3.22
0.17
-2.84
-5.72
-8.53
-11.38
-14.36
-17.56
-21.03
-24.84
-28.94
-33.11
-36.81
-39.28
-39.77
-37.73
-33.02
-25.98
-17.29
-7.79
1.69
10.39
17.72
23.23
26.7
28.17
27.92
26.39
24.12
21.58
19.16
17.12
15.61
14.65
14.14
13.93
13.84
13.77
13.68
13.59
13.45
13.11
12.38
11.04
9.04
6.51
3.71
0.89
-1.76
-4.27
-6.77
-9.47
-12.55
-16.07
-19.99
-24.12
-28.1
-31.44
-33.52
-33.76
-31.73
-27.33
-20.83
-12.83
-4.17
4.29
11.83
17.95
22.4
25.17
26.39
26.25
25.02
22.99
20.5
17.94
15.67
13.97
12.95
12.54
12.56
12.76
12.93
12.97
12.81
12.4
11.67
10.52
8.85
6.66
4.02
1.09
-1.97
-5.02
-7.96
-10.8
-13.58
-16.41
-19.4
-22.6
-25.93
-29.06
-31.46
-32.47
-31.51
-28.22
-22.71
-15.49
-7.43
0.53
7.57
13.12
16.93
19.02
19.58
18.9
17.32
15.16
12.75
10.37
8.27
6.64
5.62
5.24
5.44
6.02
6.69
7.15
7.16
6.61
5.57
4.18
2.6
0.92
-0.85
-2.77
-4.89
-7.26
-9.92
-12.96
-16.42
-20.25
-24.2
-27.8
-30.42
-31.45
-30.48
-27.39
-22.45
-16.14
-9.07
-1.86
4.94
10.84
15.5
18.68
20.33
20.55
19.59
17.79
15.51
13.11
10.87
9.02
7.69
6.92
6.69
6.85
7.24
7.67
7.96
7.95
7.49
6.38
4.54
2.0
-1.01
-4.08
-6.8
-8.91
-10.48
-11.86
-13.53
-15.89
-19.12
-23.1
-27.5
-31.77
-35.31
-37.43
-37.54
-35.21
-30.43
-23.57
-15.36
-6.72
1.5
8.67
14.46
18.73
21.52
22.95
23.21
22.56
21.28
19.7
18.15
16.87
15.99
15.53
15.44
15.59
15.84
16.06
16.14
16.01
15.59
14.87
13.84
12.49
10.84
8.92
6.74
4.39
1.92
-0.57
-3.02
-5.42
-7.79
-10.23
-12.85
-15.75
-18.99
-22.6
-26.45
-30.27
-33.63
-35.93
-36.57
-35.05
-31.24
-25.37
-18.02
-9.98
-2.03
5.25
11.51
16.57
20.37
22.9
24.22
24.45
23.84
22.71
21.36
20.07
19.03
18.29
17.83
17.6
17.51
17.47
17.41
17.18
16.62
15.59
14.03
12.07
9.99
8.13
6.81
6.09
5.81
5.56
4.96
3.72
1.81
-0.62
-3.33
-6.15
-9.05
-12.14
-15.58
-19.39
-23.41
-27.16
-30.01
-31.36
-30.79
-28.21
-23.85
-18.19
-11.77
-5.15
1.17
6.84
11.55
15.14
17.54
18.75
18.89
18.14
16.72
14.95
13.15
11.6
10.53
10.0
9.92
10.13
10.44
10.69
10.79
10.71
10.37
9.69
8.56
6.95
4.94
2.7
0.46
-1.64
-3.54
-5.32
-7.09
-8.95
-10.92
-13.03
-15.34
-17.93
-20.79
-23.71
-26.29
-27.96
-28.17
-26.56
-23.11
-18.13
-12.14
-5.76
0.44
6.0
10.59
14.05
16.35
17.56
17.83
17.34
16.29
14.89
13.38
11.98
10.84
10.01
9.42
8.97
8.6
8.35
8.33
8.53
8.84
8.96
8.55
7.38
5.42
2.85
-0.03
-2.92
-5.62
-8.02
-10.06
-11.8
-13.39
-15.08
-17.2
-20.0
-23.46
-27.24
-30.69
-33.11
-33.93
-32.89
-30.07
-25.74
-20.26
-13.98
-7.23
-0.44
5.89
11.24
15.17
17.5
18.31
17.97
16.91
15.58
14.33
13.36
12.79
12.6
12.76
13.15
13.65
14.16
14.55
14.74
14.62
14.1
13.14
11.77
10.09
8.24
6.34
4.44
2.53
0.54
-1.54
-3.74
-6.01
-8.32
-10.66
-13.09
-15.68
-18.5
-21.48
-24.46
-27.05
-28.8
-29.2
-27.95
-24.99
-20.53
-15.05
-9.09
-3.13
2.48
7.56
11.99
15.64
18.33
19.9
20.27
19.52
17.97
16.11
14.4
13.18
12.58
12.55
12.88
13.39
13.89
14.25
14.34
14.03
13.27
12.12
10.68
9.13
7.52
5.83
3.96
1.85
-0.46
-2.82
-5.07
-7.12
-9.0
-10.86
-12.9
-15.25
-17.96
-20.93
-23.9
-26.49
-28.25
-28.74
-27.63
-24.82
-20.45
-14.95
-8.89
-2.87
2.61
7.21
10.72
13.06
14.21
14.31
13.59
12.41
11.11
9.97
9.07
8.38
7.8
7.3
6.95
6.84
7.0
7.31
7.55
7.5
7.01
6.09
4.82
3.27
1.51
-0.42
-2.43
-4.46
-6.47
-8.5
-10.74
-13.33
-16.33
-19.59
-22.78
-25.44
-27.12
-27.44
-26.19
-23.33
-19.0
-13.53
-7.46
-1.41
4.02
8.4
11.51
13.41
14.27
14.32
13.75
12.73
11.44
10.08
8.88
7.96
7.36
7.03
6.83
6.69
6.54
6.38
6.18
5.88
5.38
4.59
3.48
2.08
0.45
-1.34
-3.25
-5.25
-7.36
-9.61
-12.04
-14.71
-17.67
-20.9
-24.24
-27.38
-29.85
-31.12
-30.75
-28.46
-24.32
-18.63
-11.95
-4.9
1.88
7.9
12.76
16.29
18.42
19.28
19.09
18.16
16.83
15.38
14.07
13.04
12.33
11.93
11.72
11.58
11.47
11.4
11.44
11.61
11.82
11.84
11.42
10.37
8.68
6.48
4.03
1.48
-1.08
-3.7
-6.43
-9.27
-12.15
-15.04
-17.92
-20.8
-23.59
-26.03
-27.66
-27.96
-26.55
-23.27
-18.35
-12.22
-5.47
1.28
7.52
12.79
16.78
19.31
20.39
20.2
19.08
17.38
15.41
13.43
11.62
10.14
9.11
8.58
8.53
8.83
9.34
9.88
10.27
10.34
9.93
8.89
7.18
4.93
2.39
-0.1
-2.27
-4.11
-5.82
-7.79
-10.37
-13.67
-17.46
-21.24
-24.33
-26.13
-26.26
-24.64
-21.39
-16.79
-11.25
-5.17
0.91
6.49
11.1
14.41
16.34
17.0
16.63
15.54
13.98
12.16
10.23
8.33
6.59
5.13
4.1
3.58
3.58
3.98
4.55
4.98
5.02
4.51
3.48
2.09
0.49
-1.23
-3.11
-5.25
-7.75
-10.66
-13.94
-17.49
-21.15
-24.66
-27.65
-29.59
-29.97
-28.35
-24.62
-19.02
-12.18
-4.91
2.01
7.98
12.65
15.92
17.83
18.48
18.05
16.78
14.98
13.02
11.22
9.78
8.74
8.03
7.58
7.33
7.25
7.29
7.33
7.19
6.65
5.64
4.17
2.35
0.36
-1.66
-3.61
-5.48
-7.32
-9.31
-11.69
-14.68
-18.34
-22.44
-26.47
-29.68
-31.34
-30.96
-28.39
-23.85
-17.81
-10.83
-3.51
3.64
10.14
15.59
19.71
22.34
23.5
23.39
22.34
20.75
18.97
17.25
15.74
14.49
13.53
12.84
12.43
12.28
12.38
12.65
12.93
13.0
12.56
11.4
9.45
6.88
4.0
1.19
-1.3
-3.43
-5.37
-7.42
-9.85
-12.84
-16.36
-20.23
-24.06
-27.3
-29.29
-29.43
-27.34
-23.07
-17.08
-10.09
-2.87
3.96
9.99
14.95
18.66
20.99
21.9
21.52
20.22
18.44
16.65
15.14
14.01
13.18
12.5
11.9
11.39
11.04
10.91
11.01
11.24
11.4
11.27
10.63
9.41
7.61
5.36
2.84
0.24
-2.28
-4.66
-6.92
-9.21
-11.72
-14.57
-17.72
-20.93
-23.74
-25.65
-26.22
-25.16
-22.46
-18.28
-12.91
-6.75
-0.26
6.04
11.62
15.99
18.81
19.95
19.55
17.96
15.66
13.15
10.84
8.98
7.68
6.9
6.57
6.59
6.85
7.18
7.38
7.25
6.63
5.52
4.06
2.44
0.83
-0.71
-2.24
-3.89
-5.79
-8.07
-10.79
-14.02
-17.73
-21.75
-25.69
-29.0
-31.05
-31.34
-29.66
-26.1
-21.04
-14.97
-8.44
-1.91
4.2
9.55
13.87
16.99
18.87
19.63
19.47
18.63
17.35
15.81
14.21
12.74
11.55
10.75
10.37
10.31
10.42
10.55
10.58
10.42
10.01
9.23
7.98
6.14
3.74
0.99
-1.81
-4.36
-6.5
-8.29
-10.03
-12.07
-14.7
-17.98
-21.74
-25.54
-28.81
-30.93
-31.4
-29.93
-26.52
-21.46
-15.24
-8.47
-1.71
4.57
10.02
14.41
17.61
19.52
20.22
19.86
18.75
17.31
15.92
14.88
14.3
14.1
14.06
13.99
13.81
13.54
13.31
13.19
13.1
12.87
12.29
11.2
9.57
7.44
4.96
2.27
-0.43
-3.01
-5.36
-7.45
-9.34
-11.22
-13.3
-15.78
-18.66
-21.79
-24.8
-27.18
-28.35
-27.85
-25.47
-21.34
-15.87
-9.69
-3.4
2.5
7.74
12.13
15.52
17.77
18.76
18.54
17.37
15.65
13.82
12.24
11.06
10.31
9.9
9.74
9.72
9.78
9.86
9.89
9.8
9.51
8.94
8.02
6.71
4.99
2.98
0.8
-1.37
-3.44
-5.46
-7.57
-9.98
-12.85
-16.15
-19.66
-22.95
-25.51
-26.86
-26.69
-24.91
-21.6
-17.03
-11.59
-5.72
0.08
5.35
9.73
12.99
15.12
16.19
16.35
15.75
14.53
12.85
10.93
9.02
7.37
6.18
5.52
5.35
5.57
5.99
6.39
6.56
6.29
5.5
4.2
2.49
0.52
-1.62
-3.9
-6.3
-8.82
-11.46
-14.19
-17.04
-20.04
-23.16
-26.23
-28.86
-30.53
-30.7
-29.01
-25.42
-20.2
-13.85
-7.01
-0.26
5.86
10.93
14.65
16.89
17.68
17.31
16.17
14.7
13.23
11.94
10.86
9.95
9.16
8.51
8.02
7.74
7.61
7.54
7.4
7.06
6.45
5.49
4.13
2.31
0.06
-2.51
-5.19
-7.8
-10.26
-12.69
-15.31
-18.34
-21.8
-25.43
-28.75
-31.19
-32.19
-31.41
-28.69
-24.12
-17.97
-10.74
-3.1
4.24
10.65
15.7
19.24
21.32
22.15
21.96
21.03
19.65
18.13
16.76
15.74
15.1
14.76
14.58
14.44
14.31
14.22
14.14
13.98
13.53
12.61
11.14
9.18
6.94
4.6
2.28
-0.04
-2.43
-4.95
-7.63
-10.49
-13.56
-16.91
-20.55
-24.31
-27.78
-30.34
-31.32
-30.23
-26.88
-21.51
-14.65
-6.99
0.72
7.85
13.92
18.59
21.68
23.2
23.29
22.22
20.37
18.16
15.97
14.09
12.67
11.75
11.26
11.1
11.14
11.24
11.27
11.08
10.56
9.64
8.3
6.62
4.72
2.75
0.84
-0.93
-2.58
-4.2
-6.0
-8.24
-11.14
-14.79
-19.0
-23.27
-26.9
-29.07
-29.16
-26.89
-22.43
-16.34
-9.4
-2.38
4.09
9.61
13.99
17.14
19.06
19.78
19.41
18.14
16.22
13.92
11.52
9.27
7.39
6.04
5.35
5.31
5.74
6.36
6.83
6.86
6.29
5.1
3.35
1.16
-1.35
-4.03
-6.7
-9.2
-11.5
-13.73
-16.16
-19.01
-22.25
-25.49
-28.06
-29.2
-28.37
-25.38
-20.48
-14.2
-7.17
-0.01
6.76
12.7
17.47
20.86
22.76
23.26
22.55
20.94
18.8
16.49
14.31
12.47
11.05
10.06
9.43
9.09
8.95
8.9
8.81
8.47
7.69
6.33
4.39
2.0
-0.61
-3.24
-5.73
-8.09
-10.36
-12.71
-15.29
-18.24
-21.67
-25.47
-29.31
-32.56
-34.45
-34.25
-31.55
-26.43
-19.42
-11.33
-3.03
4.76
11.55
17.07
21.17
23.8
24.96
24.79
23.55
21.63
19.47
17.48
15.92
14.89
14.3
13.97
13.71
13.42
13.13
12.91
12.77
12.62
12.2
11.25
9.58
7.19
4.31
1.27
-1.57
-3.97
-5.97
-7.78
-9.83
-12.47
-15.91
-20.02
-24.3
-27.98
-30.25
-30.51
-28.46
-24.25
-18.35
-11.33
-3.85
3.52
10.29
16.05
20.47
23.32
24.59
24.44
23.23
21.39
19.36
17.43
15.74
14.3
13.09
12.09
11.39
11.09
11.22
11.68
12.2
12.43
12.08
11.04
9.36
7.21
4.82
2.34
-0.13
-2.57
-4.96
-7.36
-9.85
-12.59
-15.74
-19.34
-23.2
-26.87
-29.69
-30.99
-30.29
-27.44
-22.66
-16.46
-9.48
-2.4
4.2
9.88
14.31
17.34
18.91
19.14
18.19
16.38
14.04
11.55
9.28
7.48
6.28
5.68
5.53
5.65
5.89
6.11
6.21
6.08
5.59
4.61
3.11
1.18
-0.95
-3.05
-4.95
-6.72
-8.57
-10.8
-13.64
-17.11
-20.94
-24.61
-27.5
-28.98
-28.61
-26.2
-21.88
-16.07
-9.39
-2.53
3.89
9.41
13.75
16.79
18.56
19.11
18.62
17.31
15.49
13.48
11.56
9.93
8.65
7.67
6.96
6.49
6.32
6.44
6.8
7.19
7.28
6.78
5.51
3.49
0.93
-1.88
-4.64
-7.2
-9.53
-11.71
-13.93
-16.39
-19.22
-22.42
-25.78
-28.87
-31.12
-31.93
-30.86
-27.73
-22.67
-16.14
-8.78
-1.32
5.56
11.36
15.79
18.73
20.25
20.52
19.77
18.33
16.6
14.96
13.75
13.08
12.87
12.87
12.8
12.48
11.93
11.3
10.77
10.4
10.1
9.63
8.76
7.35
5.46
3.3
1.08
-1.09
-3.19
-5.33
-7.66
-10.32
-13.35
-16.74
-20.4
-24.03
-27.21
-29.35
-29.93
-28.58
-25.27
-20.3
-14.19
-7.54
-0.89
5.26
10.51
14.51
17.02
18.03
17.77
16.66
15.19
13.71
12.42
11.28
10.2
9.15
8.21
7.57
7.4
7.73
8.4
9.1
9.5
9.36
8.59
7.25
5.47
3.4
1.19
-1.02
-3.13
-5.12
-7.08
-9.19
-11.65
-14.51
-17.65
-20.69
-23.15
-24.51
-24.4
-22.67
-19.38
-14.79
-9.29
-3.38
2.39
7.5
11.55
14.3
15.73
15.97
15.25
13.84
12.04
10.15
8.47
7.22
6.47
6.16
6.14
6.25
6.38
6.53
6.67
6.74
6.55
5.89
4.62
2.75
0.47
-1.99
-4.42
-6.76
-9.05
-11.35
-13.76
-16.34
-19.11
-22.02
-24.87
-27.31
-28.86
-29.04
-27.54
-24.32
-19.62
-13.91
-7.73
-1.58
4.14
9.08
12.99
15.7
17.17
17.52
17.01
15.99
14.76
13.57
12.55
11.76
11.2
10.88
10.8
10.91
11.13
11.33
11.35
11.03
10.27
9.02
7.34
5.3
3.04
0.71
-1.59
-3.8
-5.93
-8.07
-10.35
-12.91
-15.81
-18.98
-22.17
-24.99
-26.99
-27.7
-26.76
-24.0
-19.45
-13.47
-6.63
0.35
6.76
12.03
15.88
18.25
19.28
19.2
18.28
16.8
15.07
13.41
12.08
11.22
10.78
10.6
10.54
10.46
10.37
10.28
10.16
9.88
9.3
8.29
6.88
5.22
3.48
1.78
0.11
-1.66
-3.67
-6.0
-8.63
-11.49
-14.51
-17.57
-20.49
-22.93
-24.47
-24.62
-23.07
-19.81
-15.12
-9.56
-3.76
1.73
6.48
10.24
12.89
14.43
14.95
14.62
13.66
12.27
10.67
9.03
7.52
6.31
5.51
5.18
5.22
5.5
5.83
6.06
6.12
5.95
5.52
4.74
3.52
1.8
-0.34
-2.73
-5.17
-7.52
-9.78
-12.09
-14.6
-17.39
-20.33
-23.12
-25.32
-26.54
-26.46
-24.93
-21.96
-17.65
-12.26
-6.16
0.14
6.07
11.06
14.75
16.97
17.83
17.57
16.5
14.9
13.0
11.04
9.23
7.78
6.84
6.45
6.53
6.93
7.41
7.75
7.72
7.2
6.14
4.66
2.93
1.15
-0.55
-2.2
-3.91
-5.78
-7.89
-10.23
-12.8
-15.65
-18.85
-22.38
-26.02
-29.24
-31.36
-31.75
-30.06
-26.37
-21.11
-14.92
-8.4
-2.04
3.88
9.17
13.66
17.16
19.49
20.59
20.54
19.56
17.99
16.16
14.36
12.82
11.67
11.01
10.87
11.17
11.78
12.48
13.03
13.22
12.91
12.02
10.53
8.51
6.09
3.46
0.83
-1.63
-3.84
-5.86
-7.84
-9.97
-12.47
-15.45
-18.88
-22.48
-25.73
-27.94
-28.46
-26.88
-23.24
-17.95
-11.7
-5.16
1.16
6.93
11.95
16.03
18.96
20.63
21.06
20.49
19.27
17.79
16.33
15.03
13.95
13.11
12.54
12.28
12.31
12.53
12.82
13.0
12.97
12.6
11.83
10.63
8.96
6.88
4.47
1.84
-0.86
-3.53
-6.11
-8.57
-10.96
-13.34
-15.82
-18.49
-21.34
-24.22
-26.8
-28.56
-28.94
-27.49
-24.09
-18.98
-12.74
-6.11
0.21
5.68
10.0
13.08
14.97
15.72
15.47
14.38
12.7
10.75
8.88
7.34
6.29
5.72
5.56
5.69
6.03
6.52
7.06
7.5
7.61
7.21
6.19
4.57
2.53
0.3
-1.88
-3.91
-5.81
-7.76
-9.97
-12.66
-15.84
-19.32
-22.67
-25.33
-26.74
-26.5
-24.46
-20.76
-15.72
-9.85
-3.64
2.38
7.72
12.01
14.97
16.53
16.82
16.13
14.82
13.25
11.68
10.24
8.98
7.91
7.03
6.35
5.9
5.7
5.78
6.04
6.35
6.48
6.15
5.21
3.6
1.45
-1.01
-3.58
-6.11
-8.6
-11.06
-13.54
-16.06
-18.68
-21.45
-24.43
-27.47
-30.21
-32.01
-32.17
-30.16
-25.87
-19.68
-12.32
-4.68
2.52
8.8
13.94
17.85
20.54
22.01
22.33
21.68
20.34
18.63
16.85
15.22
13.82
12.71
11.89
11.39
11.25
11.45
11.88
12.31
12.46
12.03
10.86
8.99
6.62
4.04
1.53
-0.78
-2.87
-4.88
-6.94
-9.14
-11.56
-14.19
-17.06
-20.1
-23.16
-25.9
-27.82
-28.32
-26.92
-23.42
-17.98
-11.14
-3.68
3.61
10.1
15.4
19.33
21.85
22.97
22.74
21.36
19.15
16.59
14.16
12.22
10.86
10.0
9.46
9.13
8.99
9.12
9.48
9.91
10.09
9.74
8.66
6.9
4.64
2.16
-0.28
-2.55
-4.63
-6.59
-8.66
-11.08
-14.02
-17.52
-21.32
-24.89
-27.55
-28.64
-27.73
-24.7
-19.81
-13.54
-6.48
0.72
7.5
13.35
17.9
20.89
22.28
22.17
20.87
18.78
16.37
14.05
12.12
10.71
9.78
9.17
8.7
8.25
7.83
7.51
7.37
7.35
7.26
6.83
5.83
4.21
2.05
-0.46
-3.1
-5.77
-8.38
-10.93
-13.4
-15.84
-18.4
-21.27
-24.58
-28.21
-31.72
-34.34
-35.23
-33.79
-29.89
-23.9
-16.53
-8.62
-0.86
6.27
12.48
17.55
21.3
23.57
24.33
23.75
22.17
20.1
18.02
16.34
15.24
14.73
14.62
14.7
14.75
14.61
14.27
13.76
13.18
12.53
11.78
10.78
9.37
7.48
5.18
2.63
0.04
-2.47
-4.86
-7.18
-9.48
-11.76
-14.03
-16.4
-19.07
-22.22
-25.8
-29.37
-32.12
-33.11
-31.63
-27.53
-21.24
-13.59
-5.48
2.36
9.44
15.46
20.16
23.37
24.99
25.09
24.02
22.23
20.24
18.44
17.06
16.12
15.57
15.31
15.2
15.19
15.2
15.17
15.07
14.85
14.45
13.8
12.84
11.48
9.7
7.49
4.95
2.19
-0.63
-3.37
-5.94
-8.3
-10.49
-12.62
-14.84
-17.3
-20.05
-22.99
-25.81
-28.08
-29.28
-28.95
-26.82
-22.9
-17.47
-11.03
-4.19
2.42
8.26
12.94
16.25
18.13
18.67
18.06
16.58
14.58
12.43
10.53
9.14
8.41
8.28
8.57
9.02
9.45
9.73
9.84
9.81
9.62
9.17
8.33
7.02
5.22
3.05
0.67
-1.75
-4.1
-6.36
-8.52
-10.62
-12.72
-14.93
-17.38
-20.22
-23.4
-26.66
-29.43
-31.02
-30.82
-28.51
-24.17
-18.28
-11.5
-4.52
2.1
7.94
12.69
16.17
18.26
19.0
18.57
17.26
15.46
13.53
11.72
10.23
9.15
8.53
8.34
8.47
8.78
9.06
9.2
9.17
9.0
8.71
8.25
7.48
6.21
4.32
1.81
-1.15
-4.3
-7.36
-10.09
-12.4
-14.28
-15.87
-17.39
-19.14
-21.36
-24.12
-27.24
-30.29
-32.64
-33.64
-32.8
-29.83
-24.82
-18.15
-10.47
-2.55
4.82
11.03
15.74
18.88
20.6
21.19
20.92
20.02
18.67
17.06
15.44
14.09
13.23
12.97
13.23
13.79
14.39
14.83
15.01
14.91
14.57
14.01
13.23
12.19
10.89
9.31
7.43
5.26
2.83
0.26
-2.29
-4.65
-6.72
-8.59
-10.42
-12.48
-14.94
-17.86
-21.14
-24.53
-27.68
-30.14
-31.42
-31.04
-28.72
-24.45
-18.6
-11.81
-4.82
1.76
7.56
12.37
16.09
18.59
19.74
19.53
18.13
15.91
13.36
10.97
9.08
7.85
7.31
7.4
7.98
8.87
9.82
10.54
10.83
10.59
9.83
8.64
7.09
5.25
3.16
0.9
-1.41
-3.64
-5.71
-7.67
-9.62
-11.72
-14.08
-16.73
-19.56
-22.42
-25.04
-27.05
-28.06
-27.67
-25.6
-21.83
-16.63
-10.51
-4.06
2.17
7.75
12.42
16.01
18.39
19.46
19.26
17.98
15.99
13.75
11.65
9.94
8.61
7.58
6.74
6.07
5.64
5.55
5.8
6.25
6.65
6.71
6.22
5.03
3.18
0.75
-2.08
-5.09
-8.02
-10.68
-13.0
-15.03
-17.03
-19.29
-22.06
-25.33
-28.8
-31.87
-33.84
-34.08
-32.26
-28.34
-22.6
-15.53
-7.73
0.16
7.48
13.68
18.35
21.31
22.64
22.63
21.67
20.17
18.43
16.67
15.03
13.64
12.59
11.95
11.79
12.04
12.56
13.13
13.5
13.46
12.9
11.85
10.36
8.54
6.43
4.12
1.69
-0.73
-3.02
-5.13
-7.17
-9.36
-11.95
-15.1
-18.71
-22.46
-25.83
-28.27
-29.25
-28.44
-25.67
-21.01
-14.75
-7.4
0.33
7.67
13.92
18.57
21.44
22.62
22.41
21.16
19.23
16.9
14.44
12.15
10.27
8.97
8.24
7.92
7.81
7.76
7.72
7.72
7.74
7.66
7.25
6.28
4.68
2.57
0.2
-2.19
-4.47
-6.67
-8.9
-11.27
-13.81
-16.48
-19.14
-21.56
-23.37
-24.09
-23.24
-20.53
-16.0
-10.09
-3.51
2.98
8.78
13.55
17.11
19.37
20.27
19.78
18.06
15.49
12.6
9.93
7.84
6.42
5.55
5.02
4.67
4.45
4.37
4.41
4.45
4.28
3.67
2.49
0.75
-1.42
-3.84
-6.34
-8.8
-11.2
-13.61
-16.15
-18.96
-22.07
-25.3
-28.23
-30.27
-30.77
-29.3
-25.73
-20.34
-13.63
-6.22
1.26
8.26
14.26
18.82
21.67
22.75
22.3
20.75
18.59
16.26
14.04
12.09
10.51
9.39
8.82
8.81
9.26
9.96
10.62
10.97
10.78
9.97
8.51
6.49
4.06
1.43
-1.18
-3.64
-5.91
-8.09
-10.38
-12.96
-15.93
-19.22
-22.54
-25.47
-27.48
-28.06
-26.86
-23.71
-18.76
-12.41
-5.24
2.06
8.87
14.68
19.13
22.04
23.39
23.33
22.16
20.25
17.99
15.7
13.63
11.93
10.68
9.93
9.67
9.82
10.25
10.75
11.12
11.22
10.94
10.25
9.13
7.58
5.64
3.41
1.02
-1.38
-3.7
-5.97
-8.34
-10.98
-14.01
-17.37
-20.75
-23.67
-25.54
-25.83
-24.2
-20.64
-15.44
-9.21
-2.62
3.67
9.2
13.66
16.91
18.91
19.67
19.24
17.77
15.49
12.74
9.87
7.23
5.08
3.6
2.84
2.78
3.29
4.18
5.2
6.07
6.5
6.29
5.33
3.73
1.72
-0.4
-2.43
-4.31
-6.14
-8.12
-10.44
-13.17
-16.25
-19.5
-22.58
-25.02
-26.26
-25.8
-23.33
-18.89
-12.9
-6.07
0.8
7.06
12.25
16.1
18.51
19.44
18.97
17.32
14.89
12.19
9.69
7.75
6.5
5.89
5.77
5.97
6.3
6.62
6.79
6.75
6.48
6.05
5.49
4.77
3.74
2.21
0.09
-2.57
-5.47
-8.22
-10.57
-12.45
-14.12
-15.95
-18.29
-21.23
-24.55
-27.75
-30.19
-31.24
-30.42
-27.49
-22.55
-15.99
-8.47
-0.77
6.37
12.42
17.05
20.19
21.87
22.21
21.4
19.69
17.48
15.21
13.29
11.99
11.36
11.31
11.63
12.16
12.74
13.23
13.48
13.36
12.79
11.8
10.49
8.96
7.28
5.42
3.33
0.99
-1.5
-4.01
-6.4
-8.6
-10.61
-12.48
-14.28
-16.06
-17.91
-19.97
-22.28
-24.79
-27.09
-28.56
-28.5
-26.38
-22.07
-15.93
-8.71
-1.26
5.64
11.48
15.98
19.03
20.68
21.03
20.28
18.76
16.81
14.82
13.07
11.75
10.94
10.59
10.61
10.85
11.17
11.41
11.46
11.23
10.73
10.01
9.09
8.01
6.72
5.21
3.45
1.46
-0.71
-2.98
-5.3
-7.6
-9.83
-11.96
-13.98
-15.98
-18.04
-20.2
-22.38
-24.26
-25.35
-25.16
-23.29
-19.67
-14.57
-8.5
-2.15
3.88
9.11
13.2
16.0
17.43
17.53
16.48
14.6
12.31
10.04
8.16
6.87
6.2
6.05
6.25
6.6
6.96
7.23
7.34
7.25
6.89
6.22
5.18
3.78
2.07
0.15
-1.86
-3.89
-5.88
-7.84
-9.78
-11.71
-13.66
-15.75
-18.12
-20.88
-23.97
-27.06
-29.55
-30.75
-30.14
-27.47
-22.95
-17.06
-10.46
-3.79
2.41
7.79
12.1
15.21
17.08
17.73
17.3
16.02
14.24
12.36
10.76
9.72
9.35
9.57
10.14
10.77
11.23
11.38
11.22
10.84
10.26
9.47
8.38
6.95
5.17
3.16
1.04
-1.06
-3.09
-5.01
-6.8
-8.44
-9.91
-11.31
-12.82
-14.71
-17.15
-20.13
-23.36
-26.34
-28.5
-29.32
-28.45
-25.78
-21.44
-15.77
-9.31
-2.64
3.69
9.23
13.76
17.18
19.51
20.79
21.05
20.35
18.82
16.73
14.47
12.51
11.21
10.76
11.08
11.89
12.81
13.54
13.94
14.02
13.81
13.27
12.35
10.94
9.05
6.83
4.48
2.17
-0.01
-2.09
-4.14
-6.2
-8.27
-10.3
-12.29
-14.26
-16.3
-18.45
-20.7
-22.96
-25.03
-26.6
-27.29
-26.66
-24.4
-20.45
-15.02
-8.65
-2.0
4.28
9.64
13.76
16.5
17.83
17.88
16.87
15.14
13.08
11.06
9.37
8.14
7.4
7.06
7.07
7.32
7.72
8.14
8.43
8.42
7.99
7.09
5.76
4.1
2.3
0.49
-1.18
-2.65
-3.98
-5.27
-6.74
-8.62
-11.09
-14.16
-17.65
-21.1
-23.92
-25.48
-25.36
-23.37
-19.64
-14.53
-8.5
-2.15
3.93
9.16
13.18
15.83
17.24
17.69
17.47
16.75
15.55
13.89
11.87
9.72
7.73
6.12
4.99
4.27
3.91
3.85
4.08
4.49
4.88
4.93
4.34
2.94
0.81
-1.82
-4.6
-7.25
-9.58
-11.56
-13.31
-15.03
-17.0
-19.45
-22.43
-25.75
-28.95
-31.31
-32.11
-30.83
-27.31
-21.85
-15.1
-7.84
-0.77
5.61
11.0
15.26
18.26
19.94
20.3
19.5
17.85
15.79
13.76
12.06
10.83
10.06
9.64
9.44
9.38
9.45
9.63
9.91
10.24
10.5
10.52
10.15
9.27
7.88
6.02
3.77
1.24
-1.47
-4.25
-6.98
-9.55
-11.97
-14.37
-16.95
-19.89
-23.15
-26.37
-28.97
-30.25
-29.67
-27.03
-22.51
-16.52
-9.66
-2.51
4.36
10.45
15.38
18.91
21.0
21.82
21.64
20.76
19.4
17.76
16.0
14.36
13.09
12.36
12.22
12.51
12.97
13.34
13.51
13.48
13.32
13.02
12.48
11.53
10.03
8.02
5.66
3.17
0.74
-1.6
-3.92
-6.31
-8.81
-11.38
-13.99
-16.63
-19.35
-22.13
-24.76
-26.85
-27.88
-27.4
-25.17
-21.25
-15.95
-9.74
-3.13
3.37
9.3
14.23
17.78
19.73
20.03
18.85
16.59
13.75
10.87
8.44
6.75
5.89
5.77
6.17
6.84
7.59
8.25
8.71
8.8
8.41
7.47
6.02
4.25
2.34
0.48
-1.29
-2.99
-4.73
-6.58
-8.62
-10.92
-13.51
-16.4
-19.42
-22.23
-24.31
-25.13
-24.26
-21.56
-17.22
-11.7
-5.59
0.48
6.02
10.68
14.24
16.62
17.81
17.88
16.96
15.28
13.15
10.92
8.92
7.37
6.32
5.71
5.41
5.3
5.33
5.5
5.81
6.13
6.26
5.94
4.99
3.4
1.34
-0.94
-3.21
-5.39
-7.51
-9.72
-12.15
-14.87
-17.89
-21.19
-24.65
-28.0
-30.81
-32.46
-32.36
-30.12
-25.73
-19.61
-12.47
-5.11
1.81
7.82
12.69
16.31
18.66
19.77
19.75
18.83
17.29
15.49
13.73
12.25
11.16
10.51
10.24
10.27
10.52
10.86
11.18
11.36
11.26
10.75
9.77
8.31
6.44
4.31
2.06
-0.18
-2.37
-4.57
-6.89
-9.44
-12.32
-15.53
-19.01
-22.52
-25.68
-27.98
-28.86
-27.89
-24.87
-20.0
-13.77
-6.85
0.06
6.41
11.84
16.13
19.19
20.95
21.4
20.67
19.0
16.84
14.71
13.05
12.13
11.9
12.13
12.47
12.71
12.76
12.69
12.59
12.48
12.23
11.66
10.58
8.9
6.69
4.13
1.43
-1.2
-3.6
-5.77
-7.76
-9.74
-11.9
-14.35
-17.08
-19.92
-22.54
-24.48
-25.27
-24.53
-22.0
-17.72
-12.01
-5.46
1.21
7.3
12.28
15.86
17.99
18.81
18.5
17.32
15.54
13.46
11.38
9.57
8.2
7.36
7.04
7.14
7.56
8.11
8.62
8.86
8.67
7.97
6.79
