0
12.8
7.46
1.82
-5.12
-13.67
-23.31
-32.98
-41.57
-48.56
-54.19
-59.49
-65.84
-74.6
-86.7
-102.2
-119.95
-137.28
-150.27
-154.56
-146.8
-125.92
-93.83
-54.95
-14.79
21.78
51.68
73.83
88.59
96.8
99.27
96.77
90.37
81.75
73.04
66.3
62.81
62.66
64.79
67.48
69.19
69.1
67.37
64.79
62.16
59.75
57.05
53.11
47.06
38.73
28.81
18.62
9.41
1.87
-4.27
-9.98
-16.53
-24.78
-34.82
-45.9
-56.76
-66.23
-73.7
-79.47
-84.62
-90.71
-99.33
-111.61
-127.75
-146.56
-165.22
-179.53
-184.77
-177.14
-155.24
-120.81
-78.46
-34.17
6.6
40.37
66.06
84.27
96.25
102.91
104.73
102.19
96.36
89.12
82.74
79.05
78.72
81.01
84.17
86.25
86.01
83.35
79.19
74.85
71.27
68.46
65.59
61.38
54.86
45.94
35.47
24.87
15.46
7.89
1.83
-3.77
-10.22
-18.46
-28.59
-39.83
-50.93
-60.67
-68.45
-74.53
-79.94
-86.17
-94.7
-106.65
-122.36
-141.12
-160.72
-177.53
-187.0
-184.86
-168.6
-138.67
-98.63
-54.11
-11.02
26.22
55.56
77.1
91.96
101.29
105.7
105.54
101.54
95.12
88.32
83.07
80.57
80.76
82.61
84.58
85.39
84.51
82.22
79.3
76.54
74.29
72.23
69.51
65.14
58.44
49.45
38.94
28.2
18.51
10.66
4.63
-0.4
-5.63
-12.16
-20.44
-30.1
-40.15
-49.45
-57.29
-63.68
-69.39
-75.66
-83.77
-94.77
-109.13
-126.47
-145.25
-162.57
-174.39
-176.47
-165.71
-141.4
-105.8
-63.64
-20.56
18.5
50.51
74.53
91.03
100.96
105.15
104.34
99.49
92.2
84.58
78.65
75.64
75.58
77.41
79.5
80.52
79.9
77.97
75.48
73.12
70.93
68.24
64.08
57.62
48.79
38.4
27.79
18.28
10.52
4.23
-1.66
-8.43
-16.95
-27.25
-38.52
-49.51
-59.08
-66.76
-72.84
-78.36
-84.77
-93.51
-105.66
-121.51
-140.06
-158.73
-173.51
-179.74
-173.52
-153.15
-120.11
-78.71
-34.85
5.87
39.71
65.35
83.32
94.97
101.41
103.27
101.0
95.47
88.28
81.52
77.07
75.88
77.63
80.93
83.96
85.28
84.35
81.59
77.97
74.4
71.18
67.84
63.41
56.93
48.06
37.31
25.94
15.41
6.78
0.27
-4.84
-9.84
-16.05
-24.26
-34.43
-45.69
-56.8
-66.65
-74.7
-81.22
-87.15
-93.83
-102.63
-114.7
-130.54
-149.63
-170.01
-188.09
-199.22
-198.77
-183.86
-154.51
-114.09
-68.21
-23.01
16.73
48.62
72.46
89.32
100.37
106.34
107.66
104.95
99.51
93.19
87.92
85.04
84.83
86.55
88.83
90.31
90.18
88.4
85.55
82.47
79.72
77.25
74.39
70.12
63.6
54.65
43.95
32.84
22.75
14.63
8.47
3.37
-2.07
-9.04
-18.03
-28.58
-39.49
-49.46
-57.67
-64.15
-69.76
-75.85
-83.81
-94.71
-109.03
-126.44
-145.53
-163.59
-176.74
-180.74
-172.21
-150.02
-115.99
-74.51
-31.2
8.86
42.4
68.33
87.05
99.48
106.3
107.99
105.21
99.31
92.29
86.34
83.05
82.84
84.9
87.67
89.6
89.78
88.19
85.5
82.5
79.6
76.49
72.33
66.22
57.75
47.33
36.17
25.69
16.98
10.2
4.59
-1.14
-8.22
-17.17
-27.66
-38.69
-49.1
-58.07
-65.47
-71.93
-78.63
-86.99
-98.35
-113.42
-131.86
-151.83
-169.9
-181.57
-182.41
-169.54
-142.8
-105.14
-61.75
-18.44
20.08
51.27
74.69
91.21
101.85
107.29
107.91
104.37
97.99
90.76
84.74
81.33
80.79
82.25
84.24
85.38
84.94
83.02
80.25
77.36
74.62
71.64
67.53
61.36
52.69
41.96
30.4
19.56
10.58
3.69
-1.92
-7.7
-15.04
-24.65
-36.18
-48.48
-60.1
-69.95
-77.79
-84.29
-90.84
-99.11
-110.56
-125.95
-144.98
-165.83
-185.14
-198.37
-200.87
-189.35
-163.16
-124.86
-79.6
-33.49
8.25
42.6
68.91
88.07
101.34
109.49
112.84
111.75
107.28
101.29
95.97
92.97
92.79
94.57
96.73
97.67
96.59
93.66
89.74
85.81
82.4
79.29
75.62
70.34
62.72
52.8
41.43
30.02
19.95
12.03
6.1
1.15
-4.25
-11.3
-20.44
-31.18
-42.38
-52.74
-61.4
-68.25
-73.98
-79.86
-87.34
-97.73
-111.8
-129.39
-148.97
-167.49
-180.72
-184.19
-174.64
-151.32
-116.56
-75.15
-32.89
5.28
36.48
60.05
76.77
87.79
93.83
95.21
92.4
86.56
79.6
73.72
70.55
70.53
72.85
75.93
78.29
79.14
78.65
77.55
76.6
75.93
74.96
72.59
67.86
60.46
51.03
40.94
31.69
24.24
18.56
13.77
8.56
1.87
-6.6
-16.33
-26.26
-35.32
-42.93
-49.21
-54.93
-61.3
-69.62
-80.95
-95.68
-113.05
-130.87
-145.68
-153.41
-150.56
-135.43
-108.86
-74.12
-35.89
1.12
33.39
59.08
77.75
89.76
95.68
96.14
92.04
84.85
76.55
69.27
64.62
63.14
64.28
66.65
68.78
69.71
69.22
67.7
65.65
63.27
60.18
55.7
49.21
40.65
30.63
20.27
10.73
2.6
-4.32
-10.94
-18.42
-27.57
-38.41
-50.12
-61.43
-71.24
-79.14
-85.61
-91.9
-99.62
-110.28
-124.81
-142.93
-162.83
-180.99
-192.74
-193.46
-180.2
-152.87
-114.58
-70.7
-27.1
11.62
43.13
67.21
84.79
96.9
104.07
106.56
104.87
100.25
94.6
89.92
87.54
87.68
89.42
91.31
92.04
91.03
88.53
85.31
82.12
79.14
75.92
71.57
65.22
56.54
46.02
34.81
24.29
15.5
8.66
3.0
-2.79
-10.04
-19.39
-30.54
-42.38
-53.55
-63.1
-70.88
-77.62
-84.6
-93.27
-104.9
-120.22
-139.07
-159.91
-179.62
-193.79
-197.74
-188.03
-163.91
-127.83
-84.78
-40.7
-0.53
32.92
59.08
78.79
93.03
102.33
106.74
106.48
102.56
96.87
91.69
88.84
88.97
91.36
94.41
96.46
96.55
94.7
91.69
88.47
85.58
82.83
79.46
74.52
67.42
58.22
47.65
36.9
27.14
19.12
12.84
7.64
2.36
-4.13
-12.53
-22.76
-34.03
-45.18
-55.12
-63.39
-70.2
-76.5
-83.58
-92.72
-104.91
-120.46
-138.67
-157.44
-173.29
-181.94
-179.42
-163.49
-134.68
-96.32
-53.62
-11.97
24.54
53.88
75.9
91.45
101.44
106.51
107.07
103.89
98.33
92.27
87.62
85.64
86.53
89.41
92.76
95.08
95.46
93.87
90.94
87.47
83.99
80.36
75.9
69.74
61.36
50.93
39.36
28.02
18.12
10.29
4.22
-1.14
-7.14
-14.85
-24.55
-35.71
-47.2
-57.89
-67.09
-74.83
-81.75
-88.89
-97.32
-108.1
-121.97
-139.12
-158.62
-177.96
-193.08
-199.21
-192.34
-170.85
-136.37
-93.44
-48.05
-5.67
30.16
58.3
79.27
94.18
103.88
108.72
109.0
105.53
99.88
94.1
90.08
88.81
90.12
92.84
95.35
96.37
95.32
92.53
88.83
85.06
81.6
78.19
74.07
68.39
60.64
50.98
40.17
29.37
19.63
11.52
4.85
-1.21
-7.82
-15.94
-25.96
-37.52
-49.67
-61.28
-71.52
-80.18
-87.73
-95.18
-103.76
-114.74
-129.05
-146.96
-167.57
-188.38
-205.31
-213.5
-208.66
-188.72
-154.81
-111.15
-63.76
-18.5
20.54
51.67
75.23
92.35
104.0
110.61
112.43
110.14
105.18
99.61
95.41
93.72
94.54
96.78
98.91
99.67
98.55
95.88
92.48
89.12
86.07
82.94
78.96
73.3
65.57
56.03
45.5
35.03
25.53
17.42
10.56
4.36
-1.98
-9.14
-17.48
-26.91
-36.93
-46.86
-56.11
-64.37
-71.81
-78.99
-86.77
-96.13
-107.97
-122.82
-140.43
-159.29
-176.39
-187.52
-188.42
-176.13
-150.29
-113.56
-70.83
-27.65
11.4
43.74
68.69
86.76
98.64
104.83
105.75
102.3
96.2
89.72
85.08
83.58
85.22
88.82
92.65
95.25
95.97
95.08
93.37
91.57
89.82
87.57
83.79
77.55
68.62
57.59
45.79
34.69
25.29
17.71
11.16
4.37
-3.82
-13.88
-25.44
-37.4
-48.51
-57.85
-65.32
-71.61
-78.09
-86.29
-97.48
-112.22
-129.9
-148.56
-164.84
-174.59
-173.87
-160.22
-133.72
-97.22
-55.58
-14.23
22.45
52.05
74.09
89.24
98.42
102.26
101.32
96.53
89.54
82.55
77.56
75.68
76.68
79.26
81.76
82.91
82.32
80.43
78.0
75.62
73.2
70.07
65.26
58.07
48.51
37.45
26.25
16.22
8.01
1.31
-4.98
-12.22
-21.38
-32.53
-44.84
-57.01
-67.82
-76.68
-83.91
-90.63
-98.42
-108.84
-123.02
-141.12
-161.94
-182.71
-199.31
-207.06
-202.04
-182.45
-149.44
-107.01
-60.82
-16.48
21.98
52.76
75.94
92.53
103.48
109.31
110.4
107.54
102.26
96.64
92.61
91.22
92.25
94.4
96.02
95.93
93.86
90.48
86.81
83.62
80.89
77.87
73.4
66.61
57.31
46.23
34.67
24.0
15.08
7.96
1.88
-4.34
-11.75
-20.89
-31.56
-42.93
-53.93
-63.67
-71.88
-78.97
-86.06
-94.56
-105.85
-120.77
-139.11
-159.25
-178.07
-191.32
-194.66
-184.97
-161.54
-126.6
-84.72
-41.45
-1.68
31.57
57.36
76.23
89.16
96.99
100.22
99.47
95.9
91.21
87.21
85.14
85.24
86.75
88.43
89.24
88.78
87.32
85.41
83.41
81.23
78.3
73.94
67.74
59.78
50.67
41.32
32.54
24.75
17.83
11.2
4.16
-3.84
-12.84
-22.42
-31.9
-40.64
-48.38
-55.37
-62.39
-70.59
-81.15
-94.83
-111.4
-129.15
-144.87
-154.43
-153.93
-141.1
-116.24
-82.26
-43.79
-5.73
28.03
55.27
75.37
88.63
95.76
97.52
94.84
89.0
81.7
74.74
69.58
66.96
66.71
67.99
69.68
70.83
70.93
69.83
67.6
64.25
59.67
53.67
46.27
37.82
28.95
20.33
12.3
4.74
-2.9
-11.28
-20.74
-31.08
-41.64
-51.59
-60.38
-68.02
-75.18
-82.94
-92.59
-105.17
-121.12
-139.68
-158.65
-174.29
-182.16
-178.29
-160.71
-130.38
-91.12
-48.38
-7.57
27.49
55.17
75.6
89.69
98.28
101.88
100.97
96.59
90.45
84.59
80.73
79.54
80.57
82.6
84.3
84.81
84.04
82.34
80.13
77.48
73.98
68.97
61.98
53.07
42.88
32.44
22.62
13.78
5.58
-2.8
-12.13
-22.71
-34.14
-45.54
-56.01
-65.07
-72.99
-80.63
-89.31
-100.34
-114.7
-132.54
-152.72
-172.5
-187.74
-193.78
-186.91
-165.81
-132.27
-90.82
-47.21
-6.66
27.55
54.4
74.41
88.61
97.75
102.18
102.28
99.04
94.14
89.53
86.68
86.09
87.06
88.26
88.41
86.91
84.06
80.68
77.59
75.0
72.39
68.72
63.01
54.89
44.83
34.0
23.75
15.07
8.12
2.18
-3.93
-11.31
-20.42
-30.83
-41.45
-51.1
-59.04
-65.36
-71.06
-77.66
-86.75
-99.47
-116.04
-135.34
-154.76
-170.42
-177.99
-173.84
-156.36
-126.68
-88.47
-46.87
-6.9
27.82
55.6
76.27
90.49
98.92
102.13
100.78
96.03
89.67
83.77
80.06
79.26
80.95
83.8
86.33
87.54
87.22
85.81
83.91
81.76
79.08
75.2
69.52
61.87
52.71
42.95
33.52
24.95
17.18
9.55
1.23
-8.39
-19.36
-31.08
-42.51
-52.67
-61.08
-68.05
-74.65
-82.42
-92.87
-106.99
-124.68
-144.35
-162.86
-175.89
-179.05
-169.27
-146.01
-111.68
-71.01
-29.48
8.33
39.8
64.28
82.26
94.44
101.22
102.9
100.18
94.6
88.3
83.37
81.09
81.52
83.58
85.74
86.69
85.84
83.43
80.15
76.63
73.04
69.02
63.81
56.82
47.99
37.97
27.91
18.83
11.17
4.5
-2.26
-10.28
-20.25
-32.0
-44.56
-56.61
-67.13
-75.78
-83.1
-90.34
-99.08
-110.81
-126.35
-145.45
-166.33
-185.62
-198.82
-201.39
-190.22
-164.8
-127.68
-83.81
-38.97
1.97
36.21
63.08
83.33
97.97
107.58
112.37
112.68
109.55
104.78
100.36
97.77
97.3
98.13
98.84
98.26
96.07
92.81
89.48
86.82
84.78
82.47
78.56
71.96
62.34
50.41
37.66
25.72
15.73
7.88
1.39
-5.08
-12.83
-22.46
-33.75
-45.71
-57.1
-66.97
-75.02
-81.77
-88.45
-96.6
-107.73
-122.66
-141.12
-161.19
-179.42
-191.35
-192.67
-180.65
-155.14
-118.82
-76.45
-33.42
5.85
38.8
64.7
83.94
97.2
104.93
107.48
105.58
100.67
94.81
90.09
87.79
88.03
89.77
91.49
91.94
90.68
88.2
85.39
82.97
80.98
78.76
75.17
69.25
60.72
50.24
39.14
28.9
20.48
13.88
8.22
2.15
-5.36
-14.58
-24.84
-34.94
-43.76
-50.8
-56.39
-61.53
-67.53
-75.65
-86.82
-101.39
-118.74
-137.04
-153.05
-162.68
-162.0
-148.6
-122.66
-87.11
-46.79
-6.92
28.31
56.6
77.41
91.33
99.24
101.97
100.28
95.29
88.58
82.04
77.37
75.48
76.14
78.24
80.26
81.08
80.29
78.26
75.59
72.59
69.02
64.15
57.26
48.26
37.83
27.23
17.72
9.93
3.61
-2.27
-8.95
-17.26
-27.29
-38.36
-49.42
-59.58
-68.5
-76.53
-84.67
-94.18
-106.24
-121.55
-139.76
-159.17
-176.55
-187.67
-188.37
-175.92
-150.25
-114.05
-72.18
-30.03
8.05
39.61
64.11
82.08
94.27
101.12
103.02
100.69
95.62
89.82
85.25
83.13
83.5
85.33
87.12
87.63
86.4
83.78
80.59
77.51
74.72
71.63
67.31
60.88
52.07
41.41
30.08
19.39
10.19
2.51
-4.45
-11.87
-20.72
-31.27
-42.92
-54.57
-65.05
-73.71
-80.7
-86.93
-93.8
-102.82
-115.25
-131.61
-151.22
-171.84
-189.67
-200.01
-198.55
-182.86
-153.48
-113.94
-69.68
-26.3
12.05
43.43
67.81
86.06
98.95
106.78
109.66
108.08
103.4
97.66
92.89
90.43
90.38
91.78
93.13
93.21
91.5
88.37
84.64
81.1
78.01
74.99
71.19
65.7
58.01
48.3
37.4
26.52
16.83
8.93
2.67
-2.84
-8.78
-16.11
-25.17
-35.48
-46.06
-55.81
-64.03
-70.77
-76.75
-83.16
-91.31
-102.29
-116.69
-134.22
-153.4
-171.33
-184.0
-187.11
-177.43
-154.11
-119.26
-77.46
-34.37
5.07
37.83
63.08
81.47
94.07
101.66
104.57
103.25
98.71
92.69
87.18
83.75
82.94
84.2
86.29
87.97
88.51
87.95
86.71
85.22
83.43
80.76
76.37
69.67
60.73
50.41
40.03
30.79
23.18
16.78
10.5
3.17
-5.87
-16.4
-27.5
-38.01
-47.16
-54.82
-61.6
-68.53
-76.78
-87.37
-100.91
-117.2
-134.84
-151.02
-161.85
-163.25
-152.4
-128.87
-95.02
-55.41
-15.3
20.89
50.51
72.79
88.14
97.36
101.22
100.39
95.88
89.19
82.23
76.79
73.96
73.73
75.15
76.83
77.6
76.97
75.12
72.61
69.8
66.58
62.37
56.49
48.61
39.05
28.75
18.79
10.03
2.53
-4.32
-11.59
-20.24
-30.62
-42.26
-54.04
-64.71
-73.44
-80.29
-86.16
-92.62
-101.41
-113.87
-130.45
-150.19
-170.44
-187.08
-195.31
-191.0
-172.22
-140.09
-98.61
-53.44
-10.12
27.46
57.58
80.31
96.56
107.21
112.81
113.86
111.21
106.25
100.77
96.34
93.78
92.96
92.97
92.64
91.12
88.31
84.75
81.28
78.45
76.09
73.28
68.78
61.66
51.86
40.29
28.46
17.84
9.15
2.07
-4.54
-12.09
-21.55
-33.01
-45.64
-58.13
-69.26
-78.44
-85.97
-92.91
-100.73
-110.89
-124.37
-141.34
-160.68
-179.85
-194.97
-201.58
-195.89
-176.17
-143.55
-101.95
-56.84
-13.61
23.91
54.01
76.7
92.77
102.98
107.83
107.88
104.27
98.81
93.61
90.37
89.75
91.2
93.36
94.84
94.84
93.42
91.27
89.09
87.15
85.04
81.8
76.46
68.54
58.36
46.97
35.78
25.96
17.99
11.47
5.39
-1.39
-9.61
-19.25
-29.6
-39.62
-48.44
-55.75
-61.98
-68.16
-75.59
-85.53
-98.81
-115.42
-134.03
-151.84
-164.81
-168.66
-160.12
-138.26
-105.06
-64.88
-23.2
15.11
46.91
71.08
87.92
98.3
103.0
102.68
98.28
91.31
83.87
78.0
75.03
75.05
77.01
79.34
80.7
80.55
79.15
77.08
74.71
71.79
67.58
61.35
52.81
42.44
31.38
20.89
11.79
4.09
-2.99
-10.64
-19.76
-30.57
-42.42
-54.1
-64.43
-72.87
-79.75
-86.17
-93.62
-103.52
-116.81
-133.57
-152.63
-171.36
-185.76
-191.21
-183.92
-162.32
-127.97
-85.31
-40.22
1.88
37.42
65.2
85.62
99.66
108.04
111.17
109.57
104.51
97.94
92.05
88.44
87.54
88.56
90.0
90.46
89.22
86.48
83.08
79.92
77.39
75.05
71.83
66.53
58.48
47.95
36.13
24.62
14.72
6.84
0.39
-5.95
-13.53
-23.06
-34.38
-46.52
-58.22
-68.5
-77.06
-84.4
-91.67
-100.32
-111.69
-126.63
-144.91
-164.88
-183.24
-195.51
-197.15
-185.02
-158.66
-120.76
-76.45
-31.62
8.82
42.15
67.81
86.59
99.49
107.11
109.74
107.93
103.03
97.06
92.15
89.72
89.92
91.72
93.53
94.0
92.6
89.79
86.48
83.53
81.19
78.95
75.79
70.66
63.06
53.29
42.43
31.82
22.59
15.14
9.01
3.16
-3.54
-11.77
-21.53
-32.1
-42.49
-51.79
-59.64
-66.32
-72.63
-79.73
-88.79
-100.76
-115.95
-133.7
-151.92
-167.15
-175.12
-171.99
-155.67
-126.8
-88.73
-46.53
-5.44
30.62
59.64
81.28
96.1
104.74
107.76
105.87
100.35
93.16
86.55
82.29
81.12
82.51
85.04
87.15
87.79
86.75
84.51
81.77
78.95
75.87
71.88
66.17
58.26
48.37
37.39
26.58
16.99
9.03
2.22
-4.53
-12.4
-22.05
-33.3
-45.19
-56.46
-66.11
-73.87
-80.3
-86.66
-94.5
-105.27
-119.84
-138.0
-157.94
-176.27
-188.41
-189.82
-177.51
-151.21
-113.7
-70.01
-25.79
14.3
47.59
73.35
92.03
104.38
110.97
112.27
109.15
103.13
96.3
90.74
87.76
87.52
89.01
90.67
91.06
89.52
86.33
82.38
78.58
75.3
72.14
68.1
62.16
53.79
43.32
31.8
20.63
10.97
3.23
-3.05
-9.0
-15.88
-24.54
-35.03
-46.6
-58.06
-68.3
-76.78
-83.82
-90.46
-98.15
-108.33
-121.97
-139.23
-158.94
-178.51
-193.92
-200.61
-194.64
-174.25
-140.62
-97.85
-51.71
-7.85
29.79
59.59
81.79
97.46
107.46
112.25
112.17
108.08
101.71
95.29
90.8
89.19
90.04
91.92
93.15
92.62
90.22
86.67
82.97
79.75
76.92
73.73
69.13
62.4
53.42
42.86
31.87
21.66
13.02
6.03
0.07
-5.96
-13.1
-21.93
-32.22
-43.06
-53.29
-62.0
-69.03
-75.13
-81.67
-90.16
-101.77
-116.91
-135.01
-154.28
-171.76
-183.62
-185.91
-175.72
-152.25
-117.45
-75.56
-32.02
8.25
41.97
67.9
86.34
98.21
104.4
105.6
102.7
97.04
90.52
85.09
82.09
81.79
83.4
85.56
87.06
87.32
86.47
85.02
83.28
81.08
77.79
72.61
65.2
55.86
45.57
35.56
26.72
19.24
12.48
5.4
-2.96
-12.94
-24.15
-35.62
-46.3
-55.57
-63.45
-70.64
-78.28
-87.65
-99.74
-114.95
-132.65
-150.83
-166.09
-174.18
-171.13
-154.66
-125.27
-86.35
-43.23
-1.5
34.51
62.62
82.53
95.09
101.38
102.31
98.82
92.2
84.27
77.12
72.39
70.71
71.6
73.75
75.71
76.51
75.9
74.19
71.79
68.83
64.98
59.62
52.29
43.0
32.43
21.63
11.65
3.03
-4.41
-11.54
-19.43
-28.88
-39.93
-51.89
-63.57
-73.87
-82.32
-89.33
-96.13
-104.42
-115.73
-130.89
-149.44
-169.37
-187.1
-198.09
-197.97
-183.92
-155.79
-116.41
-70.87
-25.01
16.28
50.05
75.5
93.22
104.31
109.72
110.27
106.97
101.33
95.28
90.65
88.45
88.58
89.91
90.9
90.42
88.18
84.79
81.24
78.24
75.75
72.94
68.58
61.77
52.41
41.32
29.93
19.61
11.08
4.15
-2.12
-8.97
-17.32
-27.43
-38.75
-50.26
-60.92
-70.12
-78.02
-85.43
-93.68
-104.17
-117.94
-135.24
-155.03
-174.71
-190.32
-197.24
-191.6
-171.71
-138.85
-97.12
-52.2
-9.46
27.37
56.73
78.78
94.33
104.07
108.4
107.87
103.64
97.61
91.92
88.26
87.29
88.49
90.66
92.54
93.42
93.2
92.26
90.98
89.32
86.77
82.58
76.16
67.5
57.32
46.77
37.01
28.66
21.53
14.8
7.37
-1.51
-11.91
-23.17
-34.25
-44.19
-52.61
-59.87
-67.05
-75.65
-87.06
-102.04
-120.19
-139.55
-156.66
-167.16
-166.98
-153.68
-127.44
-91.24
-50.02
-9.14
27.15
56.46
78.31
93.27
102.18
105.67
104.4
99.43
92.5
85.77
81.14
79.59
80.78
83.44
85.99
87.3
87.05
85.64
83.63
81.2
77.88
72.73
64.84
53.94
40.66
26.41
12.8
1.02
-8.7
-17.09
-25.4
-34.74
-45.54
-57.31
-68.94
-79.3
-87.75
-94.51
-100.59
-107.5
-116.84
-129.83
-146.7
-166.26
-185.57
-200.25
-205.43
-197.26
-174.39
-138.66
-94.67
-48.26
-4.68
32.69
62.7
85.7
102.51
113.66
119.38
120.03
116.64
111.0
105.27
101.19
99.48
99.64
100.41
100.46
99.07
96.39
93.17
90.18
87.63
84.94
80.94
74.53
65.26
53.66
41.1
29.19
19.12
11.14
4.52
-2.05
-9.82
-19.46
-30.74
-42.72
-54.2
-64.28
-72.73
-80.15
-87.74
-96.99
-109.23
-125.15
-144.38
-165.06
-183.76
-195.98
-197.28
-184.68
-157.91
-119.78
-75.4
-30.62
9.82
43.25
69.15
88.29
101.6
109.64
112.64
111.13
106.42
100.55
95.68
93.26
93.51
95.44
97.54
98.54
97.99
96.26
94.05
91.89
89.66
86.61
81.76
74.48
64.87
53.84
42.75
32.85
24.68
17.97
11.69
4.64
-3.98
-14.22
-25.4
-36.39
-46.22
-54.44
-61.35
-68.01
-75.88
-86.48
-100.87
-119.08
-139.58
-159.22
-173.59
-178.05
-169.25
-146.37
-111.62
-69.7
-26.34
13.43
46.48
71.78
89.8
101.49
107.63
108.76
105.56
99.3
91.85
85.25
81.01
79.61
80.36
81.94
82.98
82.72
81.15
78.78
76.15
73.38
69.97
65.01
57.63
47.52
35.23
22.1
9.78
-0.44
-8.21
-14.27
-20.11
-27.27
-36.65
-48.0
-60.15
-71.53
-81.01
-88.38
-94.53
-100.98
-109.46
-121.34
-137.2
-156.52
-177.31
-196.01
-207.95
-208.43
-194.21
-164.95
-123.65
-75.85
-27.89
15.02
50.13
77.02
96.76
110.58
119.19
122.78
121.68
116.91
110.36
104.3
100.52
99.64
101.02
103.11
104.28
103.52
100.8
96.82
92.55
88.56
84.72
80.22
74.02
65.41
54.46
42.06
29.61
18.46
9.31
1.96
-4.54
-11.53
-20.1
-30.64
-42.73
-55.28
-67.06
-77.17
-85.4
-92.34
-99.26
-107.72
-119.25
-134.84
-154.4
-176.35
-197.37
-212.77
-217.52
-207.82
-182.49
-143.73
-96.58
-47.37
-1.8
36.58
66.69
89.22
105.42
116.22
121.92
122.74
119.46
113.67
107.51
102.96
101.01
101.42
102.96
104.06
103.61
101.4
98.01
94.39
91.22
88.48
85.38
80.81
73.85
64.28
52.79
40.68
29.38
19.89
12.42
6.4
0.75
-5.68
-13.65
-23.29
-34.13
-45.26
-55.72
-64.84
-72.48
-79.1
-85.74
-93.73
-104.37
-118.59
-136.34
-156.2
-175.09
-188.68
-192.3
-182.46
-158.12
-121.4
-77.05
-30.98
11.51
47.07
74.58
94.52
107.93
115.6
117.95
115.49
109.38
101.54
94.25
89.41
87.84
89.07
91.62
93.76
94.21
92.62
89.53
85.91
82.6
79.74
76.69
72.31
65.57
56.1
44.52
32.15
20.51
10.68
2.86
-3.65
-10.08
-17.67
-27.12
-38.31
-50.45
-62.35
-72.91
-81.66
-88.93
-95.8
-103.79
-114.46
-128.87
-147.21
-168.21
-189.06
-205.4
-212.28
-205.48
-183.12
-146.6
-100.48
-51.09
-4.54
35.03
66.06
89.07
105.39
116.07
121.55
122.01
118.11
111.41
104.08
98.27
95.23
94.98
96.46
98.1
98.56
97.28
94.49
90.93
87.34
83.98
80.44
75.87
69.29
60.21
48.86
36.28
23.87
12.94
4.12
-2.86
-9.04
-15.75
-24.07
-34.31
-46.02
-58.13
-69.48
-79.32
-87.56
-94.8
-102.12
-110.78
-122.01
-136.72
-154.99
-175.63
-195.71
-210.76
-215.76
-206.72
-182.21
-144.18
-97.58
-48.67
-3.12
35.44
65.75
88.27
104.0
113.78
118.07
117.39
112.87
106.33
99.92
95.45
93.73
94.44
96.38
98.15
98.74
97.89
96.0
93.74
91.57
89.38
86.49
81.94
74.96
65.38
53.8
41.47
29.81
19.95
12.28
6.3
0.85
-5.4
-13.39
-23.27
-34.37
-45.51
-55.54
-63.89
-70.76
-77.08
-84.14
-93.23
-105.35
-120.82
-139.01
-157.96
-174.29
-183.68
-182.0
-166.69
-137.87
-98.68
-54.31
-10.43
28.52
60.22
84.29
101.42
112.38
117.54
117.21
112.14
103.98
95.06
87.71
83.46
82.49
83.78
85.68
86.73
86.26
84.42
81.89
79.26
76.62
73.42
68.74
61.83
52.53
41.51
30.01
19.36
10.4
3.13
-3.28
-10.14
-18.63
-29.22
-41.54
-54.4
-66.43
-76.61
-84.77
-91.62
-98.62
-107.38
-119.34
-135.2
-154.6
-175.73
-195.23
-208.58
-211.04
-199.19
-172.25
-132.75
-85.86
-37.89
5.72
41.73
69.35
89.5
103.51
112.36
116.41
115.97
111.86
105.69
99.44
94.83
92.65
92.55
93.41
93.91
93.22
91.21
88.38
85.37
82.51
79.52
75.52
69.51
60.83
49.61
36.91
24.32
13.37
4.81
-1.71
-7.53
-14.36
-23.43
-34.95
-48.0
-61.02
-72.53
-81.76
-88.95
-95.21
-102.05
-111.04
-123.36
-139.51
-158.86
-179.27
-197.07
-207.58
-206.27
-190.39
-160.08
-118.67
-71.65
-24.97
16.71
50.9
77.16
96.13
108.72
115.5
117.01
114.15
108.54
102.24
97.22
94.65
94.61
96.21
98.11
99.15
98.79
97.19
94.98
92.76
90.74
88.47
85.02
79.36
70.97
60.2
48.26
36.78
27.11
19.66
13.75
7.99
0.95
-8.09
-18.83
-30.23
-41.02
-50.31
-58.01
-64.83
-71.94
-80.67
-92.11
-106.84
-124.5
-143.48
-160.77
-172.28
-173.82
-162.46
-137.7
-101.91
-59.74
-16.68
22.51
54.89
79.47
96.59
107.04
111.55
110.79
105.74
98.03
89.8
83.12
79.33
78.52
79.68
81.28
82.01
81.33
79.49
77.12
74.68
71.99
68.26
62.53
54.21
43.5
31.46
19.58
9.17
0.71
-6.26
-12.99
-20.84
-30.66
-42.32
-54.82
-66.75
-77.01
-85.24
-92.09
-98.89
-107.29
-118.74
-134.1
-153.11
-174.03
-193.45
-206.67
-208.88
-196.66
-169.41
-129.87
-83.38
-36.12
6.79
42.43
70.22
90.9
105.5
114.61
118.46
117.43
112.69
106.16
100.08
96.18
95.09
96.18
98.02
99.08
98.44
96.12
92.85
89.51
86.5
83.36
79.0
72.22
62.44
50.17
36.84
24.29
13.96
6.2
0.18
-5.7
-13.08
-22.82
-34.69
-47.53
-59.79
-70.27
-78.62
-85.48
-92.18
-100.31
-111.33
-126.14
-144.71
-165.74
-186.35
-202.28
-208.76
-201.89
-180.11
-145.04
-101.11
-54.23
-9.96
28.02
58.29
81.18
97.64
108.49
114.16
115.09
112.25
107.32
102.26
98.74
97.45
98.04
99.39
100.32
100.12
98.78
96.75
94.56
92.3
89.54
85.5
79.48
71.31
61.5
51.09
41.22
32.58
25.14
18.17
10.67
1.87
-8.38
-19.51
-30.54
-40.57
-49.19
-56.72
-64.13
-72.75
-83.89
-98.42
-116.26
-136.04
-154.83
-168.57
-172.91
-164.61
-142.73
-109.26
-68.57
-26.1
13.31
46.49
72.28
90.88
102.97
109.17
110.0
106.27
99.49
91.72
85.09
81.02
79.75
80.43
81.72
82.43
82.06
80.81
79.17
77.35
75.06
71.49
65.81
57.59
47.12
35.33
23.46
12.56
3.06
-5.33
-13.46
-22.28
-32.41
-43.83
-55.87
-67.52
-77.89
-86.62
-94.09
-101.35
-109.9
-121.27
-136.5
-155.47
-176.42
-195.79
-208.76
-210.53
-197.98
-170.83
-132.0
-86.63
-40.44
1.94
37.89
66.67
88.58
104.17
113.79
117.79
116.97
112.8
107.25
102.21
98.9
97.5
97.29
97.09
95.99
93.62
90.38
86.94
83.83
80.94
77.46
72.33
64.73
54.62
42.88
30.9
19.97
10.68
2.68
-5.06
-13.64
-23.7
-35.07
-46.89
-58.11
-68.01
-76.53
-84.35
-92.63
-102.7
-115.7
-132.1
-151.38
-171.56
-189.24
-200.08
-199.88
-186.06
-158.66
-120.58
-76.74
-32.54
7.61
41.2
67.49
86.87
99.98
107.4
109.65
107.62
102.77
96.97
92.01
89.02
88.23
89.02
90.39
91.47
91.81
91.38
90.23
88.28
85.19
80.49
73.93
65.73
56.56
47.34
38.8
31.17
24.06
16.74
8.49
-0.99
-11.44
-22.13
-32.28
-41.42
-49.65
-57.65
-66.56
-77.67
-91.95
-109.59
-129.44
-148.78
-163.58
-169.47
-163.1
-143.45
-112.34
-73.97
-33.59
4.13
36.21
61.54
80.32
93.21
100.74
103.3
101.43
96.25
89.44
82.9
78.17
75.97
76.08
77.59
79.34
80.38
80.14
78.44
75.28
70.61
64.38
56.58
47.43
37.42
27.21
17.33
7.94
-1.2
-10.63
-20.81
-31.85
-43.43
-54.87
-65.52
-75.01
-83.56
-91.96
-101.42
-113.26
-128.34
-146.48
-165.9
-183.17
-193.81
-193.54
-179.75
-152.53
-114.88
-71.73
-28.44
10.73
43.45
69.22
88.54
102.1
110.32
113.48
112.23
107.93
102.47
97.76
94.98
94.22
94.62
94.94
94.25
92.34
89.61
86.59
83.48
79.9
75.06
68.2
59.08
48.21
36.66
25.63
15.9
7.49
-0.32
-8.59
-18.13
-29.11
-40.96
-52.58
-63.01
-71.82
-79.39
-86.77
-95.37
-106.6
-121.37
-139.65
-159.96
-179.24
-193.2
-197.32
-188.38
-165.64
-131.3
-89.87
-46.69
-6.26
28.64
57.08
79.24
95.59
106.41
111.87
112.47
109.39
104.43
99.53
96.17
94.93
95.37
96.51
97.3
97.16
96.04
94.32
92.24
89.67
86.03
80.61
73.03
63.55
53.06
42.73
33.44
25.43
18.21
10.91
2.69
-6.8
-17.26
-27.9
-37.85
-46.59
-54.25
-61.66
-70.1
-80.92
-95.04
-112.47
-131.91
-150.63
-164.77
-170.2
-163.7
-144.13
-113.12
-74.67
-34.01
4.05
36.33
61.71
80.54
93.73
101.9
105.31
104.27
99.64
93.07
86.54
81.7
79.25
78.88
79.61
80.43
80.7
80.31
79.37
77.83
75.31
71.09
64.5
55.33
44.09
31.9
20.14
9.86
1.32
-6.13
-13.67
-22.43
-32.87
-44.61
-56.54
-67.5
-76.79
-84.54
-91.73
-99.87
-110.53
-124.84
-142.96
-163.61
-183.81
-199.23
-205.16
-197.93
-176.3
-142.18
-100.07
-55.6
-13.84
22.08
51.11
73.63
90.44
102.02
108.51
110.21
108.13
103.99
99.86
97.33
96.93
98.04
99.33
99.55
98.12
95.34
92.03
88.94
86.21
83.18
78.72
71.83
62.23
50.56
38.16
26.49
16.49
8.17
0.66
-7.31
-16.79
-28.12
-40.73
-53.46
-65.08
-74.9
-83.05
-90.49
-98.72
-109.31
-123.36
-141.06
-161.26
-181.29
-197.13
-204.29
-199.09
-179.94
-148.13
-107.56
-63.51
-21.06
16.27
46.94
70.93
88.84
101.18
108.23
110.38
108.58
104.44
99.92
96.66
95.44
96.0
97.36
98.43
98.49
97.46
95.7
93.57
91.09
87.82
83.04
76.2
67.27
56.9
46.14
36.02
27.05
19.05
11.27
2.84
-6.72
-17.25
-28.0
-38.05
-46.74
-54.05
-60.66
-67.74
-76.6
-88.35
-103.47
-121.36
-140.1
-156.4
-166.2
-165.68
-152.58
-127.14
-92.19
-52.4
-12.76
22.77
52.07
74.65
90.96
101.58
106.85
107.1
103.07
96.2
88.51
82.02
78.08
76.96
77.92
79.67
81.01
81.23
80.16
77.94
74.63
70.08
63.98
56.17
46.87
36.75
26.67
17.22
8.44
-0.22
-9.58
-20.26
-32.24
-44.82
-56.9
-67.5
-76.24
-83.59
-90.8
-99.5
-111.22
-126.87
-146.12
-167.01
-185.98
-198.35
-199.61
-186.83
-159.9
-121.8
-77.73
-33.5
6.23
38.98
64.41
83.41
97.03
105.8
109.88
109.57
105.83
100.36
95.09
91.49
90.02
90.16
90.78
90.82
89.77
87.68
84.93
81.78
78.05
73.2
66.61
58.03
47.84
36.94
26.37
16.82
8.28
0.07
-8.78
-19.01
-30.68
-43.15
-55.38
-66.47
-76.1
-84.66
-93.21
-103.14
-115.77
-131.95
-151.55
-172.94
-192.89
-206.95
-210.55
-200.45
-176.01
-139.6
-95.94
-50.58
-8.32
27.91
57.1
79.53
95.89
106.67
112.21
113.03
110.24
105.55
100.82
97.52
96.18
96.39
97.16
97.49
96.9
95.52
93.81
92.05
90.0
86.91
81.9
74.49
64.89
54.06
43.32
33.7
25.62
18.69
11.95
4.29
-5.01
-15.94
-27.82
-39.52
-50.04
-58.91
-66.54
-74.12
-83.33
-95.64
-111.78
-131.11
-151.42
-169.08
-179.83
-179.81
-166.86
-141.37
-106.29
-66.29
-26.37
9.54
39.3
62.4
79.26
90.46
96.39
97.39
94.2
88.24
81.43
