0
-60.3
-44.11
-27.99
-13.59
-1.6
8.17
16.37
23.63
30.14
35.69
39.89
42.47
43.43
43.13
42.14
41.04
40.23
39.9
40.03
40.49
41.19
42.1
43.18
44.35
45.28
45.59
44.87
42.89
39.69
35.61
31.1
26.59
22.3
18.16
13.9
9.17
3.71
-2.42
-8.93
-15.28
-20.97
-25.7
-29.54
-32.86
-36.3
-40.52
-46.14
-53.44
-62.17
-71.44
-79.68
-85.02
-85.82
-81.26
-71.62
-58.2
-42.88
-27.49
-13.31
-0.91
9.69
18.75
26.47
32.88
37.93
41.6
44.01
45.42
46.16
46.5
46.55
46.26
45.54
44.36
42.85
41.23
39.79
38.7
37.94
37.31
36.45
35.07
32.93
30.06
26.64
23.05
19.63
16.63
14.0
11.5
8.7
5.19
0.73
-4.59
-10.44
-16.37
-21.98
-27.08
-31.73
-36.27
-41.16
-46.84
-53.53
-61.11
-68.97
-75.93
-80.47
-81.1
-76.91
-67.87
-55.02
-40.08
-24.97
-11.17
0.57
10.17
17.99
24.34
29.38
32.99
35.04
35.53
34.71
33.03
31.03
29.19
27.83
27.11
27.04
27.49
28.33
29.36
30.47
31.45
32.12
32.29
31.8
30.61
28.77
26.39
23.47
19.9
15.53
10.24
4.09
-2.58
-9.31
-15.64
-21.31
-26.32
-30.89
-35.42
-40.39
-46.16
-52.77
-59.81
-66.25
-70.69
-71.74
-68.49
-60.95
-49.95
-36.88
-23.24
-10.23
1.44
11.45
19.71
26.28
31.26
34.76
37.0
38.2
38.64
38.63
38.46
38.38
38.54
38.9
39.38
39.8
40.06
40.09
39.83
39.13
37.78
35.48
32.11
27.68
22.46
16.87
11.29
5.92
0.71
-4.52
-10.01
-15.83
-21.82
-27.61
-32.83
-37.32
-41.25
-45.1
-49.56
-55.26
-62.5
-71.0
-79.74
-87.16
-91.41
-91.02
-85.31
-74.75
-60.74
-45.18
-29.81
-15.77
-3.46
7.24
16.64
24.98
32.26
38.42
43.35
47.06
49.65
51.28
52.06
52.09
51.42
50.23
48.78
47.4
46.42
45.99
45.98
45.99
45.45
43.83
40.8
36.43
31.15
25.58
20.33
15.7
11.7
7.95
3.95
-0.69
-6.03
-11.78
-17.43
-22.45
-26.66
-30.21
-33.63
-37.65
-42.93
-49.84
-58.33
-67.74
-76.94
-84.39
-88.55
-88.18
-82.85
-73.04
-60.06
-45.68
-31.53
-18.68
-7.47
2.29
11.0
18.87
25.85
31.59
35.82
38.48
39.85
40.47
40.96
41.75
43.04
44.69
46.44
48.01
49.22
50.03
50.47
50.56
50.13
48.88
46.52
42.91
38.21
32.89
27.54
22.61
18.25
14.26
10.22
5.69
0.5
-5.23
-11.08
-16.56
-21.27
-25.15
-28.48
-31.85
-35.96
-41.42
-48.56
-57.27
-66.83
-76.08
-83.48
-87.49
-86.96
-81.49
-71.56
-58.44
-43.8
-29.25
-15.87
-4.15
5.97
14.78
22.57
29.44
35.24
39.73
42.74
44.2
44.33
43.48
42.14
40.71
39.45
38.39
37.54
36.86
36.49
36.58
37.21
38.22
39.19
39.57
38.87
36.96
34.08
30.68
27.26
24.03
20.91
17.5
13.37
8.23
2.1
-4.59
-11.19
-17.07
-21.93
-25.87
-29.41
-33.21
-37.89
-43.82
-51.05
-59.23
-67.6
-74.92
-79.69
-80.54
-76.62
-68.07
-56.0
-42.15
-28.28
-15.65
-4.8
4.35
12.15
18.92
24.78
29.62
33.32
35.73
36.84
36.78
35.83
34.36
32.8
31.51
30.69
30.43
30.66
31.17
31.63
31.66
30.92
29.21
26.58
23.36
20.05
17.11
14.76
12.95
11.34
9.45
6.9
3.56
-0.42
-4.66
-8.74
-12.46
-15.98
-19.74
-24.4
-30.49
-38.18
-47.09
-56.24
-64.19
-69.36
-70.45
-66.89
-59.0
-47.93
-35.28
-22.63
-11.16
-1.36
6.76
13.5
19.18
23.99
28.01
31.19
33.46
34.8
35.27
35.03
34.34
33.54
32.93
32.69
32.85
33.34
33.96
34.42
34.34
33.34
31.19
27.84
23.59
18.92
14.29
9.95
5.83
1.71
-2.7
-7.51
-12.6
-17.67
-22.48
-26.89
-31.01
-35.13
-39.64
-44.92
-51.27
-58.71
-66.83
-74.72
-81.04
-84.24
-83.06
-76.93
-66.31
-52.54
-37.44
-22.72
-9.53
1.75
11.36
19.7
27.08
33.49
38.77
42.73
45.29
46.58
46.8
46.19
44.97
43.36
41.63
40.02
38.73
37.82
37.24
36.81
36.27
35.36
33.87
31.7
28.9
25.73
22.5
19.52
16.92
14.53
12.03
8.95
4.96
0.01
-5.7
-11.77
-17.74
-23.35
-28.6
-33.82
-39.63
-46.66
-55.21
-64.92
-74.64
-82.64
-87.05
-86.52
-80.72
-70.45
-57.31
-43.17
-29.57
-17.4
-6.88
2.2
10.13
17.12
23.23
28.41
32.64
35.96
38.44
40.16
41.18
41.52
41.26
40.53
39.6
38.79
38.39
38.54
39.1
39.79
40.16
39.75
38.32
35.83
32.55
28.94
25.43
22.4
19.85
17.54
14.97
11.67
7.31
1.91
-4.27
-10.77
-17.19
-23.25
-28.97
-34.56
-40.39
-46.86
-54.2
-62.31
-70.53
-77.68
-82.24
-82.81
-78.59
-69.7
-57.17
-42.61
-27.64
-13.49
-0.77
10.34
19.92
28.04
34.69
39.84
43.48
45.75
46.85
47.0
46.36
45.14
43.47
41.51
39.53
37.82
36.67
36.31
36.76
37.77
38.81
39.26
38.56
36.48
33.19
29.15
24.99
21.15
17.77
14.65
11.33
7.35
2.49
-3.11
-8.99
-14.59
-19.5
-23.67
-27.44
-31.39
-36.06
-41.81
-48.73
-56.54
-64.6
-71.87
-77.06
-78.88
-76.41
-69.5
-58.93
-46.11
-32.75
-20.19
-9.23
0.05
7.99
14.95
21.2
26.71
31.28
34.71
36.89
37.93
38.06
37.59
36.82
36.03
35.38
34.92
34.63
34.38
33.98
33.34
32.39
31.16
29.63
27.83
25.72
23.24
20.38
17.19
13.7
9.93
5.85
1.49
-3.1
-7.77
-12.36
-16.87
-21.52
-26.71
-32.93
-40.51
-49.41
-59.03
-68.21
-75.43
-79.19
-78.45
-72.94
-63.28
-50.78
-36.97
-23.23
-10.5
0.76
10.44
18.64
25.48
31.06
35.42
38.58
40.63
41.71
42.09
42.0
41.67
41.17
40.54
39.78
38.92
38.0
37.02
35.88
34.35
32.18
29.23
25.52
21.21
16.58
11.88
7.28
2.8
-1.59
-5.98
-10.42
-14.88
-19.3
-23.61
-27.82
-32.13
-36.82
-42.26
-48.76
-56.36
-64.64
-72.64
-78.94
-81.98
-80.6
-74.51
-64.38
-51.65
-38.06
-25.07
-13.52
-3.6
4.94
12.44
19.17
25.2
30.51
35.03
38.76
41.7
43.9
45.48
46.58
47.32
47.81
48.09
48.23
48.32
48.41
48.46
48.3
47.58
45.97
43.27
39.54
35.03
30.1
25.02
19.88
14.59
9.0
3.02
-3.28
-9.7
-15.95
-21.81
-27.21
-32.25
-37.21
-42.47
-48.47
-55.51
-63.55
-72.02
-79.74
-85.12
-86.65
-83.38
-75.35
-63.53
-49.48
-34.81
-20.75
-8.02
3.15
12.74
20.82
27.47
32.79
36.89
39.9
42.03
43.43
44.33
44.93
45.4
45.84
46.27
46.72
47.28
48.01
48.9
49.76
50.2
49.78
48.12
45.15
41.03
36.2
31.11
26.11
21.29
16.5
11.45
5.86
-0.28
-6.68
-12.83
-18.15
-22.36
-25.52
-28.08
-30.74
-34.19
-38.99
-45.43
-53.35
-62.09
-70.38
-76.64
-79.33
-77.49
-71.09
-61.08
-49.06
-36.68
-25.11
-14.78
-5.54
3.09
11.41
19.39
26.64
32.68
37.2
40.19
41.93
42.86
43.31
43.5
43.47
43.2
42.68
42.04
41.42
40.89
40.4
39.7
38.38
36.12
32.83
28.73
24.32
20.19
16.75
14.02
11.66
9.12
5.9
1.87
-2.77
-7.55
-12.01
-15.95
-19.48
-23.14
-27.65
-33.65
-41.46
-50.74
-60.47
-69.06
-74.77
-76.25
-72.89
-65.02
-53.7
-40.42
-26.62
-13.41
-1.42
9.06
17.96
25.26
30.94
34.94
37.3
38.12
37.66
36.28
34.38
32.32
30.45
29.01
28.12
27.77
27.79
27.93
27.88
27.39
26.35
24.74
22.65
20.18
17.44
14.47
11.28
7.84
4.17
0.31
-3.58
-7.38
-10.98
-14.43
-17.92
-21.77
-26.31
-31.83
-38.51
-46.3
-54.76
-63.0
-69.73
-73.52
-73.23
-68.43
-59.64
-48.1
-35.41
-22.99
-11.79
-2.11
6.13
13.17
19.24
24.42
28.69
32.02
34.43
36.01
36.88
37.17
36.99
36.46
35.67
34.81
34.1
33.76
33.87
34.34
34.85
34.95
34.19
32.28
29.2
25.19
20.69
16.17
11.93
8.01
4.2
0.21
-4.22
-9.06
-14.05
-18.86
-23.25
-27.24
-31.16
-35.63
-41.27
-48.45
-57.0
-66.06
-74.17
-79.62
-80.95
-77.42
-69.29
-57.71
-44.34
-30.81
-18.32
-7.36
2.1
10.34
17.68
24.25
29.92
34.54
38.04
40.55
42.36
43.78
45.04
46.1
46.84
47.13
46.97
46.5
45.94
45.41
44.83
44.02
42.68
40.57
37.64
34.0
29.99
26.03
22.47
19.46
16.82
14.11
10.79
6.5
1.29
-4.47
-10.21
-15.47
-20.16
-24.54
-29.11
-34.4
-40.84
-48.55
-57.3
-66.36
-74.54
-80.34
-82.28
-79.43
-71.82
-60.46
-47.04
-33.34
-20.7
-9.73
-0.38
7.64
14.57
20.44
25.16
28.66
31.03
32.51
33.36
33.8
33.96
33.93
33.83
33.8
33.97
34.45
35.26
36.31
37.43
38.3
38.56
37.85
36.04
33.29
30.02
26.73
23.82
21.32
18.97
16.39
13.21
9.24
4.5
-0.82
-6.44
-12.08
-17.51
-22.69
-27.74
-33.03
-39.09
-46.37
-55.03
-64.71
-74.39
-82.56
-87.54
-87.95
-83.16
-73.51
-60.24
-45.13
-29.91
-15.85
-3.54
7.06
16.18
24.04
30.62
35.66
38.91
40.3
40.12
38.91
37.29
35.81
34.74
34.09
33.79
33.68
33.69
33.77
33.87
33.88
33.63
33.02
31.89
30.09
27.48
23.96
19.5
14.22
8.36
2.26
-3.78
-9.53
-14.86
-19.8
-24.48
-29.18
-34.29
-40.24
-47.28
-55.26
-63.32
-70.07
-73.82
-73.22
-67.72
-57.86
-45.09
-31.23
-17.9
-6.12
3.82
12.05
18.89
24.55
29.09
32.48
34.67
35.71
35.72
34.9
33.54
31.98
30.61
29.69
29.44
29.86
30.76
31.87
32.84
33.34
33.13
32.05
30.05
27.16
23.41
18.92
13.76
8.05
1.99
-4.18
-10.22
-15.96
-21.35
-26.47
-31.49
-36.68
-42.38
-48.96
-56.66
-65.34
-74.23
-82.01
-87.03
-87.87
-83.85
-75.31
-63.46
-49.96
-36.37
-23.73
-12.49
-2.66
6.02
13.73
20.6
26.56
31.5
35.35
38.15
40.02
41.23
42.06
42.76
43.54
44.58
45.93
47.55
49.17
50.41
50.77
49.89
47.62
44.04
39.42
34.13
28.52
22.77
16.97
11.05
4.96
-1.31
-7.58
-13.58
-19.07
-23.95
-28.43
-32.88
-37.9
-43.92
-51.23
-59.65
-68.5
-76.55
-82.25
-84.08
-81.1
-73.2
-61.33
-47.08
-32.26
-18.31
-6.06
4.34
13.16
20.79
27.53
33.49
38.51
42.42
45.05
46.45
46.83
46.53
45.88
45.11
44.34
43.62
43.04
42.68
42.56
42.53
42.29
41.46
39.75
37.09
33.65
29.71
25.56
21.33
16.98
12.36
7.33
1.87
-3.91
-9.74
-15.33
-20.53
-25.31
-29.82
-34.41
-39.51
-45.55
-52.6
-60.24
-67.42
-72.62
-74.32
-71.5
-64.06
-52.84
-39.34
-25.2
-11.73
0.28
10.57
19.22
26.36
32.15
36.61
39.76
41.59
42.17
41.67
40.36
38.52
36.47
34.38
32.38
30.51
28.83
27.39
26.25
25.42
24.85
24.36
23.76
22.87
21.56
19.66
17.03
13.5
9.03
3.75
-2.01
-7.74
-13.05
-17.75
-22.06
-26.47
-31.6
-37.92
-45.48
-53.75
-61.61
-67.52
-69.96
-67.88
-61.05
-50.18
-36.65
-22.16
-8.13
4.53
15.39
24.34
31.45
36.72
40.19
41.95
42.28
41.54
40.11
38.38
36.64
35.09
33.77
32.66
31.65
30.61
29.45
28.15
26.72
25.15
23.32
21.06
18.19
14.65
10.51
6.01
1.45
-2.9
-6.87
-10.49
-14.03
-17.91
-22.62
-28.61
-36.08
-44.94
-54.64
-64.15
-72.06
-76.86
-77.36
-73.02
-64.24
-52.18
-38.46
-24.62
-11.82
-0.61
8.93
17.0
23.81
29.5
34.12
37.63
39.97
41.15
41.23
40.47
39.23
37.96
37.04
36.67
36.84
37.36
37.93
38.22
37.95
36.94
35.14
32.58
29.41
25.7
21.46
16.59
11.01
4.83
-1.68
-8.03
-13.81
-18.83
-23.21
-27.35
-31.79
-37.06
-43.5
-51.2
-59.78
-68.27
-75.3
-79.28
-78.95
-73.78
-64.2
-51.48
-37.22
-23.01
-9.99
1.23
10.57
18.33
24.94
30.86
36.31
41.24
45.36
48.26
49.63
49.46
47.94
45.52
42.65
39.75
37.19
35.21
33.92
33.24
32.94
32.6
31.81
30.33
28.09
25.22
21.96
18.57
15.22
11.92
8.55
4.94
0.89
-3.67
-8.66
-13.95
-19.44
-25.2
-31.46
-38.58
-46.85
-56.11
-65.73
-74.5
-80.93
-83.68
-81.96
-75.78
-65.93
-53.66
-40.34
-27.05
-14.46
-2.8
7.9
17.59
26.13
33.31
38.94
43.03
45.76
47.51
48.59
49.25
49.52
49.34
48.71
47.72
46.59
45.54
44.62
43.72
42.52
40.69
37.99
34.39
30.0
25.2
20.39
15.92
11.95
8.38
4.8
0.75
-4.18
-10.04
-16.49
-22.92
-28.67
-33.33
-36.96
-40.06
-43.42
-47.83
-53.79
-61.2
-69.36
-76.93
-82.3
-83.9
-80.75
-72.69
-60.53
-45.86
-30.45
-15.89
-3.04
7.84
17.01
24.78
31.3
36.5
40.24
42.43
43.22
42.92
41.9
40.48
38.92
37.35
35.87
34.55
33.41
32.51
31.89
31.52
31.32
31.07
30.43
29.05
26.71
23.39
19.28
14.73
10.01
5.24
0.42
-4.51
-9.53
-14.49
-19.12
-23.21
-26.71
-29.92
-33.42
-37.91
-43.94
-51.57
-60.16
-68.36
-74.41
-76.59
-73.84
-66.09
-54.29
-40.1
-25.27
-11.22
1.38
12.38
21.94
30.15
36.93
41.99
45.12
46.4
46.18
44.98
43.25
41.29
39.19
36.97
34.75
32.77
31.26
30.33
29.9
29.61
29.08
27.93
26.02
23.41
20.35
17.15
14.07
11.11
8.04
4.44
-0.04
-5.52
-11.81
-18.39
-24.72
-30.42
-35.4
-39.84
-44.13
-48.72
-54.12
-60.65
-68.33
-76.61
-84.28
-89.72
-91.3
-87.98
-79.66
-67.24
-52.33
-36.63
-21.46
-7.55
4.95
16.17
26.27
35.25
42.93
49.04
53.37
55.85
56.64
56.1
54.7
52.9
50.99
49.09
47.14
45.09
42.97
40.94
39.16
37.66
36.23
34.45
31.93
28.43
24.11
19.47
15.1
11.46
8.68
6.49
4.35
1.68
-1.85
-6.2
-11.03
-15.84
-20.24
-24.15
-27.86
-31.87
-36.76
-42.96
-50.62
-59.56
-69.1
-78.1
-85.0
-88.19
-86.53
-79.75
-68.62
-54.73
-39.95
-25.78
-13.05
-1.95
7.75
16.38
24.13
30.98
36.8
41.42
44.66
46.45
46.86
46.19
44.89
43.46
42.31
41.68
41.63
42.05
42.76
43.53
44.12
44.26
43.7
42.21
39.72
36.32
32.31
28.13
24.21
20.76
17.76
14.91
11.8
8.15
3.83
-1.03
-6.18
-11.38
-16.47
-21.41
-26.21
-30.96
-35.88
-41.27
-47.53
-54.93
-63.44
-72.56
-81.24
-88.06
-91.59
-90.7
-85.01
-74.95
-61.69
-46.78
-31.65
-17.4
-4.65
6.4
15.8
23.71
30.3
35.74
40.14
43.57
46.01
47.41
47.74
47.09
45.68
43.83
41.91
40.26
39.09
38.49
38.4
38.55
38.58
38.09
36.78
34.47
31.22
27.25
22.87
18.42
14.06
9.78
5.4
0.68
-4.56
-10.25
-16.09
-21.65
-26.56
-30.73
-34.37
-37.97
-42.16
-47.43
-54.02
-61.59
-69.24
-75.51
-78.81
-77.82
-72.06
-62.01
-49.01
-34.7
-20.64
-7.8
3.38
12.84
20.69
27.08
32.04
35.63
37.95
39.11
39.33
38.83
37.91
36.84
35.84
35.11
34.73
34.78
35.25
36.01
36.8
37.16
36.65
34.95
32.02
28.12
23.73
19.37
15.4
11.89
8.67
5.37
1.64
-2.71
-7.64
-12.82
-17.95
-22.71
-27.03
-31.13
-35.48
-40.73
-47.5
-56.14
-66.33
-77.0
-86.35
-92.31
-93.26
-88.54
-78.78
-65.58
-50.89
-36.4
-23.08
-11.26
-0.8
8.51
16.76
23.96
30.06
35.11
39.21
42.55
45.3
47.59
49.44
50.86
51.84
52.44
52.81
53.12
53.54
54.12
54.63
54.67
53.72
51.34
47.34
41.99
35.78
29.37
23.28
17.79
12.8
7.99
2.99
-2.43
-8.31
-14.46
-20.58
-26.36
-31.63
-36.47
-41.23
-46.45
-52.75
-60.52
-69.72
-79.68
-89.14
-96.46
-100.0
-98.62
-91.98
-80.71
-66.18
-50.11
-34.06
-19.02
-5.42
6.79
17.78
27.54
35.89
42.62
47.61
50.99
53.02
54.06
54.38
54.16
53.51
52.57
51.56
50.72
50.28
50.38
50.94
51.7
52.22
52.03
50.74
48.23
44.6
40.19
35.41
30.58
25.86
21.18
16.32
10.96
4.88
-1.94
-9.25
-16.52
-23.16
-28.82
-33.49
-37.64
-42.04
-47.5
-54.64
-63.53
-73.66
-83.75
-92.06
-96.67
-96.1
-89.78
-78.27
-63.14
-46.4
-29.89
-14.87
-1.8
9.39
18.96
27.12
33.93
39.34
43.32
45.98
47.61
48.54
49.13
49.59
49.96
50.14
50.1
49.98
50.04
50.57
51.66
53.01
53.98
53.86
52.07
48.5
43.46
37.58
31.58
26.02
21.11
16.71
12.38
7.6
2.05
-4.25
-10.9
-17.37
-23.15
-28.1
-32.45
-36.69
-41.43
-47.12
-54.02
-62.14
-71.04
-79.87
-87.26
-91.56
-91.3
-85.65
-74.79
-59.95
-43.05
-26.07
-10.56
2.63
13.39
22.01
28.92
34.42
38.64
41.62
43.42
44.21
44.32
44.13
44.01
44.14
44.56
45.09
45.53
45.65
45.31
44.41
42.87
40.59
37.57
33.87
29.72
25.36
20.96
16.6
12.17
7.56
2.75
-2.16
-6.96
-11.48
-15.64
-19.58
-23.57
-27.98
-33.25
-39.78
-47.71
-56.77
-65.99
-73.87
-78.68
-79.02
-74.32
-65.04
-52.55
-38.54
-24.58
-11.72
-0.37
9.45
17.93
25.18
31.22
35.97
39.36
41.41
42.26
42.13
41.31
40.05
38.51
36.84
35.18
33.75
32.69
32.05
31.72
31.4
30.79
29.66
28.0
25.92
23.51
20.76
17.51
13.61
8.96
3.7
-1.89
-7.52
-12.95
-18.09
-22.99
-27.81
-32.8
-38.26
-44.56
-51.96
-60.39
-69.24
-77.27
-82.74
-84.01
-80.09
-71.09
-58.23
-43.33
-28.29
-14.43
-2.32
8.15
17.31
25.45
32.61
38.62
43.25
46.4
48.13
48.69
48.37
47.47
46.2
44.7
43.12
41.73
40.83
40.66
41.19
42.06
42.57
41.98
39.83
36.12
31.33
26.11
21.07
16.51
12.3
8.07
3.4
-1.92
-7.81
-13.88
-19.63
-24.69
-29.03
-32.97
-37.15
-42.27
-48.83
-56.88
-65.89
-74.73
-81.83
-85.53
-84.58
-78.54
-67.98
-54.32
-39.36
-24.67
-11.25
0.6
11.04
20.34
28.59
35.66
41.3
45.37
47.94
49.29
49.82
49.95
49.91
49.75
49.42
48.82
47.99
47.17
46.61
46.46
46.57
46.48
45.56
43.35
39.74
35.04
29.85
24.77
20.17
16.02
11.95
7.48
2.26
-3.74
-10.24
-16.67
-22.56
-27.65
-32.12
-36.43
-41.19
-46.97
-54.03
-62.17
-70.74
-78.53
-83.98
-85.55
-82.26
-73.98
-61.6
-46.73
-31.23
-16.62
-3.78
7.07
16.14
23.76
30.18
35.44
39.47
42.18
43.51
43.55
42.58
40.99
39.22
37.58
36.27
35.33
34.78
34.61
34.76
35.08
35.25
34.83
33.5
31.11
27.8
23.95
19.96
16.06
12.19
8.16
3.72
-1.21
-6.46
-11.65
-16.44
-20.65
-24.46
-28.31
-32.77
-38.3
-45.03
-52.56
-59.99
-66.03
-69.29
-68.69
-63.87
-55.24
-43.95
-31.48
-19.22
-8.09
1.54
9.73
16.72
22.68
27.65
31.55
34.29
35.88
36.45
36.22
35.48
34.54
33.69
33.16
33.08
33.44
34.02
34.48
34.44
33.58
31.78
29.16
25.98
22.53
19.04
15.68
12.45
9.21
5.78
1.93
-2.5
-7.49
-12.85
-18.26
-23.45
-28.23
-32.64
-36.88
-41.33
-46.42
-52.52
-59.63
-67.16
-73.88
-78.09
-78.26
-73.58
-64.36
-51.95
-38.13
-24.57
-12.24
-1.47
7.82
15.82
22.59
28.09
32.34
35.42
37.55
38.87
39.55
39.74
39.59
39.28
38.98
38.77
38.72
38.81
38.91
38.83
38.29
36.95
34.56
31.17
27.06
22.7
18.57
14.91
11.68
8.58
5.24
1.4
-2.95
-7.64
-12.31
-16.63
-20.42
-23.8
-27.13
-30.97
-35.86
-42.2
-49.99
-58.71
-67.27
-74.19
-77.84
-76.99
-71.19
-60.99
-47.74
-33.23
-19.1
-6.43
4.28
13.11
20.32
26.28
31.28
35.51
39.09
42.02
44.19
45.4
45.51
44.52
42.65
40.33
38.13
36.53
35.87
36.18
37.11
38.03
38.28
37.31
34.98
31.53
27.47
23.31
19.44
15.93
12.61
9.11
5.16
0.62
-4.43
-9.69
-14.85
-19.62
-23.91
-27.86
-31.85
-36.39
-42.01
-48.96
-57.0
-65.25
-72.25
-76.4
-76.33
-71.48
-62.29
-50.09
-36.63
-23.57
-11.97
-2.24
5.74
12.33
17.83
22.34
25.84
28.31
29.84
30.62
30.9
30.88
30.77
30.72
30.86
31.31
32.11
33.14
34.09
34.59
34.27
32.94
30.6
27.42
23.61
19.38
14.88
10.19
5.41
0.6
-4.17
-8.86
-13.41
-17.72
-21.7
-25.28
-28.49
-31.49
-34.66
-38.48
-43.31
-49.13
-55.27
-60.51
-63.26
-62.16
-56.61
-47.05
-34.81
-21.62
-9.08
1.79
10.59
17.41
22.51
26.11
28.32
29.27
29.09
28.04
26.51
24.91
23.67
23.03
23.05
23.56
24.29
24.95
25.35
25.42
25.18
24.67
23.91
22.85
21.39
19.38
16.66
13.16
8.94
4.23
-0.7
-5.56
-10.19
-14.55
-18.75
-22.99
-27.56
-32.84
-39.2
-46.88
-55.72
-64.99
-73.38
-79.29
-81.24
-78.42
-70.9
-59.71
-46.43
-32.73
-19.91
-8.7
0.77
8.72
15.53
21.45
26.56
30.72
33.79
35.62
36.22
35.81
34.74
33.38
32.05
30.97
30.22
29.78
29.58
29.41
29.08
28.37
27.1
25.2
22.71
19.68
16.13
12.07
7.53
2.61
-2.5
-7.53
-12.23
-16.45
-20.14
-23.42
-26.56
-30.01
-34.3
-39.88
-46.84
-54.67
-62.19
-67.77
-69.82
-67.34
-60.3
-49.65
-36.98
-24.03
-12.15
-2.06
6.14
12.77
18.33
23.19
27.62
31.62
35.1
37.88
39.83
40.92
41.21
40.91
40.32
39.78
39.58
39.81
40.34
40.83
40.86
40.01
38.08
35.04
31.12
26.64
21.94
17.21
12.56
8.0
3.51
-0.96
-5.4
-9.87
-14.41
-19.1
-24.04
-29.35
-35.23
-41.88
-49.48
-57.84
-66.22
-73.29
-77.42
-77.24
-72.24
-63.05
-51.21
-38.56
-26.6
-16.09
-7.05
0.9
8.19
14.98
21.18
26.5
30.71
33.73
35.63
36.68
37.16
37.34
37.43
37.51
37.58
37.61
37.59
37.47
37.13
36.43
35.17
33.23
30.57
27.25
23.37
18.96
14.14
9.05
3.91
-1.03
-5.6
-9.74
-13.55
-17.23
-21.01
-25.21
-30.18
-36.26
-43.55
-51.71
-59.74
-66.12
-69.18
-67.74
-61.53
-51.43
-39.09
-26.29
-14.34
-3.78
5.48
13.77
21.21
27.58
32.39
35.21
35.98
35.07
33.2
31.09
29.36
28.27
27.73
27.46
27.1
26.42
25.45
24.35
23.33
22.5
21.72
20.69
18.98
16.23
12.27
7.2
1.35
-4.8
-10.83
-16.56
-22.03
-27.56
-33.57
-40.43
-48.23
-56.68
-65.01
-72.07
-76.51
-77.16
-73.34
-65.17
-53.52
-39.79
-25.51
-11.93
0.22
10.7
19.57
27.0
33.06
37.69
40.8
42.38
42.65
42.02
41.02
40.1
39.47
39.11
38.83
38.45
37.88
37.19
36.46
35.67
34.64
33.06
30.68
27.35
23.09
18.01
12.34
6.33
0.27
-5.51
-10.78
-15.52
-19.92
-24.38
-29.41
-35.52
-43.05
-51.96
-61.75
-71.3
-79.09
-83.54
-83.45
-78.43
-69.02
-56.58
-42.76
-29.09
-16.57
-5.59
3.97
12.45
20.12
27.08
33.15
38.05
41.53
43.54
44.22
43.96
43.22
42.4
41.83
41.7
42.06
42.8
43.7
44.43
44.62
44.04
42.57
40.33
37.53
34.42
31.19
27.87
24.32
20.3
15.57
10.03
3.81
-2.72
-9.13
-15.11
-20.65
-26.06
-31.87
-38.65
-46.79
-56.29
-66.6
-76.61
-84.7
-89.03
-88.2
-81.6
-69.79
-54.3
-37.13
-20.14
-4.52
9.24
21.16
31.44
40.14
47.13
52.24
55.41
56.83
56.84
55.95
54.58
53.02
51.45
49.96
48.7
47.81
47.44
47.58
48.08
48.54
48.44
47.35
45.0
41.41
36.88
31.87
26.81
21.93
17.17
12.28
6.99
1.24
-4.72
-10.42
-15.34
-19.23
-22.24
-24.91
-28.0
-32.27
-38.21
-45.94
-55.08
-64.76
-73.69
-80.32
-83.15
-81.18
-74.18
-62.89
-48.72
-33.43
-18.52
-4.99
6.78
16.84
25.42
32.66
38.58
43.1
46.16
47.78
48.16
47.58
46.44
45.16
44.09
43.45
43.29
43.53
43.94
44.23
44.09
43.26
41.55
38.92
35.47
31.48
27.25
23.02
18.89
14.75
10.45
5.84
0.87
-4.37
-9.71
-14.94
-19.87
-24.43
-28.73
-33.16
-38.37
-44.96
-53.2
-62.61
-71.88
-79.11
-82.39
-80.5
-73.32
-61.81
-47.62
-32.44
-17.62
-3.88
8.52
19.53
29.1
37.1
43.31
47.55
49.81
50.27
49.26
47.2
44.5
41.59
38.84
36.54
34.9
33.97
33.62
33.55
33.32
32.53
30.91
28.44
25.37
22.09
18.89
15.86
12.79
9.34
5.21
0.29
-5.28
-11.16
-17.07
-22.8
-28.35
-33.75
-39.15
-44.8
-51.05
-58.27
-66.53
-75.34
-83.41
-88.92
-90.08
-85.79
-76.14
-62.4
-46.56
-30.58
-15.84
-2.94
8.16
17.75
26.08
33.18
38.91
43.2
46.1
47.91
49.05
49.91
50.7
51.37
51.7
51.45
50.55
49.15
47.57
46.16
44.99
43.83
42.23
39.71
36.07
31.51
26.56
21.79
17.59
13.93
10.43
6.56
1.94
-3.45
-9.31
-15.16
-20.59
-25.44
-29.82
-34.0
-38.39
-43.47
-49.7
-57.33
-66.23
-75.61
-84.03
-89.65
-90.83
-86.64
-77.3
-64.06
-48.78
-33.26
-18.79
-5.91
5.37
15.33
24.18
31.94
38.51
43.71
47.46
49.77
50.77
50.7
49.83
48.45
46.79
44.94
42.93
40.79
38.67
36.8
35.38
34.46
33.82
33.02
31.6
29.32
26.24
22.71
19.1
15.73
12.61
9.57
6.31
2.56
-1.78
-6.62
-11.68
-16.62
-21.17
-25.31
-29.32
-33.69
-39.0
-45.74
-54.07
-63.64
-73.53
-82.25
-88.02
-89.25
-85.06
-75.72
-62.51
-47.34
-32.08
-17.88
-5.2
6.14
16.4
25.61
33.46
39.52
43.57
45.66
46.19
45.66
44.48
42.97
41.23
39.38
37.55
35.99
34.97
34.68
35.1
36.0
36.9
37.31
36.82
35.26
32.68
29.28
25.38
21.22
16.97
12.64
8.09
3.2
-2.13
-7.83
-13.7
-19.48
-24.89
-29.75
-34.05
-37.9
-41.65
-45.73
-50.66
-56.83
-64.3
-72.56
-80.45
-86.36
-88.64
-86.14
-78.64
-66.93
-52.57
-37.38
-22.96
-10.32
0.19
8.73
15.67
21.36
25.97
29.48
31.85
33.09
33.4
33.1
32.64
32.41
32.63
33.34
34.4
35.54
36.5
37.07
37.15
36.64
35.47
33.59
30.98
27.66
23.68
19.13
14.1
8.69
3.0
-2.88
-8.79
-14.53
-19.92
-24.88
-29.42
-33.82
-38.55
-44.17
-51.05
-59.11
-67.57
-74.98
-79.58
-79.83
-74.99
-65.4
-52.29
-37.45
-22.64
-9.14
2.39
11.88
19.53
25.63
30.37
33.86
36.19
37.43
37.72
37.22
36.1
34.53
32.81
31.25
30.21
29.92
30.43
31.54
32.87
33.94
34.31
33.63
31.66
28.39
24.0
18.88
13.55
8.42
3.65
-0.89
-5.49
-10.4
-15.62
-20.94
-26.09
-30.85
-35.3
-39.73
-44.62
-50.52
-57.79
-66.35
-75.39
-83.45
-88.6
-89.18
-84.33
-74.38
-60.68
-45.11
-29.42
-14.79
-1.76
9.62
19.4
27.63
34.26
39.17
42.28
43.69
43.59
42.37
40.51
38.46
36.54
34.92
33.68
32.87
32.56
32.76
33.29
33.83
33.93
33.24
31.6
29.11
26.08
22.84
19.62
16.44
13.1
9.24
4.59
-0.92
-7.04
-13.31
-19.11
-24.07
-28.12
-31.56
-34.96
-39.04
-44.42
-51.5
-60.2
-69.75
-78.72
-85.25
-87.52
-84.42
-75.92
-63.13
-47.89
-32.16
-17.54
-4.88
5.58
14.06
20.95
26.59
31.25
35.08
38.19
40.61
42.39
43.66
44.64
45.49
46.43
47.54
48.84
50.27
51.75
53.14
54.27
54.86
54.55
53.01
50.01
45.53
39.85
33.51
27.17
21.34
16.23
11.67
7.12
2.08
-3.77
-10.25
-16.9
-23.14
-28.6
-33.23
-37.33
-41.36
-45.8
-51.05
-57.35
-64.73
-72.86
-80.86
-87.3
-90.47
-88.88
-81.89
-69.99
-54.72
-38.09
-21.93
-7.43
5.01
15.52
24.45
31.97
38.0
42.32
44.78
45.53
45.05
44.01
43.12
42.82
43.26
44.25
45.52
46.81
47.97
48.95
49.75
50.31
50.49
50.1
48.99
46.98
43.96
39.93
35.05
29.7
24.31
19.2
14.43
9.8
4.94
-0.34
-5.98
-11.62
-16.79
-21.12
-24.53
-27.29
-29.94
-33.18
-37.68
-43.88
-51.88
-61.22
-70.87
-79.3
-84.82
-85.95
-81.94
-72.94
-60.06
-45.09
-29.84
-15.78
-3.67
6.44
14.9
22.15
28.42
33.65
37.66
40.3
41.55
41.66
41.01
40.13
39.46
39.34
39.87
41.0
42.55
44.26
45.88
47.08
47.38
46.31
43.56
39.12
33.42
27.12
20.84
14.89
9.22
3.52
-2.43
-8.61
-14.76
-20.49
-25.53
-29.87
-33.78
-37.7
-42.16
-47.63
-54.33
-62.06
-70.03
-76.89
-81.02
-80.97
-76.01
-66.34
-53.1
-37.88
-22.31
-7.59
5.66
17.22
27.07
35.16
41.35
45.45
47.48
47.7
46.63
44.93
43.26
42.03
41.46
41.52
42.1
43.0
43.95
44.65
44.74
43.88
41.84
38.64
34.62
30.2
25.79
21.55
17.25
12.46
6.72
-0.19
-8.03
-16.22
-24.01
-30.76
-36.22
-40.54
-44.38
-48.6
-54.06
-61.27
-70.1
-79.67
-88.32
-94.04
-95.01
-90.2
-79.73
-64.9
-47.73
-30.31
-14.24
-0.28
11.45
21.22
29.32
35.93
41.08
44.85
47.3
48.63
49.04
48.69
47.79
46.6
45.35
44.32
43.75
43.75
44.25
45.03
45.7
45.81
44.98
42.99
39.95
36.11
31.76
27.08
22.01
16.42
10.23
3.59
-3.11
-9.43
-15.03
-19.86
-24.18
-28.4
-33.12
-38.93
-46.34
-55.53
-66.12
-77.0
-86.41
-92.33
-93.01
-87.68
-76.74
-61.67
-44.59
-27.56
-12.05
1.31
12.61
22.29
30.78
38.29
44.73
49.93
53.71
56.0
56.86
56.44
55.02
52.9
50.54
48.4
46.84
46.07
46.04
46.43
46.77
46.49
45.09
42.25
38.01
32.72
27.08
21.83
17.53
14.31
11.79
9.32
6.25
2.25
-2.66
-8.12
-13.75
-19.26
-24.66
-30.14
-36.04
-42.76
-50.59
-59.57
-69.22
-78.46
-85.71
-89.26
-87.83
-81.0
-69.44
-54.64
-38.48
-22.7
-8.48
3.61
13.54
21.62
28.22
33.65
38.06
41.44
43.7
44.87
45.1
44.72
44.08
43.4
42.74
42.05
41.26
40.43
39.74
39.35
39.22
39.04
38.33
36.63
33.76
29.93
25.66
21.53
17.94
14.81
11.7
8.0
3.27
-2.47
-8.77
-14.94
-20.39
-24.95
-28.91
-32.98
-38.02
-44.69
-53.21
-63.03
-72.86
-80.81
-84.97
-83.98
-77.5
-66.34
-52.23
-37.14
-22.74
-9.98
0.9
10.14
18.08
24.95
30.78
35.38
38.57
40.24
40.45
39.52
37.92
36.21
34.92
34.33
34.57
35.47
36.68
37.72
38.13
37.56
35.89
33.19
29.69
25.57
21.0
16.03
10.69
5.03
-0.8
-6.58
-12.09
-17.18
-21.8
-26.08
-30.34
-35.05
-40.76
-47.85
-56.36
-65.68
-74.57
-81.33
-84.24
-82.07
-74.5
-62.25
-46.9
-30.39
-14.45
-0.23
11.87
21.9
30.16
36.9
42.23
46.17
48.73
50.05
50.28
49.62
48.29
46.53
44.62
42.85
41.53
40.76
40.43
40.16
39.46
37.94
35.38
31.85
27.61
23.03
18.38
13.74
9.1
4.32
-0.68
-5.86
-11.14
-16.34
-21.36
-26.14
-30.73
-35.28
-40.13
-45.77
-52.7
-61.1
-70.58
-79.97
-87.48
-91.16
-89.61
-82.42
-70.4
-55.23
-38.95
-23.27
-9.28
2.67
12.7
21.13
28.23
34.13
38.84
42.36
