0
-6.84
-8.64
-9.97
-11.07
-12.33
-14.2
-17.03
-20.99
-25.9
-31.12
-35.6
-38.04
-37.22
-32.44
-23.84
-12.42
0.18
12.13
21.88
28.51
31.83
32.26
30.54
27.53
23.95
20.34
17.05
14.39
12.59
11.89
12.39
14.0
16.4
19.09
21.57
23.49
24.73
25.33
25.44
25.19
24.61
23.64
22.18
20.14
17.46
14.17
10.43
6.44
2.47
-1.28
-4.72
-7.88
-10.91
-13.95
-17.09
-20.26
-23.29
-25.91
-27.94
-29.36
-30.36
-31.29
-32.57
-34.47
-36.96
-39.75
-42.33
-44.27
-45.38
-45.89
-46.37
-47.51
-49.92
-53.85
-59.05
-64.72
-69.63
-72.35
-71.56
-66.52
-57.32
-44.96
-31.16
-17.81
-6.45
2.11
7.94
11.71
14.36
16.67
19.07
21.62
24.17
26.51
28.53
30.25
31.76
33.1
34.24
35.05
35.4
35.24
34.62
33.69
32.53
31.21
29.67
27.83
25.64
23.14
20.48
17.87
15.49
13.46
11.74
10.14
8.51
6.71
4.78
2.88
1.26
0.13
-0.35
-0.11
0.9
2.7
5.23
8.34
11.66
14.68
16.78
17.5
16.62
14.24
10.74
6.64
2.37
-1.85
-6.03
-10.4
-15.23
-20.68
-26.55
-32.24
-36.74
-38.81
-37.38
-31.89
-22.62
-10.73
2.08
13.97
23.56
30.19
33.97
35.56
35.82
35.5
35.05
34.67
34.36
34.03
33.66
33.26
32.91
32.65
32.47
32.29
31.99
31.46
30.64
29.51
28.07
26.34
24.29
21.87
19.06
15.9
12.55
9.28
6.37
4.06
2.48
1.54
1.01
0.61
0.02
-0.97
-2.39
-4.16
-6.1
-8.02
-9.78
-11.35
-12.82
-14.36
-16.13
-18.27
-20.81
-23.65
-26.59
-29.34
-31.62
-33.32
-34.57
-35.74
-37.34
-39.84
-43.52
-48.3
-53.62
-58.55
-61.87
-62.34
-59.07
-51.81
-41.17
-28.52
-15.62
-4.14
4.86
11.12
15.13
17.77
19.88
21.96
24.07
26.0
27.49
28.47
29.13
29.85
30.95
32.5
34.26
35.79
36.69
36.77
36.1
34.97
33.61
32.12
30.41
28.32
25.8
22.96
20.05
17.39
15.19
13.49
12.16
10.94
9.57
7.84
5.69
3.23
0.71
-1.59
-3.46
-4.9
-6.13
-7.55
-9.52
-12.2
-15.45
-18.85
-21.97
-24.47
-26.31
-27.73
-29.16
-31.08
-33.83
-37.51
-41.91
-46.45
-50.26
-52.27
-51.49
-47.28
-39.66
-29.39
-17.77
-6.33
3.64
11.36
16.73
20.08
21.97
22.94
23.33
23.35
23.11
22.77
22.54
22.7
23.43
24.79
26.63
28.59
30.22
31.17
31.27
30.56
29.24
27.45
25.27
22.72
19.8
16.67
13.62
10.97
8.87
7.27
5.9
4.41
2.57
0.38
-2.01
-4.35
-6.45
-8.3
-10.05
-12.01
-14.48
-17.58
-21.22
-25.01
-28.51
-31.39
-33.59
-35.43
-37.47
-40.26
-44.17
-49.12
-54.54
-59.33
-62.09
-61.46
-56.63
-47.67
-35.64
-22.36
-9.79
0.58
8.12
13.1
16.36
18.82
21.12
23.48
25.75
27.68
29.11
30.13
31.0
32.01
33.34
34.85
36.21
37.0
37.01
36.29
35.15
33.91
32.71
31.38
29.61
27.11
23.86
20.19
16.62
13.61
11.4
9.87
8.66
7.36
5.69
3.61
1.33
-0.86
-2.75
-4.36
-5.96
-7.93
-10.56
-13.88
-17.6
-21.29
-24.52
-27.09
-29.11
-30.88
-32.86
-35.5
-39.14
-43.9
-49.5
-55.18
-59.68
-61.53
-59.51
-53.12
-42.88
-30.26
-17.2
-5.53
3.61
10.0
14.18
17.11
19.67
22.35
25.21
27.95
30.22
31.83
32.82
33.45
34.02
34.71
35.49
36.16
36.49
36.35
35.75
34.83
33.7
32.41
30.91
29.07
26.84
24.24
21.43
18.64
16.08
13.88
12.08
10.62
9.37
8.18
6.86
5.24
3.23
0.9
-1.53
-3.81
-5.71
-7.25
-8.7
-10.49
-13.03
-16.44
-20.45
-24.51
-28.07
-30.77
-32.71
-34.28
-36.05
-38.49
-41.85
-46.12
-51.0
-55.94
-60.04
-62.19
-61.29
-56.58
-48.08
-36.69
-24.0
-11.8
-1.51
6.22
11.58
15.33
18.33
21.17
23.97
26.51
28.47
29.69
30.32
30.72
31.26
32.12
33.22
34.26
34.9
34.98
34.51
33.69
32.7
31.57
30.21
28.39
25.94
22.84
19.3
15.69
12.47
9.95
8.2
7.0
5.93
4.54
2.59
0.08
-2.73
-5.48
-7.91
-9.89
-11.57
-13.22
-15.13
-17.53
-20.43
-23.7
-27.04
-30.16
-32.84
-35.05
-36.96
-38.85
-41.06
-43.91
-47.53
-51.88
-56.56
-60.78
-63.46
-63.46
-59.95
-52.76
-42.55
-30.64
-18.63
-7.85
0.94
7.68
12.8
16.85
20.18
22.88
24.85
25.99
26.47
26.68
27.11
28.18
29.93
32.1
34.23
35.87
36.8
37.06
36.82
36.2
35.22
33.79
31.84
29.41
26.71
24.05
21.72
19.89
18.57
17.7
17.1
16.62
16.15
15.58
14.88
13.98
12.81
11.27
9.31
6.93
4.3
1.61
-0.92
-3.26
-5.54
-8.11
-11.35
-15.56
-20.89
-27.2
-34.05
-40.64
-45.86
-48.51
-47.58
-42.71
-34.41
-24.01
-13.27
-3.8
3.4
8.18
11.1
12.99
14.64
16.47
18.5
20.52
22.27
23.65
24.74
25.79
27.05
28.6
30.33
31.98
33.27
34.04
34.3
34.15
33.68
32.87
31.59
29.73
27.29
24.47
21.59
18.99
16.92
15.39
14.17
12.88
11.15
8.77
5.82
2.59
-0.53
-3.29
-5.67
-7.97
-10.57
-13.76
-17.57
-21.77
-25.98
-29.81
-33.11
-35.94
-38.6
-41.5
-45.08
-49.62
-55.15
-61.29
-67.23
-71.76
-73.56
-71.62
-65.56
-55.93
-44.04
-31.59
-20.15
-10.7
-3.4
2.18
6.77
11.02
15.2
19.25
22.93
25.98
28.32
30.07
31.49
32.81
34.17
35.55
36.79
37.65
37.97
37.67
36.83
35.59
34.06
32.28
30.22
27.83
25.14
22.28
19.49
16.98
14.9
13.23
11.82
10.41
8.8
6.87
4.68
2.34
0.06
-2.02
-3.81
-5.38
-6.9
-8.6
-10.71
-13.37
-16.54
-20.03
-23.48
-26.54
-28.95
-30.73
-32.13
-33.64
-35.78
-38.94
-43.25
-48.44
-53.79
-58.22
-60.46
-59.36
-54.3
-45.44
-33.82
-21.12
-9.13
0.79
8.09
13.06
16.47
19.19
21.79
24.38
26.79
28.76
30.2
31.18
31.97
32.8
33.77
34.84
35.82
36.51
36.74
36.45
35.64
34.37
32.67
30.58
28.18
25.56
22.88
20.25
17.77
15.5
13.45
11.67
10.19
9.02
8.07
7.17
6.09
4.68
2.91
0.95
-1.03
-2.87
-4.55
-6.21
-8.03
-10.13
-12.54
-15.17
-17.86
-20.43
-22.77
-24.85
-26.73
-28.54
-30.43
-32.59
-35.22
-38.48
-42.44
-46.87
-51.15
-54.26
-54.98
-52.36
-46.06
-36.6
-25.28
-13.72
-3.37
4.91
10.93
15.05
17.83
19.76
21.09
21.89
22.09
21.76
21.1
20.51
20.41
21.09
22.57
24.59
26.65
28.2
28.78
28.01
25.67
21.75
16.52
10.66
5.25
1.59
0.8
3.47
9.35
17.42
26.2
34.2
40.33
44.03
45.29
44.4
41.73
37.64
32.34
26.06
19.06
11.68
4.36
-2.51
-8.69
-14.19
-19.19
-23.98
-28.76
-33.58
-38.3
-42.71
-46.52
-49.44
-51.09
-51.03
-48.9
-44.57
-38.36
-30.97
-23.35
-16.4
-10.65
-6.24
-3.01
-0.73
0.7
1.18
0.58
-1.07
-3.45
-5.91
-7.69
-8.19
-7.18
-4.88
-1.94
0.95
3.22
4.63
5.28
5.44
5.39
5.27
5.14
5.03
4.99
5.08
5.38
5.87
6.47
7.04
7.49
7.79
7.93
7.86
7.46
6.57
5.1
3.07
0.64
-1.96
-4.55
-7.09
-9.73
-12.74
-16.51
-21.28
-27.1
-33.6
-39.93
-44.87
-47.11
-45.66
-40.19
-31.31
-20.36
-9.01
1.23
9.42
15.32
19.27
21.89
23.79
25.4
26.91
28.34
29.62
30.65
31.44
32.05
32.58
33.11
33.64
34.12
34.44
34.46
34.1
33.28
31.91
29.96
27.43
24.44
21.21
17.98
14.95
12.2
9.73
7.42
5.17
2.93
0.69
-1.55
-3.77
-5.97
-8.17
-10.43
-12.77
-15.2
-17.69
-20.19
-22.63
-24.95
-27.18
-29.42
-31.89
-34.87
-38.61
-43.25
-48.56
-53.83
-57.95
-59.56
-57.54
-51.41
-41.61
-29.45
-16.74
-5.2
4.01
10.53
14.75
17.48
19.55
21.45
23.36
25.11
26.5
27.46
28.09
28.65
29.39
30.44
31.73
33.04
34.09
34.67
34.67
34.09
32.98
31.41
29.39
26.96
24.15
21.06
17.92
14.97
12.45
10.46
8.84
7.32
5.58
3.47
1.07
-1.36
-3.59
-5.52
-7.3
-9.2
-11.46
-14.08
-16.9
-19.64
-22.13
-24.4
-26.69
-29.38
-32.85
-37.32
-42.64
-48.26
-53.17
-56.05
-55.71
-51.41
-43.26
-32.26
-20.01
-8.23
1.74
9.26
14.37
17.55
19.36
20.24
20.43
20.07
19.38
18.7
18.46
18.98
20.35
22.33
24.51
26.38
27.65
28.23
28.27
27.96
27.42
26.57
25.19
23.07
20.1
16.43
12.41
8.51
5.15
2.57
0.72
-0.65
-1.93
-3.47
-5.5
-8.05
-10.95
-13.94
-16.73
-19.14
-21.15
-22.93
-24.81
-27.19
-30.49
-34.93
-40.39
-46.29
-51.56
-54.84
-54.82
-50.71
-42.6
-31.44
-18.87
-6.66
3.74
11.63
16.99
20.33
22.3
23.46
24.13
24.45
24.49
24.41
24.42
24.78
25.66
27.06
28.77
30.45
31.7
32.26
32.02
31.06
29.54
27.63
25.43
23.03
20.45
17.75
14.97
12.18
9.41
6.72
4.14
1.75
-0.37
-2.18
-3.78
-5.35
-7.18
-9.47
-12.27
-15.43
-18.67
-21.68
-24.32
-26.61
-28.82
-31.3
-34.44
-38.53
-43.64
-49.5
-55.33
-59.98
-62.03
-60.31
-54.28
-44.34
-31.8
-18.47
-6.13
3.97
11.37
16.36
19.63
21.95
23.89
25.69
27.39
28.9
30.17
31.28
32.32
33.43
34.57
35.61
36.36
36.66
36.51
36.07
35.53
34.97
34.27
33.15
31.31
28.62
25.23
21.52
17.99
15.03
12.81
11.23
10.03
8.88
7.51
5.76
3.65
1.32
-1.0
-3.1
-4.91
-6.6
-8.48
-10.89
-14.02
-17.77
-21.76
-25.48
-28.52
-30.74
-32.36
-33.85
-35.79
-38.71
-42.88
-48.19
-53.96
-59.05
-61.97
-61.34
-56.35
-47.13
-34.79
-21.16
-8.22
2.52
10.33
15.39
18.47
20.51
22.25
24.06
25.92
27.67
29.15
30.38
31.5
32.69
34.0
35.34
36.5
37.25
37.49
37.2
36.46
35.34
33.85
31.95
29.64
26.96
24.05
21.08
18.25
15.74
13.67
12.05
10.77
9.65
8.42
6.89
5.02
2.88
0.66
-1.46
-3.37
-5.03
-6.51
-7.9
-9.4
-11.19
-13.44
-16.19
-19.31
-22.5
-25.39
-27.67
-29.29
-30.49
-31.78
-33.72
-36.74
-40.96
-46.02
-51.11
-55.05
-56.58
-54.68
-48.92
-39.64
-27.96
-15.48
-3.85
5.7
12.61
16.98
19.43
20.68
21.32
21.62
21.64
21.39
21.02
20.8
21.08
22.09
23.78
25.85
27.83
29.28
29.97
29.9
29.19
27.97
26.31
24.19
21.6
18.61
15.43
12.33
9.58
7.29
5.46
3.9
2.42
0.89
-0.71
-2.3
-3.78
-5.18
-6.66
-8.44
-10.73
-13.54
-16.67
-19.79
-22.6
-24.96
-26.99
-29.04
-31.53
-34.84
-39.17
-44.35
-49.82
-54.58
-57.33
-56.86
-52.4
-43.98
-32.57
-19.79
-7.47
2.92
10.6
15.58
18.41
19.86
20.59
20.98
21.17
21.2
21.11
21.05
21.22
21.76
22.71
23.9
25.03
25.82
26.11
25.87
25.24
24.28
22.99
21.21
18.75
15.52
11.69
7.65
3.95
1.02
-0.98
-2.27
-3.3
-4.6
-6.49
-8.9
-11.46
-13.68
-15.23
-16.14
-16.74
-17.55
-18.96
-21.05
-23.56
-26.01
-27.97
-29.25
-29.94
-30.36
-30.99
-32.32
-34.7
-38.24
-42.55
-46.74
-49.41
-49.08
-44.65
-35.94
-23.79
-9.94
3.55
14.96
23.34
28.7
31.72
33.43
34.7
36.03
37.47
38.83
39.87
40.55
41.07
41.78
42.91
44.46
46.13
47.5
48.2
48.12
47.36
46.15
44.71
43.05
41.1
38.73
35.88
32.64
29.28
26.14
23.49
21.5
20.08
18.95
17.72
16.04
13.76
10.97
7.93
5.0
2.44
0.29
-1.61
-3.61
-6.06
-9.2
-13.05
-17.43
-22.05
-26.59
-30.81
-34.62
-38.06
-41.31
-44.65
-48.47
-53.11
-58.67
-64.82
-70.62
-74.66
-75.43
-71.86
-63.72
-51.84
-37.84
-23.67
-11.0
-0.84
6.58
11.69
15.2
17.79
19.91
21.75
23.32
24.64
25.83
27.1
28.65
30.56
32.66
34.6
36.05
36.8
36.89
36.49
35.82
34.99
33.94
32.49
30.46
27.77
24.51
20.95
17.44
14.35
11.92
10.19
9.03
8.17
7.3
6.19
4.73
2.97
1.05
-0.83
-2.53
-4.0
-5.39
-6.92
-8.91
-11.53
-14.72
-18.15
-21.39
-24.06
-26.05
-27.55
-28.98
-30.8
-33.39
-36.94
-41.42
-46.48
-51.43
-55.22
-56.64
-54.64
-48.74
-39.27
-27.39
-14.78
-3.14
6.26
12.89
16.92
18.98
19.79
19.96
19.8
19.46
19.1
18.95
19.3
20.38
22.22
24.54
26.94
28.98
30.41
31.15
31.24
30.72
29.59
27.79
25.35
22.41
19.22
16.06
13.18
10.66
8.53
6.7
5.09
3.59
2.15
0.72
-0.71
-2.15
-3.66
-5.34
-7.33
-9.73
-12.49
-15.43
-18.3
-20.86
-23.0
-24.89
-26.82
-29.22
-32.44
-36.63
-41.67
-47.02
-51.8
-54.82
-54.92
-51.33
-43.97
-33.57
-21.54
-9.48
1.2
9.66
15.69
19.58
21.82
22.92
23.24
23.04
22.56
22.08
21.93
22.38
23.58
25.42
27.59
29.64
31.17
31.95
31.97
31.42
30.49
29.3
27.8
25.86
23.4
20.44
17.22
14.07
11.33
9.18
7.55
6.13
4.54
2.53
0.11
-2.45
-4.73
-6.5
-7.81
-9.05
-10.75
-13.31
-16.74
-20.67
-24.5
-27.71
-30.14
-32.04
-33.98
-36.61
-40.39
-45.42
-51.29
-57.13
-61.72
-63.72
-62.07
-56.3
-46.76
-34.62
-21.57
-9.32
0.82
8.27
13.19
16.27
18.38
20.25
22.24
24.39
26.53
28.42
29.92
31.09
32.08
33.03
34.04
35.04
35.87
36.41
36.55
36.29
35.68
34.68
33.23
31.22
28.56
25.35
21.87
18.51
15.65
13.47
11.89
10.57
9.11
7.26
4.96
2.46
0.11
-1.82
-3.25
-4.39
-5.66
-7.5
-10.23
-13.82
-17.94
-22.06
-25.65
-28.41
-30.47
-32.29
-34.52
-37.75
-42.21
-47.67
-53.37
-58.12
-60.53
-59.38
-54.03
-44.72
-32.62
-19.51
-7.31
2.61
9.73
14.37
17.36
19.59
21.6
23.53
25.24
26.56
27.48
28.16
28.9
29.93
31.31
32.93
34.54
35.85
36.68
36.96
36.7
35.93
34.62
32.69
30.09
26.87
23.31
19.77
16.64
14.12
12.19
10.65
9.18
7.53
5.62
3.51
1.38
-0.58
-2.29
-3.82
-5.43
-7.4
-9.96
-13.12
-16.66
-20.16
-23.27
-25.79
-27.82
-29.71
-31.92
-34.91
-38.87
-43.67
-48.68
-52.85
-54.91
-53.67
-48.54
-39.74
-28.39
-16.14
-4.68
4.73
11.59
16.03
18.67
20.16
21.01
21.45
21.59
21.5
21.37
21.48
22.07
23.27
24.97
26.88
28.62
29.92
30.65
30.79
30.4
29.5
28.05
26.05
23.55
20.71
17.73
14.81
12.07
9.59
7.4
5.48
3.78
2.23
0.76
-0.69
-2.13
-3.59
-5.14
-6.89
-8.92
-11.27
-13.81
-16.33
-18.64
-20.72
-22.74
-25.06
-28.08
-32.04
-36.89
-42.2
-47.16
-50.67
-51.57
-49.0
-42.71
-33.23
-21.8
-10.01
0.63
9.16
15.27
19.18
21.41
22.46
22.69
22.37
21.74
21.12
20.85
21.22
22.34
24.1
26.17
28.12
29.58
30.32
30.28
29.57
28.34
26.74
24.82
22.62
20.13
17.44
14.68
12.05
9.75
7.88
6.4
5.15
3.85
2.27
0.31
-1.94
-4.23
-6.31
-8.05
-9.56
-11.13
-13.11
-15.74
-18.99
-22.58
-26.12
-29.24
-31.83
-34.08
-36.39
-39.29
-43.19
-48.15
-53.69
-58.85
-62.25
-62.52
-58.74
-50.77
-39.42
-26.26
-13.17
-1.81
6.84
12.59
16.02
18.05
19.65
21.46
23.68
26.15
28.52
30.48
31.92
32.99
33.89
34.81
35.72
36.45
36.74
36.49
35.75
34.73
33.64
32.52
31.24
29.56
27.28
24.42
21.22
18.08
15.35
13.24
11.72
10.59
9.58
8.45
7.02
5.27
3.26
1.1
-1.07
-3.18
-5.19
-7.15
-9.2
-11.46
-14.01
-16.87
-19.93
-22.96
-25.75
-28.13
-30.08
-31.82
-33.68
-36.07
-39.32
-43.55
-48.55
-53.73
-58.12
-60.53
-59.82
-55.26
-46.9
-35.61
-22.95
-10.69
-0.3
7.45
12.63
15.89
18.1
19.99
21.93
23.96
25.92
27.65
29.1
30.33
31.5
32.7
33.95
35.14
36.15
36.86
37.22
37.21
36.81
35.98
34.65
32.76
30.36
27.63
24.77
22.03
19.56
17.45
15.67
14.19
12.92
11.78
10.65
9.41
7.96
6.28
4.41
2.43
0.4
-1.62
-3.62
-5.6
-7.58
-9.63
-11.86
-14.37
-17.22
-20.34
-23.51
-26.47
-29.0
-31.04
-32.77
-34.53
-36.75
-39.78
-43.83
-48.77
-54.01
-58.55
-61.02
-60.16
-55.23
-46.35
-34.62
-21.8
-9.74
0.19
7.39
12.08
14.99
16.94
18.53
20.05
21.53
22.91
24.16
25.37
26.7
28.26
30.01
31.77
33.29
34.34
34.84
34.81
34.38
33.6
32.44
30.85
28.78
26.31
23.62
20.95
18.52
16.43
14.7
13.28
12.11
11.08
10.07
8.94
7.56
5.86
3.92
1.88
-0.06
-1.77
-3.25
-4.6
-6.03
-7.74
-9.84
-12.34
-15.11
-17.96
-20.66
-23.04
-25.07
-26.83
-28.59
-30.7
-33.5
-37.19
-41.62
-46.25
-50.15
-52.2
-51.37
-47.08
-39.43
-29.24
-17.87
-6.8
2.68
9.86
14.64
17.39
18.69
19.09
18.94
18.46
17.84
17.35
17.33
18.05
19.59
21.77
24.17
26.33
27.88
28.68
28.77
28.29
27.37
26.02
24.19
21.87
19.08
16.04
13.07
10.52
8.62
7.4
6.62
5.87
4.73
2.99
0.71
-1.81
-4.19
-6.16
-7.71
-9.1
-10.69
-12.81
-15.58
-18.83
-22.21
-25.34
-27.99
-30.17
-32.21
-34.59
-37.8
-42.1
-47.37
-53.01
-57.96
-60.92
-60.66
-56.42
-48.23
-36.98
-24.28
-11.94
-1.48
6.27
11.35
14.42
16.41
18.07
19.81
21.68
23.52
25.14
26.46
27.53
28.49
29.45
30.46
31.48
32.42
33.18
33.72
34.0
33.95
33.47
32.39
30.58
28.03
24.91
21.6
18.52
16.03
14.3
13.21
12.49
11.78
10.79
9.32
7.36
4.99
2.39
-0.21
-2.6
-4.69
-6.49
-8.2
-10.09
-12.38
-15.19
-18.42
-21.81
-25.03
-27.8
-30.04
-31.9
-33.76
-36.13
-39.48
-44.05
-49.64
-55.55
-60.59
-63.35
-62.57
-57.58
-48.6
-36.74
-23.75
-11.45
-1.24
6.24
11.18
14.3
16.46
18.35
20.32
22.41
24.51
26.47
28.23
29.8
31.23
32.58
33.86
35.05
36.06
36.81
37.22
37.23
36.82
35.98
34.65
32.79
30.4
27.54
24.44
21.39
18.67
16.5
14.91
13.77
12.84
11.85
10.57
8.87
6.71
4.24
1.68
-0.68
-2.65
-4.19
-5.48
-6.89
-8.79
-11.46
-14.88
-18.76
-22.63
-25.99
-28.55
-30.31
-31.61
-32.95
-34.9
-37.87
-42.01
-47.08
-52.43
-57.01
-59.54
-58.82
-54.14
-45.62
-34.23
-21.65
-9.66
0.32
7.62
12.36
15.24
17.11
18.68
20.34
22.17
24.04
25.83
27.44
28.89
30.24
31.56
32.82
33.94
34.8
35.26
35.32
35.03
34.47
33.67
32.57
31.03
28.95
26.36
23.39
20.33
17.5
15.15
13.44
12.34
11.64
11.03
10.19
8.92
7.17
5.09
2.92
0.89
-0.91
-2.54
-4.18
-6.01
-8.15
-10.62
-13.36
-16.22
-19.04
-21.68
-24.03
-26.07
-27.94
-29.86
-32.12
-34.96
-38.55
-42.79
-47.31
-51.33
-53.85
-53.82
-50.48
-43.72
-34.13
-22.95
-11.65
-1.59
6.36
11.92
15.32
17.08
17.8
17.94
17.82
17.61
17.51
17.72
18.51
20.06
22.35
25.08
27.75
29.85
31.06
31.37
30.97
30.11
28.93
27.37
25.31
22.72
19.76
16.75
14.06
11.96
10.43
9.26
8.13
6.78
5.14
3.34
1.6
0.09
-1.17
-2.34
-3.71
-5.54
-7.96
-10.9
-14.13
-17.34
-20.25
-22.67
-24.59
-26.18
-27.79
-29.88
-32.84
-36.83
-41.54
-46.2
-49.62
-50.56
-48.1
-42.0
-32.81
-21.78
-10.49
-0.39
7.58
13.12
16.51
18.37
19.34
19.83
20.06
20.08
19.99
20.0
20.44
21.57
23.44
25.82
28.23
30.19
31.35
31.67
31.35
30.68
29.84
28.85
27.55
25.75
23.37
20.5
17.45
14.58
12.21
10.49
9.29
8.35
7.29
5.86
4.0
1.8
-0.47
-2.58
-4.37
-5.88
-7.32
-9.0
-11.17
-13.95
-17.27
-20.84
-24.32
-27.42
-30.0
-32.16
-34.15
-36.38
-39.29
-43.2
-48.11
-53.54
-58.45
-61.48
-61.33
-57.22
-49.23
-38.3
-25.99
-13.99
-3.64
4.33
9.85
13.36
15.57
17.19
18.77
20.64
22.83
25.23
27.62
29.8
31.65
33.13
34.23
34.95
35.35
35.52
35.57
35.58
35.51
35.2
34.39
32.84
30.53
27.62
24.5
21.56
19.07
17.1
15.55
14.26
13.1
12.06
11.14
10.34
9.55
8.56
7.2
5.36
3.03
0.38
-2.4
-5.06
-7.47
-9.57
-11.48
-13.4
-15.56
-18.1
-20.96
-23.92
-26.7
-29.05
-30.91
-32.49
-34.15
-36.37
-39.55
-43.88
-49.13
-54.59
-59.08
-61.17
-59.66
-54.0
-44.61
-32.8
-20.41
-9.18
-0.24
6.09
10.18
12.83
14.81
16.72
18.84
21.19
23.67
26.08
28.26
30.14
31.72
33.06
34.27
35.37
36.35
37.11
37.56
37.6
37.18
36.26
34.81
32.84
30.43
27.77
25.11
22.68
20.69
19.16
18.01
17.06
16.07
14.88
13.41
11.69
9.9
8.2
6.71
5.38
4.0
2.33
0.23
-2.24
-4.82
-7.18
-9.15
-10.77
-12.34
-14.2
-16.54
-19.31
-22.22
-24.9
-27.1
-28.81
-30.26
-31.8
-33.85
-36.68
-40.44
-44.99
-49.91
-54.41
-57.42
-57.81
-54.73
-47.98
-38.15
-26.58
-14.92
-4.67
3.22
8.59
11.87
13.82
15.14
16.28
17.38
18.47
19.53
20.68
22.07
23.81
25.89
28.08
30.04
31.46
32.17
32.21
31.76
31.03
30.14
29.06
27.68
25.89
23.72
21.31
18.87
16.63
14.7
13.12
11.84
10.73
9.66
8.5
7.16
5.61
3.91
2.17
0.52
-0.97
-2.36
-3.82
-5.58
-7.77
-10.44
-13.41
-16.43
-19.21
-21.54
-23.39
-24.9
-26.37
-28.17
-30.63
-33.92
-37.99
-42.46
-46.64
-49.59
-50.33
-48.11
-42.7
-34.52
-24.55
-14.11
-4.48
3.43
9.24
13.07
15.35
16.6
17.22
17.45
17.44
17.36
17.46
18.05
19.37
21.44
24.05
26.7
28.89
30.26
30.73
30.44
29.67
28.64
27.36
25.79
23.79
21.35
18.61
15.82
13.3
11.27
9.79
8.78
7.97
7.08
5.87
4.2
2.12
-0.17
-2.42
-4.44
-6.23
-7.99
-10.02
-12.63
-15.84
-19.43
-22.95
-25.98
-28.3
-30.03
-31.59
-33.52
-36.26
-40.06
-44.81
-50.06
-54.91
-58.22
-58.78
-55.7
-48.8
-38.78
-27.04
-15.37
-5.27
2.38
7.52
10.7
12.75
14.43
16.2
18.19
20.3
22.34
24.18
25.77
27.2
28.58
29.97
31.4
32.78
34.0
34.95
35.5
35.59
35.11
33.97
32.12
29.6
26.57
23.31
20.15
17.42
15.3
13.81
12.81
11.98
10.99
9.62
7.78
5.6
3.31
1.19
-0.62
-2.09
-3.38
-4.79
-6.61
-9.05
-12.17
-15.78
-19.53
-23.0
-25.89
-28.17
-30.11
-32.22
-35.04
-38.9
-43.74
-49.0
-53.7
-56.63
-56.66
-53.1
-45.95
-35.99
-24.6
-13.36
-3.65
3.74
8.74
11.86
13.88
15.57
17.44
19.67
22.16
24.7
27.06
29.07
30.7
31.97
32.93
33.63
34.09
34.31
34.34
34.21
33.94
33.48
32.7
31.46
29.67
27.41
24.86
22.28
19.9
17.83
16.07
14.5
13.02
11.6
10.26
9.01
7.82
6.6
5.21
3.57
1.69
-0.32
-2.36
-4.39
-6.53
-8.93
-11.74
-14.9
-18.18
-21.24
-23.82
-25.84
-27.48
-29.09
-31.07
-33.75
-37.33
-41.8
-46.8
-51.61
-55.18
-56.33
-54.12
-48.27
-39.32
-28.54
-17.56
-7.81
-0.19
5.18
8.73
11.22
13.34
15.49
17.76
20.01
22.0
23.59
24.8
25.79
26.75
27.83
29.05
30.32
31.44
32.25
32.66
32.68
32.35
31.72
30.74
29.29
27.22
24.49
21.27
17.94
15.01
12.85
11.61
11.03
10.61
9.86
8.45
6.42
4.09
1.89
0.15
-1.11
-2.14
-3.35
-5.1
-7.53
-10.52
-13.7
-16.68
-19.15
-21.06
-22.6
-24.1
-25.92
-28.34
-31.47
-35.25
-39.34
-43.14
-45.82
-46.47
-44.39
-39.32
-31.63
-22.26
-12.47
-3.53
3.69
8.82
12.04
13.8
14.65
14.98
15.04
14.95
14.88
15.05
15.74
17.12
19.13
21.48
23.7
25.41
26.38
26.67
26.4
25.7
24.58
22.96
20.82
18.26
15.5
12.83
10.47
8.51
6.92
5.57
4.28
2.93
1.43
-0.22
-1.94
-3.67
-5.38
-7.16
-9.17
-11.54
-14.28
-17.23
-20.09
-22.62
-24.75
-26.65
-28.65
-31.13
-34.38
-38.51
-43.31
-48.2
-52.24
-54.27
-53.23
-48.57
-40.59
-30.38
-19.55
-9.66
-1.73
3.99
7.88
10.62
12.84
14.93
16.93
18.75
20.3
21.6
22.8
24.12
25.66
27.39
29.11
30.52
31.4
31.69
31.48
30.93
30.17
29.22
28.0
26.41
24.38
21.98
19.37
16.78
14.46
12.62
11.32
10.49
9.85
9.09
7.95
6.34
4.35
2.19
0.07
-1.94
-3.9
-5.97
-8.29
-10.96
-13.94
-17.11
-20.31
-23.34
-26.02
-28.26
-30.12
-31.82
-33.75
-36.34
-39.95
-44.6
-49.89
-54.92
-58.43
-59.18
-56.34
-49.85
-40.46
-29.56
-18.71
-9.21
-1.71
3.73
7.6
10.55
13.16
15.76
18.45
21.11
23.57
25.72
27.56
29.15
30.61
31.97
33.19
34.19
34.9
35.33
35.53
35.52
35.19
34.38
32.94
30.84
28.25
25.48
22.88
20.72
19.1
17.9
16.93
15.94
14.77
13.38
11.83
10.2
8.57
6.9
5.12
3.15
1.02
-1.18
-3.3
-5.23
-6.96
-8.62
-10.41
-12.49
-14.94
-17.74
-20.72
-23.66
-26.33
-28.63
-30.59
-32.48
-34.65
-37.51
-41.31
-45.99
-51.06
-55.59
-58.38
-58.21
-54.31
-46.67
-36.16
-24.38
-13.07
-3.65
3.22
7.76
10.73
13.06
15.46
18.17
21.06
23.84
26.22
28.09
29.51
30.64
31.66
32.64
33.56
34.36
34.96
35.33
35.47
35.35
34.87
33.87
32.21
29.88
27.05
24.08
21.38
19.31
17.99
17.29
16.9
16.38
15.43
13.92
12.03
10.05
8.32
7.01
6.01
5.01
3.68
1.81
-0.56
-3.12
-5.54
-7.55
-9.18
-10.66
-12.33
-14.4
-16.87
-19.55
-22.13
-24.36
-26.13
-27.56
-28.9
-30.53
-32.8
-36.0
-40.18
-45.03
-49.8
-53.4
-54.58
-52.42
-46.61
-37.68
-26.89
-15.82
-5.9
1.97
7.55
11.16
13.41
14.88
15.97
16.83
17.5
18.04
18.59
19.39
20.66
22.47
24.65
26.87
28.72
29.95
30.51
30.55
30.24
29.69
28.83
27.51
25.6
23.18
20.44
17.72
15.33
13.46
12.12
11.2
10.51
9.81
8.92
7.67
6.04
4.09
1.98
-0.07
-1.91
-3.48
-4.89
-6.32
-8.02
-10.16
-12.77
-15.75
-18.87
-21.89
-24.6
-26.91
-28.95
-30.97
-33.36
-36.43
-40.28
-44.61
-48.66
-51.35
-51.57
-48.55
-42.15
-33.04
-22.49
-12.02
-2.94
4.02
8.82
11.94
14.09
15.82
17.4
18.81
19.9
20.62
21.12
21.72
22.73
24.29
26.26
28.32
30.07
31.25
31.76
31.68
31.11
30.16
28.86
27.26
25.38
23.29
21.06
18.79
16.57
14.5
12.7
11.24
10.14
9.27
8.43
7.42
6.09
4.42
2.51
0.51
-1.42
-3.25
-5.01
-6.87
-9.0
-11.56
-14.57
-17.93
-21.4
-24.69
-27.54
-29.79
-31.51
-32.95
-34.55
-36.8
-40.14
-44.69
-50.09
-55.41
-59.26
-60.21
-57.27
-50.29
-40.06
-28.12
-16.25
-5.92
2.03
7.49
10.92
13.05
14.6
16.13
17.9
19.96
22.17
24.34
26.34
28.12
29.68
31.06
32.26
33.24
33.96
34.41
34.62
34.59
34.28
33.56
32.31
30.48
28.14
25.48
22.77
20.27
18.19
16.59
15.41
14.47
13.56
12.52
11.27
9.81
8.23
6.59
4.85
2.98
0.93
-1.21
-3.32
-5.28
-7.1
-8.9
-10.95
-13.42
-16.35
-19.59
-22.81
-25.72
-28.11
-29.98
-31.55
-33.19
-35.35
-38.44
-42.61
-47.62
-52.72
-56.71
-58.21
-56.15
-50.16
-40.79
-29.37
-17.64
-7.16
1.1
6.88
10.56
12.85
14.46
15.94
17.55
19.37
21.31
23.25
25.11
26.89
28.61
30.31
31.91
33.28
34.24
34.71
34.73
34.45
33.98
33.34
32.39
30.93
28.88
26.37
23.68
21.17
19.08
17.46
16.16
14.97
13.68
12.27
10.8
9.45
8.29
7.27
6.2
4.8
2.88
0.46
-2.24
-4.84
-7.04
-8.74
-10.15
-11.65
-13.64
-16.3
-19.51
-22.91
-26.06
-28.64
-30.57
-32.07
-33.53
-35.45
-38.24
-42.07
-46.76
-51.66
-55.72
-57.68
-56.45
-51.44
-42.92
-31.93
-20.1
-9.11
-0.22
6.03
9.88
12.11
13.62
15.1
16.77
18.51
20.07
21.31
22.31
23.33
24.61
26.24
28.07
29.83
31.22
32.11
32.47
32.36
31.84
30.97
29.75
28.19
26.31
24.19
21.92
19.63
17.5
15.65
14.18
13.06
12.15
11.26
10.23
8.95
7.42
5.73
4.01
2.4
0.97
-0.34
-1.7
-3.36
-5.52
-8.18
-11.18
-14.21
-16.97
-19.28
-21.15
-22.73
-24.27
-26.02
-28.2
-30.96
-34.37
-38.27
-42.2
-45.34
-46.69
-45.33
-40.82
-33.39
-24.02
-14.06
-4.94
2.37
7.47
10.61
12.34
13.27
13.74
13.87
13.68
13.25
12.86
12.89
13.66
15.24
17.37
19.63
21.62
23.1
24.07
24.66
24.93
24.79
24.07
22.59
20.34
17.55
14.63
12.0
9.96
8.56
7.65
6.89
5.99
4.78
3.26
1.57
-0.1
-1.65
-3.12
-4.68
-6.51
-8.71
-11.31
-14.16
-17.09
-19.91
-22.52
-24.91
-27.24
-29.77
-32.79
-36.53
-40.98
-45.71
-49.91
-52.45
-52.29
-48.78
-41.98
-32.69
-22.23
-12.05
-3.28
3.5
8.32
11.59
13.84
15.43
16.6
17.42
18.0
18.52
19.24
20.41
22.1
24.2
26.42
28.4
29.84
30.66
30.92
30.8
30.47
29.96
29.16
27.86
25.88
23.22
20.08
16.84
13.93
11.66
10.07
9.01
8.18
7.26
6.07
4.59
2.93
1.24
-0.38
-1.96
-3.65
-5.64
-8.1
-11.08
-14.5
-18.09
-21.48
-24.36
-26.59
-28.31
-29.88
-31.82
-34.61
-38.52
-43.45
-48.87
-53.81
-57.02
-57.31
-53.9
-46.77
-36.75
-25.34
-14.23
-4.83
2.13
6.7
9.5
11.37
13.04
14.94
17.12
19.44
21.65
23.58
25.22
26.66
28.07
29.52
31.01
32.39
33.5
34.22
34.5
34.35
33.72
32.58
30.85
28.57
25.89
23.06
20.39
18.11
16.34
15.05
14.09
13.22
12.26
11.03
9.45
7.51
5.32
3.03
0.82
-1.15
-2.86
-4.44
-6.19
-8.39
-11.22
-14.59
-18.14
-21.45
-24.14
-26.13
-27.66
-29.19
-31.25
-34.24
-38.28
-43.14
-48.23
-52.59
-55.1
-54.71
-50.82
-43.54
-33.74
-22.84
-12.42
-3.69
2.77
7.09
9.88
11.94
13.92
16.12
18.5
20.8
22.73
24.16
25.19
26.13
27.26
28.68
30.3
31.83
32.97
33.57
33.63
33.23
32.47
31.34
29.8
27.87
25.63
23.31
21.11
19.19
17.57
16.18
14.91
13.66
12.37
11.03
9.63
8.2
6.71
5.16
3.54
1.83
0.01
-1.96
-4.1
-6.47
-9.09
-11.96
-14.96
-17.95
-20.73
-23.14
-25.1
-26.65
-27.98
-29.4
-31.29
-34.06
-37.94
-42.82
-48.1
-52.74
-55.45
-55.09
-51.09
-43.66
-33.81
-22.98
-12.65
-3.95
2.62
7.12
10.06
12.05
13.67
15.25
16.92
18.65
20.34
