0
12.96
9.63
6.34
2.89
-0.81
-4.7
-8.63
-12.43
-16.08
-19.71
-23.59
-28.02
-33.18
-39.03
-45.3
-51.58
-57.52
-62.9
-67.76
-72.41
-77.38
-83.34
-90.87
-100.2
-110.83
-121.39
-129.79
-133.6
-130.91
-120.83
-103.94
-82.14
-58.06
-34.4
-13.28
4.13
17.59
27.57
34.88
40.33
44.52
47.78
50.24
52.02
53.23
54.04
54.64
55.16
55.7
56.41
57.48
59.11
61.41
64.3
67.37
70.0
71.51
71.33
69.21
65.28
60.03
54.14
48.3
43.0
38.36
34.2
30.16
25.87
21.2
16.24
11.29
6.71
2.73
-0.58
-3.38
-5.99
-8.8
-12.21
-16.47
-21.62
-27.42
-33.45
-39.23
-44.47
-49.15
-53.62
-58.48
-64.37
-71.84
-80.99
-91.34
-101.71
-110.26
-114.84
-113.54
-105.28
-90.32
-70.24
-47.54
-24.95
-4.62
12.25
25.48
35.48
42.83
48.0
51.26
52.82
53.04
52.43
51.54
50.86
50.66
51.04
52.02
53.52
55.48
57.73
60.06
62.16
63.73
64.55
64.38
63.11
60.72
57.3
53.12
48.51
43.8
39.15
34.61
30.14
25.73
21.47
17.49
13.83
10.42
7.03
3.43
-0.42
-4.38
-8.17
-11.57
-14.63
-17.59
-20.86
-24.76
-29.43
-34.74
-40.44
-46.26
-51.95
-57.35
-62.4
-67.2
-72.06
-77.51
-84.11
-92.18
-101.38
-110.54
-117.72
-120.76
-117.92
-108.54
-93.24
-73.78
-52.48
-31.62
-12.86
2.93
15.61
25.54
33.27
39.32
44.06
47.7
50.46
52.56
54.28
55.92
57.67
59.57
61.52
63.43
65.28
67.13
69.01
70.82
72.25
72.91
72.5
70.97
68.48
65.31
61.67
57.7
53.48
49.15
44.91
40.93
37.29
33.87
30.44
26.87
23.18
19.61
16.4
13.62
11.07
8.37
5.12
1.16
-3.4
-8.25
-13.02
-17.48
-21.6
-25.52
-29.52
-33.86
-38.8
-44.47
-50.82
-57.59
-64.33
-70.58
-76.02
-80.69
-85.02
-89.78
-95.73
-103.29
-112.07
-120.78
-127.42
-129.72
-125.86
-115.15
-98.26
-77.09
-54.18
-31.98
-12.27
4.08
16.99
26.86
34.25
39.7
43.7
46.7
49.06
51.06
52.87
54.6
56.3
58.01
59.79
61.64
63.49
65.26
66.85
68.17
69.16
69.74
69.75
69.01
67.32
64.62
60.94
56.52
51.64
46.62
41.65
36.86
32.25
27.76
23.3
18.81
14.31
9.92
5.8
2.08
-1.18
-4.16
-7.2
-10.73
-15.09
-20.34
-26.22
-32.23
-37.97
-43.19
-48.06
-52.97
-58.47
-65.08
-73.1
-82.54
-92.92
-103.12
-111.42
-115.81
-114.57
-106.8
-92.82
-74.14
-52.98
-31.65
-11.97
4.94
18.72
29.56
37.96
44.48
49.61
53.64
56.64
58.6
59.62
59.97
60.12
60.6
61.68
63.41
65.57
67.77
69.71
71.17
72.0
72.02
71.04
68.89
65.62
61.5
57.02
52.69
48.85
45.56
42.54
39.41
35.85
31.78
27.42
23.24
19.7
17.07
15.31
14.07
12.82
11.07
8.5
5.11
1.17
-2.93
-6.87
-10.53
-14.11
-17.96
-22.42
-27.63
-33.44
-39.51
-45.43
-50.96
-56.15
-61.33
-67.08
-73.89
-82.0
-91.12
-100.33
-108.05
-112.36
-111.5
-104.39
-91.06
-72.74
-51.52
-29.84
-9.89
6.88
19.96
29.58
36.49
41.55
45.41
48.43
50.73
52.29
53.12
53.36
53.26
53.1
53.06
53.24
53.62
54.17
54.87
55.64
56.36
56.76
56.5
55.29
52.96
49.57
45.36
40.72
35.98
31.45
27.19
23.17
19.21
15.09
10.63
5.82
0.78
-4.18
-8.72
-12.55
-15.61
-18.08
-20.37
-22.96
-26.24
-30.3
-34.92
-39.62
-43.93
-47.57
-50.6
-53.33
-56.17
-59.47
-63.39
-67.89
-72.77
-77.7
-82.37
-86.44
-89.81
-92.69
-95.72
-99.72
-105.4
-112.89
-121.48
-129.57
-135.03
-135.75
-130.26
-118.12
-100.11
-78.03
-54.23
-31.02
-10.2
7.26
21.16
31.89
40.06
46.25
50.9
54.33
56.8
58.65
60.18
61.67
63.31
65.15
67.16
69.26
71.38
73.47
75.48
77.33
78.86
79.83
79.96
79.01
76.85
73.46
69.05
63.93
58.52
53.22
48.32
43.95
40.05
36.44
32.87
29.14
25.17
21.06
16.98
13.13
9.62
6.42
3.31
-0.03
-3.9
-8.52
-13.93
-19.9
-26.12
-32.23
-38.05
-43.63
-49.29
-55.58
-63.06
-72.07
-82.52
-93.65
-103.99
-111.61
-114.51
-111.2
-101.19
-85.2
-64.96
-42.8
-21.04
-1.47
14.81
27.47
36.74
43.26
47.76
50.92
53.26
55.06
56.4
57.33
57.93
58.37
58.9
59.69
60.86
62.4
64.2
66.08
67.81
69.07
69.46
68.68
66.55
63.13
58.73
53.82
48.86
44.18
39.97
36.23
32.86
29.67
26.54
23.38
20.2
17.14
14.36
11.95
9.87
7.91
5.76
3.15
-0.05
-3.72
-7.64
-11.5
-15.13
-18.56
-22.01
-25.79
-30.17
-35.21
-40.66
-46.11
-51.11
-55.37
-58.9
-62.02
-65.27
-69.28
-74.57
-81.45
-89.82
-98.97
-107.53
-113.59
-115.04
-110.21
-98.49
-80.63
-58.68
-35.36
-13.3
5.61
20.53
31.53
39.21
44.26
47.3
48.75
49.0
48.39
47.28
45.96
44.65
43.49
42.59
42.13
42.26
43.06
44.44
46.1
47.59
48.48
48.42
47.3
45.21
42.35
39.01
35.5
32.03
28.73
25.57
22.41
19.07
15.44
11.6
7.8
4.41
1.72
-0.19
-1.5
-2.61
-3.96
-5.94
-8.72
-12.23
-16.24
-20.41
-24.54
-28.61
-32.8
-37.45
-42.79
-48.82
-55.24
-61.65
-67.66
-73.13
-78.25
-83.41
-89.11
-95.81
-103.78
-112.88
-122.38
-130.86
-136.34
-136.77
-130.66
-117.7
-98.86
-76.19
-52.21
-29.21
-8.77
8.27
21.8
32.12
39.72
45.15
48.95
51.61
53.48
54.83
55.9
56.84
57.85
59.08
60.64
62.62
64.97
67.56
70.14
72.38
73.86
74.22
73.24
70.94
67.52
63.31
58.64
53.72
48.65
43.54
38.47
33.56
28.99
24.81
21.01
17.48
14.12
10.81
7.48
4.05
0.42
-3.54
-7.86
-12.45
-17.15
-21.82
-26.47
-31.28
-36.53
-42.35
-48.61
-54.87
-60.61
-65.53
-69.82
-74.17
-79.53
-86.69
-95.81
-106.24
-116.49
-124.57
-128.38
-126.22
-117.19
-101.49
-80.46
-56.32
-31.65
-8.81
10.67
26.28
38.39
47.86
55.49
61.75
66.69
70.17
72.13
72.76
72.51
71.97
71.68
71.95
72.86
74.29
76.0
77.76
79.4
80.79
81.74
81.98
81.16
78.99
75.41
70.69
65.36
60.03
55.1
50.68
46.59
42.55
38.35
33.96
29.54
25.31
21.51
18.29
15.66
13.49
11.53
9.48
7.05
4.1
0.63
-3.2
-7.23
-11.34
-15.5
-19.77
-24.28
-29.17
-34.54
-40.39
-46.66
-53.14
-59.54
-65.61
-71.26
-76.71
-82.47
-89.18
-97.4
-107.27
-118.2
-128.84
-137.18
-140.99
-138.37
-128.35
-111.23
-88.61
-62.96
-37.06
-13.27
6.86
22.76
34.68
43.37
49.66
54.26
57.65
60.09
61.74
62.76
63.4
63.89
64.51
65.46
66.88
68.85
71.33
74.18
77.13
79.78
81.62
82.2
81.21
78.59
74.48
69.22
63.2
56.82
50.39
44.17
38.3
32.87
27.83
23.09
18.51
13.96
9.35
4.71
0.15
-4.13
-7.99
-11.42
-14.58
-17.79
-21.38
-25.56
-30.39
-35.72
-41.32
-46.96
-52.41
-57.61
-62.64
-67.79
-73.57
-80.54
-89.1
-99.08
-109.46
-118.41
-123.63
-122.96
-115.04
-99.78
-78.45
-53.34
-27.19
-2.56
18.66
35.42
47.54
55.53
60.25
62.69
63.72
64.0
63.93
63.71
63.45
63.22
63.13
63.28
63.74
64.53
65.61
66.91
68.29
69.55
70.33
70.2
68.71
65.63
61.02
55.28
49.03
42.88
37.2
32.01
27.04
21.91
16.3
10.19
3.82
-2.38
-8.02
-12.91
-17.16
-21.12
-25.28
-30.09
-35.8
-42.41
-49.71
-57.34
-64.91
-72.12
-78.88
-85.36
-92.01
-99.33
-107.57
-116.37
-124.54
-130.15
-131.04
-125.46
-112.77
-93.69
-70.19
-44.92
-20.45
1.3
19.33
33.46
44.09
51.83
57.32
61.04
63.38
64.63
65.03
64.87
64.46
64.16
64.25
64.93
66.19
67.86
69.68
71.36
72.67
73.36
73.2
71.97
69.5
65.8
61.06
55.67
50.08
44.63
39.54
34.83
30.43
26.27
22.35
18.64
15.07
11.55
7.94
4.18
0.32
-3.5
-7.11
-10.4
-13.37
-16.19
-19.11
-22.46
-26.51
-31.39
-37.02
-43.12
-49.24
-55.01
-60.31
-65.37
-70.78
-77.21
-85.18
-94.74
-105.25
-115.39
-123.25
-126.74
-124.12
-114.47
-98.12
-76.62
-52.42
-28.17
-6.1
12.44
27.06
38.11
46.22
52.04
56.09
58.76
60.4
61.31
61.74
61.92
62.01
62.14
62.44
62.98
63.78
64.76
65.79
66.71
67.4
67.74
67.53
66.56
64.6
61.59
57.71
53.34
48.97
44.9
41.16
37.51
33.63
29.39
24.91
20.54
16.61
13.24
10.3
7.45
4.38
0.86
-3.15
-7.53
-12.15
-16.84
-21.48
-25.97
-30.38
-34.86
-39.6
-44.78
-50.37
-56.11
-61.67
-66.75
-71.3
-75.58
-80.09
-85.45
-92.08
-100.06
-108.8
-116.98
-122.67
-123.7
-118.42
-106.21
-87.9
-65.57
-41.86
-19.27
0.52
16.85
29.87
40.11
48.16
54.4
59.06
62.31
64.38
65.63
66.45
67.22
68.16
69.38
70.8
72.26
73.66
74.94
76.14
77.24
78.1
78.36
77.56
75.35
71.62
66.66
61.0
55.23
49.72
44.56
39.54
34.42
29.06
23.53
18.06
12.93
8.34
4.32
0.76
-2.66
-6.26
-10.42
-15.4
-21.32
-28.05
-35.29
-42.58
-49.53
-55.93
-61.9
-67.91
-74.65
-82.77
-92.54
-103.56
-114.58
-123.69
-128.72
-127.84
-120.14
-105.94
-86.72
-64.67
-42.11
-20.98
-2.54
12.66
24.6
33.63
40.27
45.08
48.61
51.3
53.42
55.11
56.41
57.44
58.35
59.36
60.61
62.17
64.0
66.02
68.13
70.16
71.83
72.74
72.42
70.62
67.36
63.0
58.07
53.05
48.24
43.62
39.11
34.55
29.94
25.35
20.97
16.99
13.58
10.78
8.47
6.39
4.18
1.51
-1.82
-5.76
-10.07
-14.5
-18.89
-23.27
-27.88
-32.99
-38.78
-45.23
-52.09
-58.95
-65.43
-71.27
-76.46
-81.31
-86.38
-92.45
-100.1
-109.5
-120.1
-130.41
-138.25
-141.27
-137.58
-126.41
-108.37
-85.35
-59.95
-34.82
-12.03
7.17
22.38
33.81
42.02
47.67
51.4
53.73
55.1
55.84
56.25
56.64
57.29
58.45
60.21
62.58
65.39
68.41
71.44
74.23
76.58
78.27
79.04
78.68
77.05
74.12
70.03
65.05
59.6
54.14
49.04
44.48
40.42
36.68
33.06
29.47
25.94
22.57
19.45
16.58
13.94
11.48
9.16
6.9
4.58
2.0
-1.05
-4.67
-8.8
-13.27
-17.94
-22.78
-27.96
-33.73
-40.29
-47.64
-55.51
-63.44
-70.9
-77.52
-83.2
-88.21
-93.18
-98.92
-106.2
-115.32
-125.82
-136.38
-144.96
-149.21
-147.21
-137.95
-121.78
-100.34
-76.11
-51.8
-29.62
-10.95
3.79
14.87
22.96
28.74
32.73
35.29
36.61
36.87
36.32
35.29
34.16
33.35
33.26
34.16
36.13
39.04
42.51
45.98
48.82
50.41
50.33
48.43
44.86
40.02
34.5
28.83
23.41
18.44
13.93
9.73
5.67
1.55
-2.73
-7.2
-11.7
-16.02
-19.83
-22.89
-25.09
-26.54
-27.55
-28.6
-30.15
-32.61
-36.11
-40.51
-45.33
-50.01
-54.07
-57.36
-60.18
-63.22
-67.34
-73.21
-80.99
-90.13
-99.32
-106.64
-109.9
-107.17
-97.36
-80.57
-58.19
-32.51
-6.2
18.45
39.84
57.2
70.39
79.67
85.48
88.38
88.97
87.87
85.72
83.06
80.39
78.07
76.41
75.55
75.49
76.07
77.06
78.26
79.57
80.89
82.08
82.84
82.74
81.38
78.59
74.56
69.72
64.6
59.62
54.91
50.43
46.03
41.62
37.27
33.12
29.26
25.71
22.28
18.71
14.78
10.41
5.73
1.01
-3.5
-7.75
-11.94
-16.48
-21.81
-28.16
-35.5
-43.47
-51.57
-59.39
-66.68
-73.5
-80.21
-87.43
-95.78
-105.74
-117.25
-129.5
-140.87
-149.14
-151.97
-147.55
-135.22
-115.66
-90.79
-63.31
-35.98
-11.05
10.11
27.03
39.9
49.25
55.74
59.96
62.47
63.86
64.66
65.34
66.2
67.36
68.8
70.36
71.88
73.24
74.41
75.46
76.42
77.28
77.87
77.84
76.84
74.59
71.02
66.39
61.13
55.75
50.63
45.95
41.71
37.74
33.85
29.87
25.75
21.56
17.5
13.75
10.32
7.06
3.63
-0.3
-4.86
-9.9
-15.04
-19.91
-24.36
-28.54
-32.85
-37.79
-43.69
-50.65
-58.49
-66.77
-74.93
-82.42
-88.87
-94.25
-99.02
-103.97
-110.04
-117.91
-127.63
-138.26
-147.96
-154.3
-154.81
-147.77
-132.68
-110.55
-83.71
-55.14
-27.76
-3.82
15.54
30.16
40.54
47.55
52.02
54.69
56.18
57.03
57.7
58.52
59.63
60.97
62.44
63.99
65.72
67.84
70.53
73.81
77.39
80.8
83.43
84.76
84.4
82.21
78.28
72.94
66.72
60.18
53.79
47.8
42.19
36.73
31.12
25.28
19.37
13.69
8.54
3.94
-0.32
-4.71
-9.6
-15.19
-21.33
-27.71
-33.96
-39.87
-45.47
-51.07
-57.16
-64.37
-73.29
-84.23
-96.86
-109.97
-121.53
-129.01
-130.08
-123.31
-108.67
-87.58
-62.58
-36.58
-12.24
8.64
25.26
37.76
46.89
53.55
58.5
62.15
64.65
66.0
66.34
65.96
65.3
64.79
64.67
65.05
65.93
67.26
68.96
70.9
72.75
74.06
74.28
73.01
70.1
65.69
60.22
54.2
48.17
42.49
37.33
32.66
28.21
23.63
18.6
12.99
6.97
0.94
-4.64
-9.45
-13.5
-17.13
-20.85
-25.11
-30.21
-36.11
-42.62
-49.39
-56.11
-62.56
-68.7
-74.77
-81.25
-88.76
-97.84
-108.55
-120.27
-131.52
-140.18
-143.93
-140.85
-130.05
-111.93
-88.23
-61.55
-34.72
-10.09
10.86
27.64
40.57
50.3
57.53
62.79
66.42
68.71
70.01
70.71
71.24
71.9
72.83
74.04
75.48
77.06
78.69
80.24
81.5
82.21
82.12
81.02
78.82
75.48
71.09
65.77
59.75
53.3
46.76
40.39
34.4
28.91
23.94
19.51
15.55
11.95
8.46
4.78
0.67
-3.96
-9.0
-14.2
-19.37
-24.5
-29.79
-35.47
-41.67
-48.3
-55.07
-61.69
-67.97
-74.0
-80.04
-86.53
-93.91
-102.54
-112.43
-123.07
-133.31
-141.35
-145.08
-142.63
-132.99
-116.42
-94.47
-69.5
-44.11
-20.47
0.08
17.06
30.65
41.41
49.91
56.61
61.8
65.61
68.16
69.67
70.42
70.81
71.18
71.77
72.71
74.02
75.66
77.51
79.33
80.72
81.19
80.3
77.85
73.95
69.0
63.52
57.87
52.19
46.37
40.21
33.62
26.69
19.71
13.07
7.1
1.97
-2.44
-6.47
-10.59
-15.25
-20.71
-26.94
-33.7
-40.62
-47.44
-54.16
-61.05
-68.59
-77.25
-87.23
-98.17
-109.04
-118.05
-123.08
-122.1
-113.85
-98.42
-77.29
-53.02
-28.45
-5.9
13.31
28.99
41.6
51.77
59.89
66.06
70.22
72.49
73.18
72.85
72.09
71.38
71.07
71.3
72.12
73.4
74.91
76.34
77.38
77.78
77.37
76.07
73.75
70.34
65.82
60.34
54.15
47.63
41.11
34.8
28.85
23.31
18.2
13.44
8.9
4.38
-0.26
-5.0
-9.66
-14.0
-17.95
-21.72
-25.81
-30.76
-36.88
-44.09
-51.89
-59.6
-66.59
-72.56
-77.6
-82.21
-87.13
-93.19
-101.0
-110.65
-121.42
-131.8
-139.61
-142.56
-138.88
-127.87
-110.18
-87.66
-62.81
-38.18
-15.75
3.32
18.72
30.72
39.94
47.07
52.71
57.26
60.97
63.97
66.37
68.34
70.14
72.05
74.22
76.65
79.17
81.55
83.6
85.22
86.33
86.8
86.43
84.96
82.23
78.29
73.42
68.05
62.63
57.49
52.79
48.49
44.38
40.17
35.67
30.88
26.04
21.52
17.62
14.41
11.54
8.45
4.63
-0.12
-5.6
-11.33
-16.83
-21.82
-26.32
-30.62
-35.05
-39.95
-45.48
-51.66
-58.3
-65.02
-71.43
-77.25
-82.58
-87.87
-93.9
-101.38
-110.62
-121.23
-132.03
-141.21
-146.73
-146.74
-140.06
-126.51
-107.09
-83.72
-58.88
-35.07
-14.14
2.95
16.24
26.42
34.39
40.86
46.17
50.28
53.11
54.68
55.34
55.66
56.24
57.48
59.42
61.81
64.23
66.34
67.95
69.01
69.58
69.6
68.88
67.09
63.95
59.42
53.79
47.66
41.71
36.41
31.84
27.68
23.44
18.72
13.45
7.92
2.56
-2.25
-6.41
-10.08
-13.58
-17.23
-21.23
-25.66
-30.5
-35.68
-41.09
-46.66
-52.34
-58.2
-64.49
-71.56
-79.79
-89.36
-99.9
-110.38
-119.07
-123.91
-123.01
-115.29
-100.89
-81.22
-58.61
-35.63
-14.42
3.78
18.69
30.64
40.24
47.95
54.0
58.4
61.23
62.73
63.35
63.63
64.07
64.97
66.39
68.23
70.3
72.44
74.46
76.23
77.57
78.24
77.94
76.44
73.68
69.8
65.18
60.3
55.56
51.17
47.13
43.28
39.44
35.57
31.75
28.15
24.91
22.1
19.64
17.39
15.16
12.79
10.19
7.34
4.33
1.34
-1.44
-3.88
-5.96
-7.87
-9.9
-12.32
-15.28
-18.73
-22.47
-26.31
-30.14
-34.04
-38.16
-42.65
-47.56
-52.81
-58.28
-63.76
-69.11
-74.2
-79.09
-83.99
-89.4
-95.92
-104.09
-113.99
-124.91
-135.27
-142.84
-145.25
-140.7
-128.53
-109.45
-85.4
-59.06
-33.18
-10.03
9.05
23.7
34.36
41.91
47.27
51.15
53.99
56.03
57.49
58.66
59.86
61.3
63.05
64.97
66.87
68.63
70.28
71.86
73.29
74.3
74.49
73.47
71.12
67.6
63.29
58.63
53.97
49.48
45.19
41.04
36.97
32.96
29.04
25.27
21.8
18.7
16.09
13.96
12.22
10.67
9.03
6.99
4.32
0.94
-3.07
-7.47
-11.99
-16.48
-21.04
-25.94
-31.56
-38.08
-45.38
-53.03
-60.48
-67.29
-73.4
-79.08
-84.92
-91.55
-99.46
-108.81
-119.18
-129.44
-137.8
-142.02
-139.97
-130.34
-113.22
-90.19
-63.92
-37.42
-13.24
7.12
23.22
35.39
44.34
50.78
55.27
58.3
60.24
61.46
62.33
63.13
64.15
65.55
67.41
69.73
72.39
75.21
78.03
80.69
83.03
84.79
85.61
85.12
83.02
79.27
74.2
68.32
62.23
56.34
50.78
45.5
40.37
35.31
30.35
25.61
21.23
17.28
13.77
10.6
7.59
4.51
1.07
-2.87
-7.32
-12.11
-16.98
-21.79
-26.53
-31.39
-36.7
-42.7
-49.44
-56.74
-64.24
-71.53
-78.32
-84.56
-90.5
-96.66
-103.68
-111.97
-121.46
-131.21
-139.43
-143.83
-142.21
-133.22
-116.87
-94.6
-68.85
-42.46
-17.88
3.33
20.52
33.82
43.73
50.86
55.75
58.82
60.54
61.33
61.69
62.01
62.56
63.49
64.78
66.37
68.21
70.27
72.52
74.81
76.88
78.35
78.86
78.2
76.36
73.53
70.0
66.01
61.71
57.16
52.43
47.61
42.88
38.35
34.07
30.02
26.08
22.24
18.49
14.93
11.62
8.53
5.51
2.35
-1.14
-5.03
-9.27
-13.71
-18.12
-22.32
-26.25
-29.99
-33.79
-37.97
-42.8
-48.38
-54.62
-61.15
-67.58
-73.58
-79.08
-84.26
-89.55
-95.53
-102.7
-111.32
-121.17
-131.31
-140.06
-145.18
-144.36
-135.89
-119.36
-95.91
-68.05
-38.99
-11.76
11.5
29.88
43.48
53.03
59.39
63.3
65.39
66.19
66.29
66.23
66.45
67.11
68.18
69.45
70.74
71.97
73.17
74.44
75.82
77.25
78.56
79.47
79.62
78.66
76.39
72.82
68.19
62.9
57.4
52.01
46.92
42.15
37.65
33.29
28.96
24.6
20.25
16.05
12.27
9.16
6.77
4.9
3.09
0.84
-2.15
-5.84
-9.92
-14.0
-17.89
-21.76
-26.0
-31.05
-37.17
-44.28
-52.01
-59.84
-67.27
-73.95
-79.78
-85.02
-90.28
-96.35
-103.97
-113.38
-123.97
-134.1
-141.38
-143.21
-137.54
-123.58
-102.07
-75.2
-45.97
-17.52
7.59
27.83
42.77
52.84
59.0
62.32
63.75
63.97
63.46
62.6
61.73
61.21
61.37
62.41
64.32
66.96
70.08
73.46
76.88
80.14
82.91
84.8
85.36
84.26
81.39
76.98
71.45
65.31
59.03
52.92
47.14
41.69
36.5
31.46
26.58
21.94
17.69
13.98
10.81
8.01
5.27
2.3
-1.07
-4.85
-8.95
-13.22
-17.59
-21.98
-26.4
-30.94
-35.81
-41.27
-47.57
-54.69
-62.35
-69.98
-77.04
-83.24
-88.72
-94.04
-100.0
-107.27
-116.16
-126.35
-136.77
-145.61
-150.6
-149.55
-140.91
-124.42
-101.3
-73.97
-45.45
-18.56
4.7
23.4
37.54
47.72
54.72
59.25
61.88
63.1
63.3
62.97
62.48
62.17
62.23
62.74
63.73
65.21
67.16
69.52
72.11
74.6
76.61
77.74
77.67
76.27
73.56
69.79
65.32
60.55
55.81
51.25
46.88
42.54
38.1
33.51
28.89
24.46
20.44
17.0
14.17
11.83
9.77
7.7
5.3
2.3
-1.4
-5.76
-10.55
-15.54
-20.56
-25.66
-31.02
-36.85
-43.26
-50.2
-57.48
-64.81
-71.93
-78.64
-84.83
-90.62
-96.4
-102.87
-110.77
-120.5
-131.67
-142.75
-151.3
-154.5
-150.04
-136.98
-116.0
-89.3
-59.94
-31.01
-5.0
16.62
33.33
45.42
53.64
58.9
62.12
64.02
65.13
65.77
66.14
66.35
66.52
66.8
67.39
68.46
70.07
72.2
74.64
77.05
79.03
80.22
80.39
79.35
77.05
73.49
68.72
62.97
56.61
50.17
44.09
38.6
33.62
28.85
23.93
18.67
13.19
7.81
2.88
-1.38
-5.04
-8.38
-11.83
-15.73
-20.29
-25.52
-31.24
-37.18
-43.11
-48.9
-54.55
-60.25
-66.33
-73.22
-81.33
-90.92
-101.7
-112.64
-121.88
-127.04
-125.82
-116.81
-100.03
-77.09
-50.71
-23.99
0.46
21.0
37.09
49.02
57.44
63.05
66.37
67.87
67.99
67.25
66.23
65.41
65.12
65.46
66.34
67.6
69.12
70.85
72.79
74.92
77.07
78.87
79.73
79.11
76.64
72.39
66.86
60.83
55.02
49.75
44.96
40.29
35.44
30.31
25.17
20.34
16.11
12.46
9.17
5.9
2.36
-1.6
-6.0
-10.72
-15.59
-20.42
-25.07
-29.58
-34.12
-38.94
-44.29
-50.19
-56.46
-62.74
-68.74
-74.32
-79.67
-85.28
-91.79
-99.78
-109.52
-120.69
-132.27
-142.45
-148.93
-149.43
-142.32
-127.14
-104.93
-78.03
-49.48
-22.23
1.55
20.74
35.26
45.64
52.67
57.1
59.56
60.65
60.91
60.84
60.85
61.16
61.86
62.99
64.56
66.62
69.13
71.98
74.94
77.7
79.93
81.26
81.42
80.17
77.48
73.51
68.57
63.12
57.55
52.13
46.94
41.97
37.2
32.61
28.25
24.2
20.47
17.02
13.7
10.33
6.69
2.62
-1.93
-6.83
-11.91
-16.99
-22.0
-27.11
-32.59
-38.69
-45.47
-52.66
-59.77
-66.33
-72.09
-77.18
-82.15
-87.78
-94.8
-103.68
-114.29
-125.8
-136.56
-144.4
-146.98
-142.47
-130.09
-110.5
-85.68
-58.46
-31.77
-7.97
11.57
26.49
37.11
44.2
48.63
51.2
52.63
53.46
54.11
54.78
55.54
56.4
57.37
58.54
60.05
62.02
64.44
67.15
69.83
72.06
73.44
73.7
72.68
70.36
66.84
62.29
56.97
51.18
45.25
39.48
34.13
29.29
24.93
20.87
16.82
12.52
7.84
2.85
-2.18
-6.94
-11.2
-14.93
-18.4
-22.0
-26.16
-31.1
-36.85
-43.23
-49.94
-56.66
-63.21
-69.57
-75.97
-82.82
-90.67
-99.91
-110.45
-121.49
-131.36
-137.79
-138.43
-131.55
-116.68
-94.84
-68.37
-40.27
-13.45
9.92
28.71
42.79
52.71
59.36
63.55
65.97
67.08
67.24
66.8
66.12
65.55
65.32
65.52
66.12
67.02
68.22
69.69
71.42
73.22
74.7
75.37
74.8
72.77
69.33
64.78
59.52
53.94
48.36
43.0
38.0
33.4
29.14
25.13
21.37
17.85
14.65
11.74
8.89
5.79
2.12
-2.18
-6.93
-11.8
-16.54
-21.19
-26.12
-31.8
-38.51
-46.15
-54.23
-62.15
-69.42
-75.93
-81.9
-87.87
-94.47
-102.26
-111.57
-122.13
-133.0
-142.39
-148.0
-147.53
-139.4
-123.28
-100.39
-73.11
-44.44
-17.22
6.42
25.37
39.5
49.39
55.99
60.3
63.14
65.02
66.24
66.94
67.29
67.5
67.88
68.65
69.96
71.77
73.97
76.4
78.88
81.23
83.2
84.4
84.41
82.87
79.66
74.97
69.29
63.19
57.18
51.55
46.29
41.21
36.06
30.71
25.21
19.84
14.96
10.82
7.47
4.67
1.97
-1.1
-4.83
-9.22
-13.99
-18.77
-23.31
-27.55
-31.7
-36.09
-40.99
-46.54
-52.68
-59.18
-65.72
-71.96
-77.67
-82.88
-87.93
-93.51
-100.41
-109.21
-119.81
-131.26
-141.69
-148.68
-149.84
-143.47
-129.11
-107.7
-81.44
-53.25
-26.08
-2.29
16.79
30.93
40.72
47.19
51.31
53.82
55.14
55.54
55.28
54.74
54.3
54.3
54.91
56.18
58.04
60.53
63.66
67.36
71.38
75.17
78.05
79.4
78.85
76.45
72.55
67.73
62.53
57.37
52.49
47.91
43.47
38.93
34.05
28.77
23.27
17.98
13.31
9.48
6.36
3.43
0.11
-4.07
-9.28
-15.38
-22.06
-29.06
-36.18
-43.35
-50.68
-58.44
-67.07
-77.02
-88.42
-100.63
-112.05
-120.26
-122.68
-117.41
-103.99
-83.65
-58.9
-32.8
-8.08
13.36
30.71
43.93
53.47
59.96
63.99
66.15
66.97
66.92
66.39
65.68
64.93
64.27
63.81
63.73
64.2
65.39
67.28
69.65
72.02
73.82
74.5
73.75
71.51
68.0
63.56
58.54
53.25
47.89
42.58
37.41
32.46
27.72
23.23
18.97
15.0
11.4
8.24
5.52
3.05
0.57
-2.23
-5.54
-9.33
-13.43
-17.65
-21.96
-26.48
-31.47
-37.12
-43.44
-50.21
-57.07
-63.69
-69.86
-75.63
-81.26
-87.23
-94.11
-102.38
-112.12
-122.74
-132.78
-139.97
-141.81
-136.3
-122.67
-101.8
-76.01
-48.41
-22.11
0.64
18.71
32.11
41.59
48.14
52.7
55.91
58.17
59.72
60.75
61.55
62.42
63.66
65.44
67.72
70.35
73.1
75.88
78.61
81.22
83.45
84.87
85.02
83.55
80.44
75.98
70.68
65.06
59.49
54.16
49.11
44.36
39.9
35.71
31.74
27.93
24.24
20.64
17.11
13.61
10.04
6.31
2.4
-1.6
-5.58
-9.5
-13.57
-18.17
-23.68
-30.3
-37.88
-45.93
-53.83
-61.07
-67.48
-73.24
-78.88
-85.1
-92.61
-101.84
-112.66
-124.14
-134.49
-141.36
-142.48
-136.33
-122.68
-102.73
-78.8
-53.69
-30.04
-9.7
6.44
18.42
26.97
33.05
37.52
40.94
43.55
45.4
46.58
47.37
48.11
49.15
50.64
52.51
54.56
56.64
58.71
60.78
62.78
64.44
65.28
64.83
62.78
59.2
54.47
49.09
43.5
37.92
32.4
26.84
21.16
15.35
9.49
3.75
-1.69
-6.66
-11.12
-15.21
-19.22
-23.54
-28.49
-34.13
-40.26
-46.46
-52.38
-57.86
-63.13
-68.75
-75.43
-83.77
-93.95
-105.46
-117.02
-126.67
-132.17
-131.55
-123.75
-108.89
-88.4
-64.6
-40.1
-17.19
2.59
18.63
31.04
40.36
47.23
52.19
55.61
57.68
58.61
58.68
58.32
57.97
58.01
58.62
59.76
61.28
63.01
64.85
66.74
68.52
69.87
70.33
69.45
67.02
63.17
58.3
52.98
47.63
42.49
37.6
32.89
28.36
24.08
20.16
16.61
13.38
10.38
7.5
4.7
1.98
-0.67
-3.31
-6.07
-9.12
-12.64
-16.82
-21.81
-27.64
-34.21
-41.25
-48.39
-55.21
-61.43
-67.08
-72.5
-78.33
-85.27
-93.87
-104.2
-115.67
-126.89
-135.85
-140.28
-138.22
-128.64
-111.77
-89.22
-63.54
-37.62
-13.96
5.84
21.25
32.61
40.77
46.63
50.91
54.11
56.55
58.47
60.07
61.48
62.8
64.07
65.3
66.56
67.88
69.28
70.66
71.87
72.69
72.91
72.42
71.08
68.85
65.75
61.89
57.47
52.76
48.0
43.35
38.81
34.36
30.01
25.9
22.18
18.96
16.18
13.63
11.04
8.26
5.33
2.44
-0.23
-2.67
-5.1
-7.95
-11.65
-16.42
-22.12
-28.36
-34.6
-40.42
-45.7
-50.67
-55.84
-61.88
-69.37
-78.58
-89.32
-100.75
-111.34
-119.02
-121.66
-117.58
-106.18
-88.17
-65.55
-41.02
-17.36
3.34
19.98
32.5
41.48
47.79
52.15
55.01
56.59
57.11
56.86
56.23
55.66
55.47
55.8
56.65
57.95
59.65
61.66
63.83
65.89
67.44
68.01
67.25
64.97
61.25
56.37
50.75
44.84
39.08
33.69
28.75
24.12
19.54
14.75
9.67
4.37
-0.93
-6.0
-10.71
-15.14
-19.48
-24.02
-29.02
-34.62
-40.78
-47.38
-54.15
-60.83
-67.16
-73.04
-78.58
-84.18
-90.45
-98.0
-107.12
-117.48
-127.91
-136.55
-141.11
-139.52
-130.57
-114.38
-92.47
-67.44
-42.21
-19.34
-0.34
14.4
25.35
33.4
39.39
43.87
47.11
49.28
50.58
51.37
52.02
52.89
54.23
56.18
58.74
61.86
65.41
69.15
72.77
75.84
77.94
78.65
77.75
75.21
71.27
66.36
60.95
55.43
50.01
44.7
39.44
34.14
28.79
23.51
18.49
13.93
9.92
6.38
3.13
-0.06
-3.37
-6.86
-10.47
-14.15
-17.91
-21.86
-26.22
-31.21
-36.95
-43.41
-50.35
-57.42
-64.22
-70.54
-76.4
-82.21
-88.64
-96.42
-106.01
-117.15
-128.75
-138.83
-145.01
-145.07
-137.6
-122.46
-100.89
-75.22
-48.25
-22.65
-0.4
17.51
31.01
40.7
47.49
52.29
55.79
58.44
60.51
62.19
63.66
65.13
66.74
68.55
70.6
72.82
75.18
77.62
80.0
82.12
83.6
84.02
82.99
80.34
76.22
71.06
65.47
60.02
55.03
50.55
46.36
42.14
37.67
32.88
27.92
23.01
18.35
13.99
9.82
5.7
1.51
-2.74
-6.97
-11.06
-14.97
-18.83
-22.89
-27.45
-32.74
-38.84
-45.64
-52.85
-60.11
-67.03
-73.34
-79.02
-84.4
-90.17
-97.2
-106.15
-117.07
-129.09
-140.39
-148.51
-150.94
-145.82
-132.47
-111.68
-85.49
-56.84
-28.8
-3.95
16.17
31.21
41.76
48.99
54.06
57.83
60.73
62.91
64.43
65.44
66.15
66.79
67.55
68.54
69.86
71.54
73.6
76.02
78.59
80.97
82.64
83.01
81.56
78.03
72.59
65.82
58.58
51.7
45.69
40.56
35.92
31.15
25.86
20.01
13.95
8.18
3.14
-1.06
-4.68
-8.19
-12.16
-17.03
-22.99
-29.9
-37.33
-44.73
-51.68
-58.11
-64.36
-71.16
-79.31
-89.32
-101.11
-113.75
-125.47
-133.97
-136.84
-132.26
-119.47
-99.18
-73.44
-45.2
-17.54
7.05
27.14
42.44
53.49
61.15
66.24
69.36
70.89
71.16
70.57
69.57
68.62
68.04
68.02
68.61
69.8
71.51
73.65
75.98
78.16
79.77
80.4
79.74
77.63
74.12
69.41
63.81
57.73
51.58
45.67
40.14
34.96
29.99
25.18
20.55
16.25
12.41
9.03
5.95
2.85
-0.53
-4.4
-8.75
-13.49
-18.51
-23.72
-29.17
-34.97
-41.28
-48.14
-55.37
-62.62
-69.42
-75.46
-80.79
-85.95
-91.84
-99.37
-109.0
-120.38
-132.13
-142.08
-147.7
-146.7
-137.71
-120.66
-96.92
-69.04
-40.11
-13.03
10.16
28.52
42.12
51.7
58.18
62.38
64.88
66.12
66.52
66.49
66.48
66.85
67.83
69.44
71.61
74.14
76.85
79.54
82.01
84.02
85.28
85.39
84.04
81.04
76.41
70.51
63.94
57.39
51.46
46.46
42.34
38.76
35.29
31.58
27.53
23.3
19.22
15.54
12.4
9.67
7.04
4.13
0.64
-3.56
-8.35
-13.44
-18.53
-23.39
-28.02
-32.62
-37.57
-43.16
-49.54
-56.59
-64.0
-71.33
-78.3
-84.79
-90.99
-97.29
-104.18
-112.19
-121.57
-132.08
-142.72
-151.67
-156.54
-154.91
-145.17
-127.12
-102.27
-73.44
-44.03
-17.02
5.63
23.22
36.09
45.15
51.43
55.75
58.62
60.33
61.07
61.14
60.94
60.99
61.69
63.27
65.67
68.64
71.83
74.94
77.75
80.05
81.61
82.11
81.24
78.86
75.0
69.93
64.05
57.76
51.39
45.2
39.35
33.94
29.01
24.51
20.26
16.06
11.75
7.32
2.84
-1.51
-5.64
-9.59
-13.56
-17.87
-22.85
-28.76
-35.61
-43.18
-51.04
-58.66
-65.68
-72.02
-78.09
-84.6
-92.33
-101.76
-112.76
-124.39
-135.0
-142.42
-144.47
-139.43
-126.55
-106.4
-80.82
-52.61
-24.81
0.02
20.33
35.7
46.65
54.18
59.26
62.63
64.75
65.91
66.4
66.57
66.76
67.28
68.27
69.75
71.65
73.88
76.33
78.87
81.3
83.29
84.46
84.45
82.97
79.94
75.52
70.06
64.13
58.29
53.03
