0
-0.42
-3.16
-5.73
-8.23
-10.74
-13.29
-15.86
-18.44
-20.97
-23.37
-25.52
-27.33
-28.85
-30.28
-31.97
-34.24
-37.19
-40.58
-43.8
-46.01
-46.32
-44.07
-38.97
-31.2
-21.43
-10.63
0.15
10.03
18.48
25.29
30.43
33.95
35.9
36.39
35.67
34.16
32.32
30.56
29.07
27.87
26.86
26.01
25.33
24.85
24.53
24.16
23.41
21.89
19.27
15.44
10.59
5.2
-0.06
-4.48
-7.65
-9.54
-10.59
-11.45
-12.8
-15.02
-18.09
-21.67
-25.26
-28.44
-30.98
-32.91
-34.48
-36.09
-38.11
-40.78
-44.04
-47.43
-50.14
-51.17
-49.64
-45.03
-37.45
-27.57
-16.46
-5.25
5.04
13.76
20.6
25.53
28.7
30.32
30.67
30.03
28.74
27.19
25.71
24.57
23.84
23.46
23.23
22.95
22.5
21.89
21.21
20.51
19.79
18.94
17.84
16.4
14.64
12.66
10.56
8.46
6.42
4.49
2.66
0.88
-0.91
-2.78
-4.79
-6.92
-9.08
-11.22
-13.36
-15.68
-18.4
-21.75
-25.85
-30.63
-35.81
-40.85
-45.04
-47.58
-47.71
-44.98
-39.38
-31.39
-21.78
-11.41
-0.99
8.97
18.14
26.19
32.74
37.42
40.03
40.63
39.59
37.43
34.75
32.02
29.58
27.58
26.03
24.86
23.92
23.08
22.22
21.26
20.11
18.63
16.66
14.15
11.17
7.99
4.96
2.38
0.37
-1.19
-2.53
-3.96
-5.71
-7.95
-10.73
-13.99
-17.52
-20.99
-24.09
-26.67
-28.86
-31.04
-33.6
-36.75
-40.29
-43.65
-45.99
-46.52
-44.62
-40.06
-32.96
-23.84
-13.5
-2.93
6.86
15.06
21.22
25.2
27.2
27.54
26.65
24.95
22.89
20.94
19.46
18.63
18.45
18.71
19.16
19.56
19.74
19.56
18.96
17.87
16.33
14.46
12.42
10.3
8.12
5.81
3.27
0.52
-2.37
-5.27
-8.11
-10.94
-13.83
-16.84
-19.9
-22.96
-26.0
-29.16
-32.64
-36.52
-40.62
-44.39
-47.06
-47.79
-45.97
-41.36
-34.17
-24.97
-14.65
-4.19
5.5
13.77
20.3
25.07
28.24
29.98
30.45
29.77
28.21
26.13
24.02
22.27
21.11
20.52
20.32
20.25
20.09
19.69
18.99
17.96
16.61
14.92
12.88
10.45
7.66
4.62
1.53
-1.37
-3.85
-5.9
-7.69
-9.54
-11.76
-14.44
-17.44
-20.42
-23.11
-25.35
-27.28
-29.21
-31.5
-34.43
-38.08
-42.29
-46.65
-50.46
-52.83
-52.86
-49.85
-43.59
-34.48
-23.43
-11.63
-0.18
10.13
18.93
26.12
31.81
36.09
39.0
40.57
40.91
40.21
38.84
37.24
35.82
34.83
34.26
33.9
33.5
32.88
31.99
30.87
29.57
28.03
26.14
23.85
21.24
18.58
16.13
14.1
12.47
11.12
9.87
8.58
7.17
5.59
3.78
1.72
-0.58
-3.03
-5.53
-8.05
-10.64
-13.42
-16.47
-19.79
-23.36
-27.22
-31.54
-36.47
-41.9
-47.3
-51.71
-53.95
-53.05
-48.65
-41.06
-31.23
-20.32
-9.42
0.64
9.34
16.41
21.71
25.21
27.0
27.27
26.38
24.72
22.74
20.79
19.14
17.95
17.28
17.16
17.55
18.28
19.12
19.71
19.76
19.02
17.48
15.29
12.72
10.09
7.66
5.56
3.8
2.24
0.66
-1.2
-3.51
-6.32
-9.45
-12.59
-15.41
-17.76
-19.69
-21.51
-23.62
-26.36
-29.86
-33.92
-38.0
-41.3
-42.89
-42.0
-38.19
-31.52
-22.56
-12.26
-1.71
8.11
16.49
23.09
27.84
30.85
32.28
32.35
31.29
29.41
27.08
24.77
22.88
21.68
21.24
21.37
21.73
21.95
21.84
21.35
20.55
19.5
18.18
16.45
14.21
11.46
8.4
5.31
2.46
-0.03
-2.18
-4.18
-6.25
-8.59
-11.26
-14.22
-17.33
-20.36
-23.09
-25.42
-27.35
-29.13
-31.13
-33.73
-37.25
-41.71
-46.73
-51.54
-55.06
-56.18
-54.04
-48.4
-39.59
-28.55
-16.5
-4.62
6.16
15.27
22.55
28.07
32.06
34.75
36.32
36.91
36.62
35.68
34.45
33.34
32.73
32.74
33.21
33.75
33.97
33.66
32.83
31.71
30.48
29.22
27.81
26.06
23.84
21.18
18.29
15.44
12.89
10.74
8.95
7.32
5.6
3.6
1.25
-1.38
-4.12
-6.77
-9.24
-11.57
-13.87
-16.34
-19.17
-22.54
-26.55
-31.22
-36.3
-41.26
-45.25
-47.3
-46.62
-42.82
-36.05
-26.98
-16.59
-5.95
4.0
12.54
19.24
23.96
26.79
27.98
27.84
26.62
24.59
22.02
19.26
16.71
14.72
13.45
12.85
12.7
12.65
12.44
11.85
10.84
9.41
7.69
5.82
3.96
2.19
0.45
-1.42
-3.52
-5.85
-8.19
-10.27
-11.9
-13.13
-14.22
-15.53
-17.27
-19.45
-21.98
-24.82
-28.02
-31.62
-35.42
-38.8
-40.81
-40.38
-36.89
-30.37
-21.61
-11.76
-2.03
6.75
14.16
20.09
24.58
27.64
29.24
29.43
28.37
26.41
24.01
21.62
19.61
18.13
17.15
16.52
16.11
15.85
15.65
15.44
15.02
14.14
12.6
10.37
7.63
4.69
1.87
-0.71
-3.04
-5.25
-7.45
-9.68
-11.94
-14.25
-16.64
-19.17
-21.87
-24.76
-27.82
-31.1
-34.7
-38.69
-42.97
-47.16
-50.54
-52.2
-51.29
-47.28
-40.19
-30.61
-19.56
-8.17
2.57
12.04
19.96
26.32
31.17
34.51
36.36
36.78
35.99
34.42
32.54
30.75
29.26
28.14
27.34
26.85
26.66
26.75
26.99
27.12
26.84
25.89
24.22
21.97
19.41
16.83
14.38
12.08
9.83
7.44
4.79
1.83
-1.39
-4.73
-8.01
-11.12
-14.02
-16.78
-19.51
-22.37
-25.53
-29.14
-33.27
-37.77
-42.15
-45.56
-47.0
-45.66
-41.2
-33.99
-24.94
-15.26
-6.0
2.08
8.67
13.79
17.62
20.36
22.11
22.93
22.79
21.77
20.13
18.29
16.82
16.09
16.2
16.86
17.58
17.89
17.61
16.87
15.93
15.03
14.13
13.02
11.45
9.32
6.77
4.12
1.62
-0.63
-2.79
-5.09
-7.74
-10.79
-14.09
-17.44
-20.76
-24.16
-27.87
-32.06
-36.62
-40.98
-44.19
-45.28
-43.53
-38.85
-31.71
-23.03
-13.8
-4.81
3.46
10.85
17.25
22.61
26.76
29.56
31.0
31.22
30.54
29.36
28.09
26.99
26.17
25.63
25.24
24.91
24.56
24.15
23.59
22.74
21.34
19.19
16.22
12.65
8.95
5.59
2.88
0.78
-1.05
-3.07
-5.63
-8.76
-12.25
-15.77
-19.0
-21.82
-24.22
-26.34
-28.34
-30.45
-32.88
-35.79
-39.13
-42.51
-45.27
-46.5
-45.38
-41.4
-34.58
-25.52
-15.19
-4.75
4.83
12.95
19.4
24.27
27.75
30.05
31.26
31.48
30.87
29.74
28.5
27.53
27.1
27.24
27.83
28.66
29.53
30.36
31.05
31.56
31.72
31.33
30.14
28.0
24.93
21.17
17.16
13.45
10.43
8.3
6.98
6.13
5.34
4.3
2.79
0.81
-1.56
-4.14
-6.74
-9.2
-11.51
-13.76
-16.14
-18.95
-22.35
-26.34
-30.63
-34.7
-37.84
-39.31
-38.49
-35.03
-29.0
-20.92
-11.7
-2.43
5.9
12.75
17.95
21.68
24.23
25.71
26.14
25.52
24.05
22.14
20.31
18.91
18.02
17.43
16.82
15.96
14.83
13.53
12.21
10.89
9.5
7.9
5.96
3.65
1.0
-1.85
-4.73
-7.43
-9.83
-11.93
-13.83
-15.71
-17.67
-19.64
-21.38
-22.67
-23.41
-23.74
-24.05
-24.81
-26.35
-28.79
-31.84
-34.91
-37.17
-37.74
-36.0
-31.75
-25.33
-17.53
-9.26
-1.31
5.83
11.99
17.19
21.42
24.57
26.53
27.23
26.79
25.48
23.73
21.9
20.28
18.98
17.98
17.21
16.6
16.14
15.89
15.89
15.99
15.89
15.13
13.33
10.38
6.57
2.49
-1.23
-4.15
-6.2
-7.59
-8.75
-10.02
-11.65
-13.72
-16.18
-18.9
-21.69
-24.38
-26.8
-28.98
-31.12
-33.54
-36.52
-40.11
-43.95
-47.3
-49.27
-48.96
-45.87
-39.99
-31.87
-22.43
-12.71
-3.6
4.36
10.97
16.23
20.22
22.97
24.49
24.86
24.31
23.2
21.91
20.79
20.03
19.75
19.97
20.65
21.66
22.74
23.57
23.85
23.49
22.5
21.08
19.39
17.59
15.78
14.06
12.54
11.29
10.25
9.26
8.12
6.74
5.11
3.36
1.55
-0.31
-2.33
-4.61
-7.14
-9.82
-12.49
-15.01
-17.35
-19.61
-21.93
-24.52
-27.62
-31.32
-35.56
-39.96
-43.87
-46.42
-46.76
-44.34
-39.06
-31.35
-22.0
-12.03
-2.37
6.24
13.4
18.98
23.04
25.72
27.17
27.56
27.11
26.1
24.87
23.76
22.9
22.29
21.73
21.04
20.11
18.96
17.73
16.52
15.31
13.92
12.13
9.75
6.78
3.42
0.04
-2.99
-5.47
-7.46
-9.21
-11.08
-13.3
-15.94
-18.83
-21.68
-24.25
-26.35
-27.93
-29.09
-30.06
-31.18
-32.89
-35.49
-39.0
-42.99
-46.64
-48.88
-48.73
-45.61
-39.43
-30.67
-20.16
-8.88
2.11
11.97
20.02
25.93
29.65
31.44
31.72
30.99
29.76
28.42
27.25
26.39
25.81
25.4
25.01
24.51
23.84
23.05
22.2
21.3
20.26
18.89
16.99
14.46
11.39
8.03
4.74
1.76
-0.79
-3.01
-5.11
-7.27
-9.58
-11.99
-14.39
-16.69
-18.91
-21.13
-23.56
-26.42
-29.93
-34.28
-39.46
-45.26
-51.13
-56.23
-59.57
-60.18
-57.41
-51.12
-41.77
-30.3
-18.0
-6.11
4.41
13.0
19.57
24.31
27.55
29.6
30.7
31.08
30.95
30.57
30.17
29.97
30.07
30.51
31.24
32.12
32.99
33.66
33.99
33.89
33.27
32.1
30.32
27.91
24.98
21.77
18.65
15.98
13.95
12.47
11.19
9.69
7.64
4.91
1.63
-1.98
-5.64
-9.08
-12.17
-14.89
-17.43
-20.17
-23.6
-28.13
-33.82
-40.27
-46.6
-51.62
-54.09
-53.05
-48.04
-39.28
-27.64
-14.46
-1.25
10.7
20.59
28.12
33.42
36.77
38.45
38.78
38.06
36.72
35.21
33.95
33.16
32.86
32.86
32.9
32.72
32.11
30.98
29.37
27.38
25.14
22.65
19.83
16.55
12.78
8.72
4.76
1.32
-1.45
-3.69
-5.82
-8.22
-11.03
-14.07
-16.98
-19.44
-21.36
-22.9
-24.43
-26.33
-28.92
-32.42
-36.82
-41.83
-46.77
-50.63
-52.24
-50.65
-45.44
-36.87
-25.8
-13.44
-1.06
10.31
19.96
27.55
33.0
36.42
38.01
38.05
36.91
35.02
32.88
30.89
29.37
28.4
27.89
27.66
27.53
27.41
27.28
27.11
26.75
25.94
24.36
21.84
18.4
14.34
10.16
6.34
3.25
0.96
-0.75
-2.29
-4.11
-6.44
-9.3
-12.44
-15.54
-18.34
-20.72
-22.75
-24.69
-26.92
-29.89
-34.01
-39.48
-46.1
-53.12
-59.23
-62.97
-63.07
-58.99
-51.05
-40.32
-28.24
-16.14
-4.93
4.87
13.07
19.56
24.23
27.07
28.19
28.0
27.08
26.09
25.53
25.66
26.45
27.64
28.94
30.05
30.88
31.41
31.69
31.74
31.44
30.6
29.03
26.71
23.79
20.6
17.52
14.85
12.71
11.04
9.66
8.35
6.88
5.04
2.69
-0.19
-3.47
-6.87
-10.11
-13.0
-15.57
-18.05
-20.86
-24.41
-28.93
-34.29
-39.88
-44.67
-47.44
-47.15
-43.29
-36.04
-26.25
-15.13
-3.92
6.42
15.32
22.55
28.12
32.08
34.54
35.6
35.44
34.26
32.36
30.05
27.69
25.57
23.89
22.72
22.0
21.6
21.34
21.03
20.46
19.42
17.7
15.17
11.92
8.18
4.33
0.74
-2.38
-5.01
-7.31
-9.49
-11.67
-13.89
-16.09
-18.22
-20.26
-22.19
-24.0
-25.73
-27.51
-29.55
-32.12
-35.29
-38.78
-41.85
-43.53
-42.88
-39.36
-33.02
-24.45
-14.55
-4.33
5.34
13.77
20.52
25.35
28.26
29.48
29.35
28.31
26.76
25.05
23.44
22.06
20.98
20.15
19.5
18.96
18.44
17.86
17.08
15.95
14.35
12.23
9.66
6.8
3.84
0.97
-1.69
-4.07
-6.17
-8.08
-9.93
-11.91
-14.15
-16.64
-19.3
-21.91
-24.35
-26.59
-28.82
-31.26
-34.12
-37.46
-41.17
-44.89
-48.06
-49.97
-49.79
-46.81
-40.72
-31.83
-21.09
-9.84
0.61
9.34
16.02
20.78
23.94
25.81
26.54
26.29
25.27
23.82
22.31
21.01
20.04
19.41
19.05
18.89
18.89
18.91
18.78
18.33
17.48
16.25
14.73
13.01
11.13
9.14
7.14
5.34
3.92
2.99
2.4
1.79
0.78
-0.95
-3.44
-6.5
-9.83
-13.11
-16.18
-18.95
-21.53
-24.13
-27.03
-30.45
-34.38
-38.42
-41.76
-43.38
-42.38
-38.3
-31.41
-22.55
-12.82
-3.29
5.31
12.61
18.48
22.89
25.78
27.11
26.91
25.4
22.97
20.16
17.54
15.53
14.33
13.91
14.07
14.53
15.04
15.34
15.28
14.7
13.51
11.7
9.32
6.53
3.51
0.43
-2.56
-5.36
-7.95
-10.38
-12.78
-15.28
-17.96
-20.78
-23.64
-26.47
-29.36
-32.54
-36.21
-40.26
-44.12
-46.88
-47.53
-45.37
-40.27
-32.71
-23.48
-13.47
-3.48
5.89
14.16
21.0
26.18
29.62
31.43
31.83
31.19
29.9
28.39
27.1
26.29
26.07
26.31
26.7
26.92
26.82
26.41
25.8
25.07
24.15
22.91
21.23
19.13
16.76
14.38
12.14
10.1
8.12
5.97
3.46
0.47
-2.94
-6.54
-10.06
-13.28
-16.1
-18.67
-21.32
-24.44
-28.36
-33.15
-38.53
-43.89
-48.33
-50.84
-50.48
-46.68
-39.46
-29.43
-17.68
-5.49
5.98
15.98
24.08
30.19
34.39
36.88
37.93
37.83
36.88
35.35
33.44
31.37
29.33
27.54
26.12
25.03
24.13
23.17
21.97
20.44
18.59
16.42
13.9
10.97
7.66
4.15
0.73
-2.3
-4.82
-6.87
-8.69
-10.51
-12.52
-14.72
-17.0
-19.2
-21.2
-23.01
-24.83
-26.97
-29.77
-33.38
-37.56
-41.61
-44.56
-45.31
-43.13
-37.81
-29.68
-19.58
-8.56
2.34
12.21
20.49
26.87
31.37
34.13
35.41
35.43
34.4
32.58
30.33
28.06
26.16
24.82
24.07
23.77
23.69
23.64
23.42
22.83
21.65
19.7
16.92
13.52
9.84
6.28
3.15
0.55
-1.62
-3.59
-5.58
-7.81
-10.38
-13.3
-16.45
-19.62
-22.57
-25.13
-27.22
-28.98
-30.72
-32.86
-35.77
-39.59
-44.03
-48.28
-51.14
-51.36
-47.98
-40.78
-30.35
-17.9
-4.95
7.16
17.49
25.65
31.67
35.84
38.52
40.07
40.74
40.69
40.0
38.71
36.85
34.5
31.78
28.83
25.78
22.79
20.01
17.63
15.81
14.62
13.97
13.58
13.1
12.21
10.83
9.15
7.49
6.21
5.45
5.15
5.06
4.88
4.32
3.22
1.58
-0.43
-2.5
-4.2
-5.24
-5.62
-5.78
-6.54
-8.83
-13.35
-20.2
-28.79
-37.95
-46.15
-51.93
-54.13
-52.17
-46.15
-36.82
-25.39
-13.27
-1.71
8.36
16.45
22.42
26.35
28.44
28.93
28.09
26.29
23.94
21.4
19.04
17.09
15.69
14.87
14.58
14.71
15.13
15.69
16.23
16.58
16.6
16.15
15.23
13.89
12.3
10.63
8.95
7.23
5.34
3.16
0.67
-2.01
-4.73
-7.38
-9.94
-12.48
-15.03
-17.6
-20.19
-22.85
-25.75
-29.14
-33.2
-37.89
-42.82
-47.28
-50.39
-51.26
-49.32
-44.39
-36.85
-27.53
-17.48
-7.77
0.85
8.0
13.58
17.66
20.28
21.47
21.34
20.21
18.56
16.95
15.79
15.28
15.38
15.91
16.68
17.45
18.0
18.08
17.54
16.33
14.55
12.44
10.19
7.9
5.61
3.27
0.9
-1.44
-3.69
-5.84
-8.01
-10.31
-12.84
-15.58
-18.46
-21.41
-24.48
-27.82
-31.52
-35.45
-39.2
-42.01
-43.01
-41.52
-37.24
-30.45
-21.92
-12.69
-3.71
4.36
11.23
16.89
21.38
24.69
26.71
27.36
26.79
25.41
23.74
22.32
21.42
21.05
21.02
21.09
21.11
20.97
20.59
19.79
18.46
16.51
14.03
11.27
8.53
6.05
3.99
2.31
0.85
-0.6
-2.25
-4.23
-6.53
-9.08
-11.74
-14.39
-16.99
-19.57
-22.16
-24.74
-27.32
-29.93
-32.8
-36.16
-40.06
-44.13
-47.54
-49.15
-47.99
-43.6
-36.23
-26.78
-16.38
-6.09
3.3
11.39
17.98
23.04
26.61
28.81
29.79
29.79
29.04
27.83
26.45
25.21
24.32
23.9
23.87
24.07
24.33
24.5
24.59
24.58
24.48
24.2
23.65
22.74
21.45
19.8
17.85
15.66
13.33
11.02
8.93
7.21
5.89
4.77
3.56
2.01
-0.05
-2.6
-5.5
-8.57
-11.66
-14.71
-17.69
-20.63
-23.63
-26.89
-30.59
-34.72
-38.99
-42.74
-45.05
-45.07
-42.18
-36.3
-27.91
-17.89
-7.35
2.67
11.37
18.31
23.28
26.36
27.73
27.66
26.49
24.66
22.62
20.76
19.36
18.51
18.16
18.13
18.24
18.3
18.19
17.77
16.95
15.71
14.08
12.14
9.98
7.59
5.0
2.25
-0.56
-3.24
-5.64
-7.75
-9.69
-11.68
-13.86
-16.21
-18.49
-20.44
-21.91
-22.98
-24.04
-25.59
-28.07
-31.63
-35.93
-40.18
-43.27
-44.11
-41.9
-36.44
-28.19
-18.14
-7.51
2.63
11.48
18.67
24.09
27.81
29.96
30.75
30.45
29.44
28.07
26.62
25.24
24.0
22.95
22.15
21.69
21.61
21.78
21.94
21.73
20.87
19.21
16.82
13.88
10.63
7.27
3.93
0.69
-2.42
-5.36
-8.14
-10.78
-13.35
-15.91
-18.56
-21.36
-24.33
-27.48
-30.8
-34.35
-38.18
-42.27
-46.37
-49.9
-51.97
-51.63
-48.22
-41.72
-32.73
-22.35
-11.71
-1.74
7.02
14.29
19.98
24.02
26.4
27.24
26.8
25.46
23.61
21.62
19.83
18.54
17.97
18.2
19.09
20.31
21.44
22.17
22.35
21.98
21.07
19.62
17.61
15.04
12.09
9.01
6.11
3.59
1.45
-0.46
-2.37
-4.45
-6.82
-9.41
-12.03
-14.46
-16.54
-18.3
-20.01
-22.12
-25.08
-29.12
-33.98
-38.98
-43.06
-45.14
-44.37
-40.31
-33.08
-23.28
-11.94
-0.3
10.45
19.49
26.43
31.31
34.42
36.11
36.69
36.37
35.4
34.0
32.46
31.0
29.7
28.6
27.65
26.78
25.92
24.98
23.84
22.39
20.6
18.52
16.25
13.89
11.47
8.94
6.3
3.46
0.4
-2.9
-6.39
-9.96
-13.42
-16.51
-19.11
-21.24
-23.17
-25.29
-27.98
-31.47
-35.7
-40.31
-44.64
-47.82
-48.92
-47.18
-42.26
-34.39
-24.41
-13.46
-2.76
6.72
14.42
20.18
24.1
26.43
27.48
27.55
26.95
26.0
25.0
24.16
23.63
23.44
23.5
23.65
23.7
23.45
22.8
21.73
20.3
18.59
16.67
14.53
12.1
9.28
5.98
2.22
-1.8
-5.78
-9.39
-12.4
-14.77
-16.68
-18.44
-20.44
-23.0
-26.37
-30.66
-35.75
-41.18
-46.17
-49.65
-50.58
-48.25
-42.52
-33.94
-23.56
-12.64
-2.37
6.42
13.4
18.62
22.37
25.0
26.7
27.53
27.53
26.82
25.7
24.57
23.72
23.24
22.98
22.73
22.31
21.77
21.24
20.77
20.27
19.48
18.12
16.09
13.42
10.31
6.96
3.6
0.39
-2.52
-5.08
-7.31
-9.34
-11.33
-13.37
-15.48
-17.65
-19.92
-22.48
-25.6
-29.49
-34.16
-39.33
-44.38
-48.49
-50.74
-50.3
-46.65
-39.84
-30.51
-19.69
-8.6
1.8
10.94
18.62
24.83
29.57
32.8
34.48
34.77
33.97
32.56
31.06
29.94
29.48
29.76
30.67
31.89
33.02
33.7
33.76
33.24
32.27
30.92
29.2
27.0
24.31
21.3
18.33
15.8
13.94
12.74
11.95
11.18
10.03
8.24
5.63
2.23
-1.79
-6.13
-10.39
-14.24
-17.48
-20.19
-22.69
-25.38
-28.7
-32.87
-37.81
-43.0
-47.52
-50.21
-49.98
-46.15
-38.77
-28.62
-16.99
-5.33
5.18
13.85
20.43
25.05
27.98
29.53
29.99
29.63
28.7
27.47
26.15
24.88
23.73
22.68
21.65
20.56
19.37
18.11
16.85
15.62
14.36
12.87
10.95
8.47
5.47
2.2
-1.02
-3.91
-6.34
-8.35
-10.06
-11.63
-13.19
-14.81
-16.54
-18.36
-20.26
-22.2
-24.19
-26.32
-28.76
-31.67
-35.08
-38.75
-42.15
-44.51
-45.01
-42.98
-38.15
-30.7
-21.28
-10.83
-0.36
9.22
17.31
23.62
28.1
30.86
32.09
32.0
30.85
29.04
27.04
25.28
24.03
23.33
22.96
22.68
22.25
21.61
20.81
19.92
18.93
17.73
16.14
14.0
11.28
8.09
4.6
1.1
-2.19
-5.08
-7.5
-9.5
-11.28
-13.1
-15.16
-17.56
-20.22
-23.0
-25.72
-28.26
-30.63
-32.9
-35.21
-37.74
-40.68
-44.11
-47.84
-51.33
-53.71
-53.97
-51.27
-45.24
-36.14
-24.8
-12.37
-0.05
11.2
20.72
28.24
33.81
37.67
40.16
41.57
42.12
41.98
41.33
40.4
39.46
38.69
38.07
37.48
36.7
35.62
34.33
33.0
31.77
30.59
29.24
27.37
24.75
21.39
17.55
13.64
10.11
7.24
5.1
3.56
2.28
0.87
-0.98
-3.41
-6.27
-9.28
-12.08
-14.51
-16.65
-18.84
-21.52
-25.07
-29.64
-35.04
-40.8
-46.13
-50.08
-51.76
-50.5
-46.11
-38.95
-29.86
-19.94
-10.32
-1.88
4.81
9.56
12.51
14.01
14.42
14.03
13.07
11.74
10.33
9.24
8.85
9.36
10.63
12.18
13.41
13.89
13.43
12.23
10.56
8.69
6.76
4.79
2.78
0.75
-1.26
-3.24
-5.23
-7.28
-9.4
-11.55
-13.62
-15.48
-17.09
-18.48
-19.83
-21.37
-23.45
-26.31
-29.99
-34.12
-37.91
-40.3
-40.27
-37.21
-31.15
-22.76
-13.14
-3.41
5.54
13.23
19.46
24.18
27.37
28.99
29.11
28.03
26.23
24.31
22.78
21.95
21.85
22.27
22.92
23.48
23.74
23.54
22.82
21.6
19.89
17.75
15.24
12.4
9.31
6.11
3.0
0.19
-2.17
-4.14
-5.91
-7.78
-10.01
-12.72
-15.78
-18.95
-21.92
-24.51
-26.77
-28.93
-31.39
-34.54
-38.55
-43.24
-47.99
-51.83
-53.69
-52.67
-48.36
-40.94
-31.15
-20.06
-8.84
1.55
10.47
17.63
23.06
26.94
29.52
30.99
31.51
31.29
30.57
29.68
28.91
28.44
28.3
28.39
28.59
28.84
29.13
29.46
29.77
29.88
29.6
28.77
27.3
25.2
22.55
19.55
16.45
13.6
11.28
9.59
8.34
7.15
5.54
3.21
0.14
-3.38
-6.94
-10.16
-12.87
-15.15
-17.32
-19.84
-23.14
-27.45
-32.64
-38.13
-42.97
-46.02
-46.31
-43.3
-37.07
-28.29
-17.97
-7.23
2.98
11.99
19.39
24.99
28.76
30.74
31.11
30.19
28.39
26.23
24.19
22.62
21.64
21.12
20.8
20.4
19.72
18.72
17.44
15.89
14.05
11.89
9.41
6.72
4.0
1.45
-0.85
-2.87
-4.74
-6.53
-8.27
-9.94
-11.47
-12.83
-14.07
-15.32
-16.77
-18.63
-21.1
-24.23
-27.89
-31.68
-35.01
-37.16
-37.5
-35.56
-31.13
-24.37
-15.75
-6.06
3.72
12.62
19.88
25.08
28.21
29.55
29.51
28.44
26.64
24.39
22.02
19.9
18.3
17.38
17.05
17.07
17.17
17.13
16.8
16.09
14.9
13.14
10.8
8.02
5.03
2.1
-0.54
-2.86
-4.95
-7.0
-9.21
-11.67
-14.34
-17.14
-19.88
-22.43
-24.71
-26.8
-28.92
-31.45
-34.74
-38.97
-43.95
-49.03
-53.18
-55.24
-54.23
-49.7
-41.9
-31.67
-20.27
-8.94
1.37
10.14
17.24
22.77
26.89
29.69
31.25
31.65
31.15
30.08
28.85
27.79
27.1
26.74
26.59
26.48
26.23
25.82
25.28
24.71
24.11
23.39
22.29
20.53
17.97
14.74
11.26
8.08
5.63
4.07
3.19
2.59
1.83
0.63
-1.13
-3.38
-5.98
-8.69
-11.31
-13.63
-15.6
-17.38
-19.31
-21.74
-24.93
-28.86
-33.19
-37.32
-40.46
-41.81
-40.68
-36.64
-29.74
-20.56
-10.09
0.49
10.16
18.27
24.62
29.32
32.61
34.67
35.58
35.41
34.33
32.59
30.57
28.62
27.0
25.81
24.97
24.33
23.71
23.02
22.25
21.41
20.44
19.21
17.5
15.22
12.44
9.43
6.52
3.95
1.74
-0.26
-2.23
-4.26
-6.29
-8.2
-9.95
-11.6
-13.31
-15.22
-17.37
-19.79
-22.48
-25.56
-29.15
-33.25
-37.67
-41.87
-45.12
-46.61
-45.7
-42.11
-36.01
-28.01
-19.0
-9.95
-1.61
5.55
11.4
15.94
19.21
21.15
21.72
21.03
19.38
17.32
15.37
13.96
13.24
13.14
13.42
13.84
14.24
14.46
14.44
14.11
13.38
12.21
10.6
8.62
6.43
4.21
2.13
0.21
-1.66
-3.69
-6.08
-8.87
-11.91
-14.91
-17.6
-19.88
-21.86
-23.86
-26.23
-29.27
-33.01
-37.19
-41.26
-44.47
-45.98
-45.12
-41.52
-35.3
-27.0
-17.49
-7.74
1.38
9.3
15.75
20.73
24.4
26.87
28.2
28.42
27.61
26.03
24.14
22.51
21.59
21.54
22.17
23.04
23.69
23.82
23.37
22.42
21.06
19.28
17.01
14.29
11.34
8.49
6.1
4.31
3.0
1.79
0.25
-1.91
-4.77
-8.14
-11.7
-15.15
-18.28
-21.04
-23.52
-25.88
-28.33
-31.05
-34.21
-37.93
-42.23
-46.87
-51.26
-54.57
-55.83
-54.36
-49.98
-43.16
-34.83
-26.11
-17.97
-11.06
-5.69
-1.89
0.45
1.49
1.42
0.37
-1.53
-4.19
-7.42
-10.97
-14.51
-17.69
-20.27
-22.13
-23.26
-23.61
-23.04
-21.36
-18.35
-13.92
-8.16
-1.31
6.33
14.43
22.66
30.75
38.42
45.44
51.61
56.68
60.42
62.6
63.06
61.73
58.72
54.26
48.65
42.22
35.29
28.17
21.14
14.42
8.08
1.98
-4.08
-10.22
-16.28
-21.78
-25.97
-28.07
-27.56
-24.34
-18.81
-11.7
-3.9
3.79
10.78
16.69
21.36
24.71
26.72
27.36
26.72
25.0
22.57
19.91
17.54
15.87
15.03
14.93
15.25
15.69
16.01
16.04
15.72
14.91
13.49
11.35
8.56
5.39
2.23
-0.51
-2.61
-4.08
-5.16
-6.1
-7.14
-8.41
-9.93
-11.68
-13.54
-15.47
-17.4
-19.43
-21.7
-24.46
-27.82
-31.72
-35.8
-39.46
-41.9
-42.39
-40.41
-35.82
-28.9
-20.32
-11.01
-1.86
6.39
13.34
18.85
22.97
25.77
27.34
27.77
27.24
26.04
24.56
23.14
22.02
21.3
20.93
20.76
20.64
20.41
19.95
19.22
18.21
16.93
15.41
13.63
11.59
9.26
6.72
4.12
1.69
-0.4
-2.04
-3.32
-4.47
-5.77
-7.5
-9.83
-12.77
-16.14
-19.66
-23.07
-26.15
-28.88
-31.41
-34.0
-36.99
-40.56
-44.72
-49.12
-53.09
-55.68
-55.94
-53.09
-46.88
-37.69
-26.5
-14.66
-3.45
6.21
13.94
19.82
24.18
27.34
29.5
30.76
31.19
30.98
30.41
29.81
29.4
29.27
29.36
29.54
29.66
29.63
29.46
29.18
28.87
28.51
28.01
27.2
25.92
24.07
21.75
19.22
16.77
14.63
12.82
11.23
9.69
8.09
6.45
4.85
3.3
1.67
-0.27
-2.72
-5.69
-8.95
-12.14
-14.88
-16.99
-18.54
-19.88
-21.47
-23.75
-27.05
-31.37
-36.37
-41.31
-45.19
-46.92
-45.63
-40.97
-33.19
-23.14
-12.03
-1.08
8.75
16.9
23.21
27.74
30.64
32.06
32.15
31.15
29.42
27.45
25.68
24.42
23.72
23.42
23.24
22.98
22.52
21.86
21.06
20.13
19.0
17.55
15.68
13.39
10.8
8.1
5.47
3.03
0.78
-1.41
-3.67
-6.12
-8.81
-11.64
-14.51
-17.28
-19.86
-22.23
-24.37
-26.31
-28.08
-29.79
-31.66
-33.96
-36.85
-40.21
-43.5
-45.83
-46.14
-43.64
-38.09
-29.89
-19.99
-9.5
0.57
9.59
17.21
23.22
27.52
30.02
30.75
29.94
28.04
25.64
23.35
21.66
20.81
20.76
21.24
21.83
22.11
21.81
20.9
19.53
17.91
16.13
14.15
11.81
9.04
5.95
2.78
-0.14
-2.59
-4.52
-6.09
-7.61
-9.36
-11.59
-14.27
-17.26
-20.21
-22.82
-24.91
-26.61
-28.33
-30.56
-33.73
-37.91
-42.78
-47.62
-51.54
-53.57
-52.89
-49.03
-41.94
-32.12
-20.57
-8.58
2.62
12.1
19.43
24.68
28.19
30.38
31.58
32.0
31.78
31.09
30.17
29.24
28.54
28.18
28.17
28.4
28.66
28.73
28.43
27.76
26.79
25.65
24.34
22.76
20.74
18.16
15.08
11.76
8.57
5.76
3.4
1.33
-0.72
-2.97
-5.44
-8.03
-10.54
-12.8
-14.72
-16.3
-17.68
-19.07
-20.73
-22.95
-25.95
-29.77
-34.23
-38.85
-42.86
-45.33
-45.37
-42.36
-36.2
-27.33
-16.73
-5.61
4.9
13.98
21.31
26.91
31.01
33.81
35.41
35.83
35.14
33.61
31.64
29.74
28.33
27.58
27.41
27.51
27.54
27.28
26.66
25.78
24.73
23.47
21.83
19.61
16.67
13.19
9.54
6.19
3.45
1.33
-0.45
-2.3
-4.56
-7.32
-10.46
-13.76
-17.04
-20.16
-23.11
-25.87
-28.51
-31.2
-34.19
-37.76
-41.99
-46.51
-50.53
-52.95
-52.79
-49.53
-43.25
-34.64
-24.64
-14.28
-4.37
4.48
11.85
17.49
21.34
23.46
24.16
23.85
22.96
21.91
20.99
20.4
20.16
20.2
20.41
20.64
20.77
20.75
20.5
19.95
18.97
17.42
15.2
12.35
8.99
5.37
1.72
-1.75
-4.93
-7.79
-10.44
-13.01
-15.64
-18.4
-21.25
-24.06
-26.77
-29.39
-32.11
-35.23
-38.93
-43.19
-47.6
-51.44
-53.7
-53.44
-49.95
-43.08
-33.32
-21.75
-9.69
1.58
11.21
18.87
24.67
28.89
31.71
33.22
33.47
32.66
31.17
29.51
28.16
27.36
27.1
27.22
27.54
27.9
28.21
28.39
28.29
27.78
26.7
24.95
22.5
19.48
16.14
12.86
10.05
8.0
6.63
5.5
3.9
1.23
-2.76
-7.73
-12.93
-17.55
-21.1
-23.58
-25.41
-27.19
-29.51
-32.7
-36.83
-41.73
-46.92
-51.6
-54.73
-55.23
-52.27
-45.58
-35.6
-23.46
-10.58
1.61
12.07
20.32
26.39
30.62
33.43
35.18
36.03
36.08
35.46
34.4
33.24
32.31
31.74
31.53
31.5
31.45
31.27
30.95
30.56
30.09
29.44
28.43
26.84
24.61
21.83
18.74
15.68
12.89
10.51
8.49
6.72
4.98
3.08
0.89
-1.64
-4.49
-7.54
-10.73
-14.02
-17.49
-21.29
-25.57
-30.41
-35.73
-41.15
-46.03
-49.43
-50.4
-48.2
-42.57
-33.95
-23.32
-11.97
-1.05
8.65
16.79
23.35
28.35
31.81
33.7
34.09
33.26
31.68
29.95
28.57
27.89
28.07
29.06
30.67
32.6
34.37
35.42
35.1
32.89
28.58
22.3
14.6
6.24
-1.98
-9.45
-15.82
-21.06
-25.37
-29.0
-32.16
-34.93
-37.29
-39.21
-40.7
-41.85
-42.9
-44.08
-45.69
-47.89
-50.68
-53.77
-56.52
-58.04
-57.36
-53.7
-46.77
-36.9
-24.99
-12.25
0.1
11.07
20.08
26.84
31.37
33.83
34.52
33.85
32.28
30.32
28.46
27.1
26.46
26.54
27.11
27.77
28.14
27.95
27.14
25.84
24.21
22.37
20.31
18.02
15.54
13.0
10.59
8.46
6.62
4.94
3.28
1.48
-0.56
-2.9
-5.56
-8.5
-11.61
-14.69
-17.51
-19.95
-22.1
-24.23
-26.73
-29.94
-33.94
-38.51
-43.02
-46.58
-48.21
-47.08
-42.78
-35.44
-25.75
-14.78
-3.71
6.51
15.27
22.35
27.75
31.63
34.08
35.24
35.27
34.45
33.14
31.76
30.67
30.04
29.89
30.05
30.29
30.37
30.11
29.47
28.48
27.24
25.88
24.48
23.02
21.48
19.78
17.92
15.93
13.93
12.03
10.39
9.08
8.03
7.06
5.86
4.12
1.65
-1.48
-4.98
-8.47
-11.61
-14.34
-16.83
-19.46
-22.6
-26.47
-31.09
-36.13
-40.99
-44.83
-46.71
-45.83
-41.78
-34.75
-25.51
-15.23
-5.16
3.72
10.88
16.22
19.93
22.3
23.58
23.91
23.33
21.92
19.87
17.48
15.12
13.15
11.8
11.09
10.87
10.9
10.91
10.71
10.16
9.2
7.74
5.8
3.46
0.91
-1.6
-3.86
-5.79
-7.48
-9.1
-10.8
-12.61
-14.5
-16.37
-18.16
-19.9
-21.65
-23.51
-25.58
-28.02
-30.95
-34.38
-38.01
-41.21
-43.11
-42.88
-40.05
-34.65
-27.19
-18.49
-9.36
-0.49
7.6
14.5
19.93
23.72
25.91
26.68
26.33
25.18
23.53
21.68
19.97
18.65
17.9
17.63
17.65
17.69
17.57
17.25
16.77
16.11
15.13
13.67
11.58
8.95
6.0
3.1
0.59
-1.36
-2.74
-3.75
-4.71
-6.02
-7.98
-10.73
-14.13
-17.79
-21.26
-24.15
-26.35
-28.08
-29.81
-32.05
-35.17
-39.23
-43.92
-48.52
-52.04
-53.41
-51.77
-46.79
-38.78
-28.62
-17.49
-6.51
3.48
12.04
18.99
24.3
27.99
30.15
30.98
30.82
30.06
29.11
28.2
27.49
27.01
26.77
26.7
26.69
26.57
26.18
25.43
24.31
22.86
21.14
19.2
