0
25.5
28.22
29.56
29.71
28.83
27.14
24.98
22.8
20.98
19.79
19.23
19.02
18.78
18.16
17.01
15.42
13.59
11.73
9.83
7.79
5.39
2.53
-0.86
-4.77
-9.26
-14.47
-20.44
-26.93
-33.24
-38.22
-40.53
-39.1
-33.55
-24.46
-13.23
-1.63
8.75
16.95
22.77
26.59
28.99
30.39
30.92
30.55
29.32
27.44
25.38
23.58
22.34
21.66
21.32
21.0
20.48
19.61
18.33
16.6
14.36
11.67
8.62
5.45
2.35
-0.62
-3.54
-6.63
-10.14
-14.33
-19.32
-25.04
-31.07
-36.65
-40.67
-41.99
-39.79
-33.91
-25.05
-14.51
-3.83
5.64
13.11
18.37
21.62
23.26
23.73
23.34
22.38
21.09
19.74
18.64
18.03
18.06
18.68
19.62
20.57
21.19
21.27
20.77
19.75
18.26
16.33
14.01
11.36
8.52
5.65
2.84
0.06
-2.8
-5.93
-9.55
-13.83
-18.79
-24.2
-29.45
-33.55
-35.33
-33.85
-28.82
-20.78
-10.98
-0.97
7.92
14.9
19.81
22.89
24.51
24.94
24.41
23.13
21.43
19.73
18.39
17.6
17.32
17.31
17.34
17.22
16.95
16.63
16.3
15.87
15.1
13.69
11.45
8.38
4.7
0.79
-2.97
-6.33
-9.2
-11.64
-13.97
-16.55
-19.76
-23.73
-28.17
-32.33
-35.1
-35.35
-32.37
-26.2
-17.61
-7.92
1.5
9.58
15.79
20.04
22.52
23.45
23.01
21.41
18.94
16.08
13.39
11.38
10.35
10.3
10.98
12.02
13.06
13.8
14.04
13.66
12.6
10.89
8.67
6.14
3.5
0.86
-1.74
-4.35
-7.05
-9.87
-12.87
-16.14
-19.81
-23.96
-28.41
-32.61
-35.65
-36.49
-34.4
-29.24
-21.63
-12.74
-3.91
3.76
9.65
13.68
16.03
17.05
16.97
15.97
14.25
12.05
9.78
7.81
6.48
5.94
6.1
6.64
7.2
7.41
7.12
6.32
5.12
3.68
2.09
0.36
-1.57
-3.76
-6.21
-8.92
-11.89
-15.2
-18.99
-23.28
-27.79
-31.88
-34.64
-35.12
-32.76
-27.62
-20.39
-12.2
-4.18
2.83
8.46
12.7
15.7
17.49
17.98
17.02
14.68
11.33
7.66
4.47
2.4
1.66
2.03
2.98
3.91
4.35
4.12
3.24
1.88
0.25
-1.5
-3.35
-5.32
-7.5
-10.03
-13.02
-16.6
-20.81
-25.49
-30.23
-34.27
-36.67
-36.5
-33.27
-27.11
-18.79
-9.54
-0.64
6.96
12.78
16.73
18.98
19.71
19.09
17.36
14.87
12.09
9.58
7.73
6.73
6.52
6.78
7.13
7.2
6.76
5.72
4.18
2.31
0.34
-1.62
-3.59
-5.76
-8.36
-11.64
-15.69
-20.47
-25.75
-31.04
-35.56
-38.38
-38.53
-35.38
-28.99
-20.13
-10.12
-0.42
7.85
14.15
18.49
21.19
22.6
22.94
22.34
20.94
18.99
16.83
14.85
13.34
12.45
12.11
12.06
11.95
11.44
10.33
8.64
6.58
4.46
2.48
0.65
-1.22
-3.44
-6.32
-10.11
-14.89
-20.52
-26.58
-32.33
-36.74
-38.73
-37.52
-32.9
-25.33
-15.88
-5.86
3.48
11.25
17.03
20.84
23.0
23.94
24.07
23.64
22.74
21.47
19.93
18.32
16.91
15.89
15.27
14.88
14.46
13.77
12.69
11.19
9.37
7.34
5.18
2.95
0.64
-1.84
-4.67
-8.04
-12.13
-17.01
-22.51
-28.19
-33.23
-36.62
-37.34
-34.78
-28.96
-20.63
-11.0
-1.39
7.15
14.05
19.18
22.65
24.66
25.4
25.09
24.01
22.48
20.84
19.34
18.11
17.23
16.7
16.52
16.61
16.87
17.1
17.06
16.44
15.03
12.72
9.65
6.09
2.42
-1.05
-4.16
-7.0
-9.84
-13.09
-17.12
-22.13
-27.97
-34.01
-39.17
-42.18
-41.91
-37.85
-30.29
-20.34
-9.5
0.75
9.43
16.11
20.8
23.77
25.25
25.44
24.57
23.02
21.28
19.9
19.23
19.32
19.94
20.64
20.99
20.82
20.22
19.46
18.77
18.21
17.56
16.51
14.73
12.11
8.73
4.82
0.67
-3.46
-7.33
-10.82
-13.9
-16.82
-20.01
-24.0
-29.04
-34.86
-40.59
-44.86
-46.37
-44.27
-38.53
-29.95
-19.79
-9.4
0.16
8.3
14.81
19.68
22.96
24.63
24.74
23.5
21.38
19.04
17.18
16.3
16.5
17.52
18.85
19.96
20.51
20.4
19.74
18.77
17.66
16.48
15.13
13.42
11.15
8.23
4.73
0.93
-2.79
-6.14
-8.98
-11.46
-13.88
-16.68
-20.17
-24.52
-29.56
-34.78
-39.35
-42.24
-42.54
-39.75
-33.94
-25.81
-16.41
-6.87
1.88
9.22
14.87
18.78
21.08
21.98
21.83
20.93
19.65
18.34
17.3
16.77
16.84
17.43
18.31
19.15
19.69
19.82
19.6
19.18
18.64
17.94
16.9
15.25
12.84
9.6
5.7
1.48
-2.66
-6.29
-9.16
-11.33
-13.11
-14.97
-17.42
-20.73
-24.98
-29.91
-35.01
-39.49
-42.36
-42.7
-39.87
-33.85
-25.28
-15.34
-5.37
3.53
10.71
16.0
19.47
21.32
21.73
21.01
19.61
18.05
16.78
16.05
15.83
15.96
16.31
16.84
17.59
18.55
19.56
20.35
20.63
20.18
18.93
17.0
14.56
11.83
9.02
6.26
3.62
1.1
-1.37
-3.86
-6.35
-8.87
-11.36
-13.86
-16.44
-19.25
-22.39
-25.99
-30.05
-34.39
-38.61
-41.97
-43.57
-42.62
-38.73
-32.12
-23.64
-14.43
-5.59
2.16
8.52
13.46
17.01
19.12
19.75
18.97
17.12
14.83
12.84
11.72
11.75
12.78
14.38
16.03
17.34
18.16
18.52
18.53
18.29
17.8
16.98
15.81
14.27
12.39
10.2
7.68
4.84
1.77
-1.35
-4.29
-6.91
-9.21
-11.38
-13.71
-16.51
-19.98
-24.15
-28.89
-33.83
-38.34
-41.57
-42.62
-40.77
-35.8
-28.17
-18.88
-9.2
-0.25
7.21
12.91
16.85
19.19
20.07
19.62
18.02
15.61
12.88
10.4
8.68
7.99
8.32
9.38
10.75
12.01
12.94
13.48
13.73
13.82
13.73
13.3
12.23
10.32
7.54
4.09
0.33
-3.33
-6.57
-9.26
-11.4
-13.2
-14.97
-17.08
-19.9
-23.6
-28.04
-32.67
-36.56
-38.7
-38.27
-34.93
-29.0
-21.26
-12.74
-4.41
3.03
9.16
13.79
16.84
18.27
18.14
16.62
14.07
11.01
7.99
5.51
3.86
3.13
3.2
3.81
4.69
5.56
6.22
6.51
6.32
5.55
4.19
2.27
-0.07
-2.65
-5.24
-7.64
-9.75
-11.61
-13.46
-15.68
-18.67
-22.65
-27.43
-32.36
-36.37
-38.33
-37.37
-33.27
-26.49
-18.02
-9.08
-0.76
6.22
11.56
15.27
17.46
18.23
17.61
15.7
12.76
9.3
5.98
3.45
2.11
1.99
2.73
3.77
4.58
4.81
4.38
3.43
2.16
0.69
-0.92
-2.73
-4.87
-7.47
-10.69
-14.68
-19.48
-24.86
-30.31
-34.95
-37.75
-37.85
-34.85
-29.01
-21.14
-12.35
-3.69
4.08
10.59
15.64
19.15
20.96
20.98
19.27
16.27
12.66
9.24
6.67
5.22
4.76
4.92
5.23
5.36
5.15
4.57
3.7
2.61
1.32
-0.18
-1.97
-4.22
-7.17
-11.08
-16.1
-22.1
-28.55
-34.53
-38.86
-40.44
-38.54
-33.11
-24.82
-14.85
-4.54
4.96
12.93
19.09
23.4
25.89
26.59
25.6
23.17
19.9
16.52
13.77
12.07
11.45
11.53
11.77
11.72
11.16
10.12
8.83
7.52
6.29
5.07
3.6
1.53
-1.48
-5.65
-11.08
-17.57
-24.59
-31.26
-36.4
-38.81
-37.61
-32.6
-24.38
-14.22
-3.62
6.15
14.36
20.89
25.91
29.63
32.02
32.94
32.3
30.29
27.42
24.39
21.86
20.22
19.51
19.46
19.62
19.51
18.8
17.39
15.41
13.14
10.83
8.6
6.34
3.79
0.68
-3.22
-8.0
-13.6
-19.75
-25.87
-31.0
-33.93
-33.53
-29.16
-21.06
-10.36
1.22
11.98
20.64
26.69
30.24
31.74
31.7
30.5
28.37
25.51
22.19
18.73
15.53
12.96
11.25
10.45
10.38
10.69
11.0
10.97
10.47
9.51
8.2
6.61
4.73
2.52
-0.11
-3.27
-7.08
-11.64
-17.06
-23.34
-30.18
-36.9
-42.39
-45.39
-44.83
-40.21
-31.88
-20.97
-9.08
2.21
11.77
19.12
24.31
27.7
29.66
30.46
30.24
29.22
27.7
26.05
24.61
23.56
22.91
22.54
22.33
22.2
22.07
21.78
21.1
19.78
17.68
14.84
11.53
8.0
4.45
0.91
-2.69
-6.46
-10.53
-15.03
-20.1
-25.82
-32.02
-38.08
-42.89
-45.15
-43.78
-38.41
-29.54
-18.48
-6.84
3.87
12.69
19.26
23.75
26.57
28.18
28.96
29.14
28.86
28.21
27.3
26.25
25.18
24.22
23.41
22.79
22.34
21.99
21.62
20.97
19.77
17.76
14.87
11.29
7.34
3.43
-0.15
-3.34
-6.3
-9.39
-13.01
-17.53
-23.15
-29.68
-36.41
-42.12
-45.35
-44.85
-40.09
-31.54
-20.55
-8.94
1.61
10.08
16.16
20.15
22.53
23.78
24.16
23.91
23.28
22.6
22.19
22.22
22.6
23.01
23.1
22.68
21.83
20.83
20.01
19.44
18.96
18.19
16.71
14.29
10.99
7.14
3.15
-0.64
-4.04
-7.08
-10.0
-13.17
-17.06
-22.0
-27.98
-34.44
-40.22
-43.85
-44.07
-40.27
-32.81
-22.85
-12.0
-1.71
7.04
13.91
18.94
22.38
24.42
25.23
24.96
23.88
22.37
20.9
19.86
19.45
19.58
19.99
20.31
20.34
20.04
19.61
19.24
18.94
18.49
17.46
15.48
12.44
8.57
4.39
0.44
-2.92
-5.59
-7.77
-9.86
-12.34
-15.69
-20.2
-25.88
-32.23
-38.31
-42.83
-44.59
-42.85
-37.63
-29.7
-20.29
-10.72
-1.98
5.31
10.99
15.08
17.7
18.94
18.97
18.02
16.43
14.61
12.92
11.68
11.01
10.93
11.32
11.98
12.67
13.11
13.09
12.42
11.08
9.13
6.74
4.13
1.44
-1.24
-3.86
-6.42
-8.94
-11.52
-14.33
-17.61
-21.53
-25.97
-30.39
-33.91
-35.48
-34.29
-30.07
-23.22
-14.71
-5.79
2.4
9.04
13.77
16.59
17.76
17.61
16.43
14.51
12.11
9.6
7.34
5.7
4.9
4.95
5.6
6.44
7.07
7.18
6.69
5.65
4.17
2.33
0.18
-2.23
-4.81
-7.49
-10.24
-13.11
-16.36
-20.23
-24.87
-30.04
-35.08
-38.92
-40.44
-38.79
-33.81
-26.08
-16.79
-7.36
1.01
7.62
12.33
15.36
17.06
17.67
17.27
15.97
13.98
11.72
9.67
8.21
7.5
7.4
7.64
7.89
7.98
7.83
7.41
6.7
5.61
4.02
1.88
-0.75
-3.7
-6.77
-9.85
-13.01
-16.45
-20.41
-25.0
-29.94
-34.52
-37.67
-38.35
-35.93
-30.48
-22.78
-14.01
-5.39
2.24
8.48
13.3
16.8
19.03
19.97
19.65
18.25
16.13
13.77
11.61
9.98
9.02
8.76
9.08
9.7
10.31
10.54
10.13
8.98
7.19
4.93
2.38
-0.34
-3.24
-6.34
-9.69
-13.35
-17.41
-21.99
-27.09
-32.48
-37.45
-40.97
-41.91
-39.48
-33.59
-24.9
-14.7
-4.47
4.53
11.61
16.62
19.81
21.63
22.4
22.35
21.55
20.15
18.36
16.56
15.08
14.16
13.8
13.84
14.02
14.09
13.89
13.31
12.32
10.81
8.76
6.15
3.08
-0.24
-3.61
-6.84
-9.91
-12.98
-16.42
-20.63
-25.8
-31.64
-37.27
-41.41
-42.74
-40.46
-34.54
-25.85
-15.73
-5.58
3.49
10.89
16.44
20.21
22.34
23.06
22.66
21.48
19.9
18.27
16.86
15.8
15.14
14.87
14.9
15.12
15.4
15.57
15.5
15.05
14.11
12.6
10.44
7.65
4.33
0.66
-3.1
-6.76
-10.26
-13.77
-17.65
-22.28
-27.78
-33.84
-39.54
-43.6
-44.75
-42.22
-36.05
-27.11
-16.75
-6.4
2.88
10.48
16.29
20.4
22.99
24.22
24.25
23.36
21.89
20.25
18.84
17.96
17.72
17.99
18.49
18.93
19.08
18.92
18.56
18.1
17.46
16.43
14.7
12.11
8.75
4.95
1.16
-2.3
-5.33
-8.08
-10.86
-14.05
-17.92
-22.59
-27.9
-33.34
-38.06
-41.02
-41.27
-38.28
-32.18
-23.71
-14.03
-4.35
4.33
11.45
16.82
20.53
22.77
23.69
23.47
22.34
20.67
18.88
17.42
16.59
16.42
16.71
17.12
17.38
17.4
17.25
17.1
17.03
16.93
16.52
15.47
13.51
10.62
6.99
3.01
-0.87
-4.3
-7.16
-9.53
-11.74
-14.2
-17.28
-21.2
-25.98
-31.31
-36.62
-41.04
-43.62
-43.49
-40.18
-33.77
-24.96
-14.88
-4.78
4.26
11.55
16.82
20.15
21.78
21.99
21.14
19.61
17.85
16.34
15.46
15.4
16.02
16.99
17.85
18.22
17.98
17.26
16.35
15.51
14.83
14.11
13.03
11.28
8.75
5.59
2.16
-1.16
-4.1
-6.58
-8.73
-10.79
-13.04
-15.72
-19.0
-22.98
-27.58
-32.39
-36.68
-39.45
-39.74
-36.95
-31.09
-22.83
-13.28
-3.67
5.01
12.12
17.38
20.77
22.37
22.39
21.11
18.99
16.56
14.35
12.78
12.04
12.08
12.62
13.28
13.75
13.84
13.54
13.04
12.54
12.1
11.61
10.78
9.29
6.93
3.79
0.18
-3.42
-6.6
-9.19
-11.25
-13.12
-15.2
-17.9
-21.44
-25.8
-30.63
-35.31
-38.98
-40.73
-39.85
-36.05
-29.55
-21.11
-11.78
-2.7
5.21
11.4
15.67
18.08
18.79
18.05
16.21
13.7
11.13
9.09
7.96
7.8
8.33
9.14
9.86
10.32
10.52
10.5
10.24
9.6
8.41
6.56
4.11
1.25
-1.77
-4.71
-7.45
-9.96
-12.36
-14.94
-18.05
-22.03
-26.87
-32.1
-36.75
-39.59
-39.54
-36.11
-29.59
-20.96
-11.58
-2.68
4.88
10.77
15.01
17.75
19.1
19.1
17.83
15.52
12.62
9.72
7.32
5.76
5.12
5.23
5.8
6.47
6.92
6.87
6.13
4.65
2.54
0.02
-2.64
-5.21
-7.64
-10.06
-12.71
-15.9
-19.84
-24.62
-30.08
-35.74
-40.76
-44.07
-44.6
-41.67
-35.27
-26.15
-15.62
-5.14
4.07
11.33
16.47
19.63
21.09
21.07
19.82
17.63
14.9
12.13
9.78
8.23
7.65
7.98
8.95
10.14
11.1
11.45
11.0
9.72
7.77
5.37
2.72
-0.05
-2.91
-5.86
-9.02
-12.61
-16.92
-22.21
-28.46
-35.16
-41.22
-45.22
-45.83
-42.31
-34.8
-24.38
-12.66
-1.28
8.5
16.06
21.32
24.55
26.08
26.22
25.22
23.35
21.02
18.72
16.93
15.98
15.92
16.52
17.35
17.94
17.93
17.16
15.73
13.84
11.72
9.53
7.25
4.76
1.85
-1.63
-5.72
-10.38
-15.54
-21.14
-27.01
-32.82
-37.84
-41.06
-41.36
-37.99
-30.9
-20.92
-9.52
1.63
11.21
18.54
23.57
26.7
28.39
28.95
28.54
27.29
25.39
23.2
21.14
19.62
18.87
18.88
19.48
20.36
21.14
21.46
21.05
19.76
17.63
14.85
11.7
8.4
5.06
1.61
-2.1
-6.27
-11.04
-16.49
-22.56
-28.93
-34.96
-39.64
-41.84
-40.59
-35.51
-27.0
-16.24
-4.77
5.92
14.8
21.45
25.91
28.48
29.5
29.3
28.18
26.52
24.72
23.14
22.0
21.37
21.18
21.33
21.7
22.13
22.46
22.38
21.62
20.01
17.56
14.49
11.16
7.82
4.61
1.47
-1.77
-5.35
-9.44
-14.25
-19.84
-26.11
-32.53
-38.16
-41.73
-42.02
-38.36
-30.89
-20.66
-9.28
1.52
10.48
17.05
21.37
23.93
25.34
25.95
25.93
25.37
24.39
23.24
22.21
21.57
21.36
21.46
21.61
21.56
21.24
20.65
19.83
18.73
17.19
15.0
12.06
8.49
4.6
0.8
-2.59
-5.57
-8.42
-11.65
-15.77
-20.95
-26.89
-32.71
-37.21
-39.19
-37.82
-32.94
-25.1
-15.42
-5.22
4.29
12.24
18.2
22.1
24.14
24.63
23.95
22.5
20.69
18.86
17.28
16.11
15.38
15.04
14.99
15.13
15.31
15.36
15.11
14.38
13.09
11.25
8.91
6.19
3.21
0.09
-3.02
-6.02
-8.89
-11.8
-15.05
-18.99
-23.65
-28.59
-32.81
-35.1
-34.44
-30.46
-23.59
-14.93
-5.83
2.52
9.35
14.38
17.66
19.38
19.68
18.68
16.5
13.43
9.95
6.69
4.24
2.97
2.93
3.76
4.91
5.81
6.06
5.49
4.21
2.44
0.42
-1.6
-3.51
-5.31
-7.11
-9.14
-11.64
-14.9
-19.04
-23.97
-29.2
-33.9
-37.0
-37.51
-34.87
-29.2
-21.24
-12.24
-3.47
4.13
10.09
14.39
17.24
18.78
19.06
18.09
16.01
13.22
10.33
7.95
6.46
5.93
6.06
6.47
6.83
6.93
6.75
6.32
5.62
4.62
3.21
1.31
-1.15
-4.25
-8.05
-12.57
-17.78
-23.4
-28.86
-33.31
-35.77
-35.42
-31.89
-25.53
-17.25
-8.31
0.11
7.23
12.75
16.76
19.49
21.07
21.52
20.82
19.05
16.54
13.77
11.3
9.57
8.73
8.64
8.87
8.93
8.44
7.27
5.59
3.68
1.79
-0.03
-1.96
-4.36
-7.54
-11.72
-16.91
-22.82
-28.87
-34.2
-37.79
-38.67
-36.29
-30.73
-22.73
-13.46
-4.17
4.17
11.05
16.38
20.29
22.95
24.47
24.85
24.16
22.55
20.33
17.98
15.97
14.64
14.07
14.03
14.09
13.8
12.89
11.3
9.21
6.86
4.38
1.82
-0.93
-4.0
-7.54
-11.7
-16.6
-22.22
-28.31
-34.24
-39.07
-41.72
-41.32
-37.49
-30.57
-21.47
-11.44
-1.68
6.92
13.93
19.29
23.09
25.44
26.43
26.13
24.75
22.62
20.23
18.06
16.49
15.67
15.5
15.68
15.84
15.61
14.74
13.15
10.94
8.34
5.6
2.89
0.19
-2.72
-6.12
-10.28
-15.29
-21.05
-27.21
-33.17
-38.08
-40.94
-40.84
-37.26
-30.4
-21.16
-10.91
-1.09
7.27
13.76
18.48
21.79
23.96
25.15
25.36
24.63
23.15
21.27
19.38
17.8
16.7
16.1
15.82
15.6
15.18
14.35
13.03
11.24
9.12
6.82
4.45
2.02
-0.56
-3.44
-6.81
-10.87
-15.76
-21.46
-27.7
-33.82
-38.8
-41.46
-40.86
-36.57
-28.94
-19.03
-8.28
1.89
10.45
16.92
21.33
24.01
25.35
25.64
25.13
24.0
22.47
20.83
19.36
18.24
17.52
17.12
16.85
16.54
16.06
15.37
14.38
13.03
11.22
8.87
5.98
2.63
-1.01
-4.77
-8.51
-12.28
-16.22
-20.6
-25.59
-31.06
-36.5
-40.95
-43.3
-42.59
-38.4
-31.02
-21.35
-10.72
-0.45
8.41
15.29
20.05
22.86
24.07
24.08
23.28
22.04
20.65
19.36
18.32
17.58
17.08
16.71
16.36
16.01
15.65
15.3
14.9
14.27
13.17
11.34
8.65
5.14
1.03
-3.35
-7.65
-11.6
-15.15
-18.44
-21.81
-25.63
-30.06
-34.83
-39.13
-41.78
-41.65
-38.08
-31.18
-21.9
-11.63
-1.77
6.66
13.2
17.82
20.72
22.14
22.31
21.48
20.0
18.3
16.81
15.81
15.38
15.33
15.39
15.32
14.96
14.34
13.53
12.58
11.41
9.88
7.84
5.26
2.24
-1.01
-4.27
-7.39
-10.33
-13.19
-16.17
-19.6
-23.77
-28.8
-34.37
-39.62
-43.27
-43.98
-40.87
-33.97
-24.24
-13.3
-2.8
6.05
12.72
17.3
20.14
21.66
22.15
21.85
20.99
19.85
18.63
17.48
16.4
15.39
14.45
13.67
13.19
13.1
13.29
13.48
13.29
12.32
10.38
7.49
3.91
0.06
-3.67
-7.02
-9.99
-12.78
-15.78
-19.39
-23.9
-29.31
-35.18
-40.62
-44.43
-45.37
-42.63
-36.16
-26.74
-15.78
-4.9
4.65
12.22
17.76
21.6
24.06
25.29
25.29
24.12
22.06
19.63
17.38
15.71
14.73
14.3
14.17
14.16
14.22
14.39
14.62
14.72
14.33
13.1
10.82
7.54
3.6
-0.52
-4.39
-7.8
-10.81
-13.73
-16.96
-20.86
-25.59
-31.01
-36.57
-41.4
-44.4
-44.57
-41.39
-34.98
-26.19
-16.3
-6.63
1.84
8.67
13.84
17.56
20.01
21.26
21.4
20.63
19.29
17.84
16.68
16.06
15.97
16.22
16.54
16.72
16.68
16.54
16.42
16.36
16.21
15.65
14.32
11.98
8.67
4.71
0.55
-3.36
-6.74
-9.59
-12.14
-14.78
-17.94
-21.97
-27.0
-32.8
-38.64
-43.39
-45.77
-44.78
-40.05
-32.0
-21.77
-10.8
-0.49
8.23
14.91
19.52
22.31
23.54
23.54
22.63
21.17
19.57
18.2
17.32
16.96
17.0
17.16
17.23
17.08
16.76
16.37
16.05
15.8
15.51
14.88
13.62
11.51
8.51
4.84
0.88
-2.85
-6.03
-8.52
-10.53
-12.53
-15.08
-18.65
-23.42
-29.15
-35.15
-40.39
-43.68
-44.0
-40.82
-34.28
-25.17
-14.73
-4.28
5.12
12.82
18.61
22.5
24.61
25.08
24.13
22.15
19.71
17.47
15.98
15.48
15.83
16.6
17.3
17.57
17.36
16.83
16.21
15.66
15.12
14.34
13.0
10.85
7.84
4.18
0.21
-3.66
-7.12
-10.07
-12.57
-14.87
-17.3
-20.21
-23.87
-28.32
-33.24
-37.87
-41.17
-42.01
-39.57
-33.64
-24.76
-14.08
-2.98
7.21
15.57
21.63
25.32
26.81
26.43
24.57
21.73
18.48
15.36
12.84
11.14
10.27
10.03
10.16
10.4
10.57
10.58
10.34
9.79
8.86
7.48
5.63
3.4
0.89
-1.73
-4.34
-6.92
-9.56
-12.47
-15.91
-20.04
-24.89
-30.12
-35.05
-38.71
-40.12
-38.56
-33.86
-26.5
-17.47
-7.99
0.84
8.29
14.03
18.02
20.35
21.16
20.6
18.89
16.36
13.43
10.52
8.02
6.2
5.19
4.96
5.28
5.79
6.11
5.94
5.17
3.87
2.21
0.32
-1.78
-4.15
-6.87
-9.96
-13.43
-17.31
-21.69
-26.63
-31.93
-36.97
-40.7
-41.98
-39.94
-34.39
-25.95
-15.84
-5.47
3.96
11.7
17.43
21.17
23.03
23.14
21.65
18.82
15.08
11.03
7.36
4.63
3.13
2.77
3.12
3.6
3.75
3.36
2.43
1.14
-0.34
-1.93
-3.67
-5.64
-7.94
-10.69
-14.0
-18.0
-22.79
-28.25
-33.91
-38.91
-42.11
-42.4
-39.15
-32.39
-22.93
-12.15
-1.52
7.77
15.08
20.25
23.42
24.72
24.26
22.18
18.8
14.83
11.11
8.42
7.22
7.43
8.55
9.88
10.77
10.81
9.89
8.16
5.87
3.36
0.8
-1.75
-4.4
-7.36
-10.9
-15.25
-20.57
-26.81
-33.55
-39.94
-44.74
-46.57
-44.45
-38.15
-28.4
-16.68
-4.74
6.01
14.72
21.17
25.54
28.04
28.9
28.28
26.45
23.81
20.89
18.26
16.36
15.45
15.49
16.16
16.97
17.4
17.09
15.94
14.11
11.86
9.41
6.79
3.93
0.73
-2.82
-6.75
-11.09
-16.06
-21.87
-28.46
-35.28
-41.14
-44.54
-44.15
-39.36
-30.59
-19.14
-6.76
4.92
14.81
22.45
27.86
31.26
32.89
32.99
31.8
29.73
27.26
24.93
23.14
22.09
21.72
21.82
22.08
22.24
22.07
21.42
20.17
18.25
15.65
12.43
8.73
4.7
0.55
-3.58
-7.59
-11.56
-15.72
-20.43
-25.99
-32.31
-38.76
-44.07
-46.74
-45.49
-39.79
-30.17
-18.03
-5.18
6.76
16.68
24.15
29.27
32.34
33.66
33.52
32.22
30.13
27.71
25.41
23.6
22.45
21.93
21.91
22.2
22.61
22.92
22.87
22.13
20.45
17.69
13.97
9.66
5.24
1.16
-2.4
-5.53
-8.57
-11.96
-16.13
-21.34
-27.52
-34.2
-40.44
-44.95
-46.34
-43.62
-36.56
-25.91
-13.24
-0.47
10.68
19.16
24.74
27.79
28.96
28.84
27.82
26.17
24.13
22.02
20.19
18.91
18.3
18.27
18.62
19.03
19.22
18.95
18.07
16.55
14.47
11.99
9.26
6.41
3.43
0.3
-3.05
-6.7
-10.76
-15.44
-20.89
-27.07
-33.51
-39.2
-42.81
-43.06
-39.23
-31.51
-20.93
-9.11
2.29
12.0
19.37
24.3
27.0
27.75
26.8
24.43
21.03
17.17
13.57
10.89
9.54
9.56
10.55
11.93
13.04
13.43
12.88
11.37
9.1
6.28
3.19
0.02
-3.15
-6.35
-9.75
-13.64
-18.3
-23.86
-30.11
-36.34
-41.39
-43.91
-42.69
-37.23
-27.91
-16.02
-3.36
8.29
17.68
24.31
28.3
30.11
30.16
28.67
25.82
21.9
17.52
13.5
10.63
9.34
9.54
10.58
11.61
11.87
10.97
9.01
6.4
3.66
1.12
-1.15
-3.44
-6.21
-9.94
-14.97
-21.29
-28.5
-35.83
-42.16
-46.2
-46.82
-43.31
-35.7
-24.87
-12.33
0.19
11.27
20.07
26.4
30.47
32.57
32.89
31.56
28.81
25.16
21.36
18.22
16.3
15.7
16.08
16.75
17.01
16.37
14.73
12.33
9.57
6.8
4.15
1.5
-1.46
-5.08
-9.58
-15.09
-21.57
-28.79
-36.19
-42.82
-47.33
-48.41
-45.14
-37.51
-26.44
-13.53
-0.61
10.87
20.07
26.73
31.04
33.26
33.77
32.86
30.89
28.27
25.45
22.81
20.7
19.26
18.5
18.22
18.08
17.72
16.85
15.33
13.16
10.48
7.42
4.06
0.4
-3.56
-7.85
-12.5
-17.63
-23.4
-29.89
-36.94
-43.82
-49.3
-51.86
-50.26
-43.99
-33.62
-20.66
-7.03
5.48
15.71
23.22
28.22
31.19
32.64
32.94
32.32
30.96
29.08
26.94
24.82
23.0
21.63
20.73
20.18
19.78
19.29
18.46
17.1
15.09
12.38
9.04
5.23
1.1
-3.23
-7.69
-12.36
-17.37
-22.96
-29.26
-36.24
-43.42
-49.86
-54.22
-55.11
-51.61
-43.58
-31.93
-18.29
-4.58
7.58
17.19
24.0
28.27
30.56
31.44
31.38
30.7
29.65
28.42
27.16
25.99
24.98
24.17
23.55
23.06
22.58
21.92
20.91
19.33
17.01
13.86
9.98
5.57
0.98
-3.46
-7.54
-11.32
-15.07
-19.24
-24.27
-30.4
-37.47
-44.74
-50.94
-54.51
-54.11
-49.08
-39.76
-27.49
-14.14
-1.57
9.02
17.16
23.0
26.98
29.43
30.53
30.39
29.27
27.6
25.95
24.74
24.13
23.99
23.96
23.75
23.16
22.27
21.24
20.27
19.36
18.37
16.9
14.57
11.11
6.58
1.4
-3.84
-8.55
-12.42
-15.5
-18.22
-21.2
-25.05
-30.15
-36.48
-43.44
-49.88
-54.32
-55.26
-51.74
-43.73
-32.18
-18.83
-5.57
6.07
15.3
22.02
26.52
29.19
30.25
29.85
28.24
25.92
23.62
22.05
21.64
22.34
23.64
24.85
25.4
25.09
24.08
22.81
21.7
20.9
20.21
19.17
17.28
14.27
10.21
5.47
0.58
-3.99
-8.01
-11.49
-14.61
-17.66
-20.97
-24.87
-29.62
-35.3
-41.54
-47.45
-51.73
-53.0
-50.3
-43.48
-33.31
-21.3
-9.18
1.6
10.2
16.45
20.62
23.12
24.23
24.13
22.97
21.1
19.06
17.49
16.89
17.35
18.58
19.99
21.05
21.4
21.06
20.2
19.11
17.93
16.69
15.24
13.39
10.94
7.87
4.25
0.36
-3.48
-7.0
-10.1
-12.87
-15.57
-18.47
-21.89
-26.04
-30.99
-36.48
-41.84
-45.94
-47.54
-45.64
-40.0
-31.2
-20.53
-9.48
0.71
9.23
15.72
20.05
22.2
22.27
20.6
17.83
14.79
12.26
10.72
10.29
10.7
11.54
12.39
13.0
13.27
13.22
12.89
12.25
11.2
9.57
7.27
4.33
0.93
-2.61
-5.96
-8.92
-11.43
-13.65
-15.92
-18.67
-22.31
-27.01
-32.49
-37.94
-42.06
-43.54
-41.46
-35.7
-27.05
-16.81
-6.45
2.83
10.34
15.83
19.32
20.97
21.04
19.87
17.88
15.55
13.3
11.44
10.13
9.4
9.17
9.31
9.63
9.95
10.06
9.82
9.1
7.78
5.79
3.17
0.06
-3.31
-6.74
-10.08
-13.36
-16.75
-20.47
-24.75
-29.65
-35.0
-40.23
-44.41
-46.47
-45.45
-40.86
-32.95
-22.64
-11.32
-0.38
9.04
16.3
21.2
23.83
24.53
23.67
21.71
19.11
16.33
13.75
11.7
10.38
9.84
9.95
10.47
11.1
11.56
11.65
11.22
10.19
8.48
6.1
3.12
-0.24
-3.71
-7.02
-10.06
-12.9
-15.81
-19.2
-23.47
-28.83
-35.12
-41.64
-47.16
-50.21
-49.51
-44.52
-35.67
-24.29
-12.15
-0.9
8.41
15.35
20.0
22.68
23.73
23.49
22.33
20.73
19.14
17.9
17.2
16.97
17.02
17.14
17.17
17.1
17.0
16.96
17.0
16.88
16.25
14.72
12.05
8.35
3.98
-0.53
-4.77
-8.58
-12.07
-15.54
-19.3
-23.65
-28.78
-34.57
-40.55
-45.72
-48.78
-48.47
-44.1
-35.88
-24.89
-12.77
-1.11
8.95
16.91
22.73
26.56
28.54
28.8
27.55
25.26
22.55
20.14
18.53
17.9
18.01
18.39
18.56
18.26
17.58
16.82
16.27
15.99
15.75
15.12
13.66
11.18
7.8
3.87
-0.2
-4.11
-7.73
-11.12
-14.45
-17.98
-22.02
-26.84
-32.45
-38.48
-44.04
-47.88
-48.75
-45.82
-39.07
-29.29
-17.88
-6.39
3.9
12.26
18.45
22.6
24.9
25.52
24.64
22.55
19.7
16.75
14.35
12.97
12.72
13.36
14.44
15.51
16.29
16.72
16.83
16.65
16.05
14.78
12.62
9.54
5.77
1.74
-2.04
-5.29
-8.01
-10.51
-13.26
-16.77
-21.33
-26.94
-33.17
-39.13
-43.64
-45.45
-43.68
-38.06
-29.18
-18.31
-7.04
3.16
11.39
17.3
21.05
22.97
23.4
22.63
20.94
18.67
16.25
14.1
12.53
11.67
11.48
11.78
12.35
12.96
13.43
13.56
13.17
12.05
10.09
7.3
3.85
0.04
-3.77
-7.33
-10.55
-13.56
-16.72
-20.52
-25.33
-31.19
-37.58
-43.37
-47.07
-47.31
-43.37
-35.47
-24.77
-12.94
-1.66
7.9
15.24
20.44
23.84
25.76
26.39
25.84
24.26
22.0
19.53
17.35
15.81
15.03
14.89
15.14
15.53
15.85
15.94
15.6
14.58
12.66
9.78
6.12
2.08
-1.88
-5.4
-8.43
-11.23
-14.28
-18.12
-23.13
-29.33
-36.16
-42.52
-46.98
-48.15
-45.15
-37.99
-27.58
-15.48
-3.4
7.26
15.68
21.63
25.29
27.01
27.24
26.43
25.02
23.46
22.06
21.02
20.37
20.08
20.08
20.3
20.68
21.07
21.25
20.94
19.89
18.02
15.39
12.23
8.8
5.36
2.03
-1.17
-4.34
-7.67
-11.41
-15.85
-21.15
-27.23
-33.67
-39.58
-43.74
-44.91
-42.23
-35.6
-25.84
-14.41
-3.05
6.87
14.66
20.31
24.21
26.77
28.13
28.29
27.24
25.21
22.74
20.49
19.0
18.46
18.71
19.43
20.22
20.81
21.03
20.77
19.9
18.32
15.94
12.85
9.22
5.35
1.53
-2.05
-5.37
-8.63
-12.16
-16.34
-21.32
-26.89
-32.33
-36.51
-38.22
-36.49
-31.04
-22.4
-11.85
-1.01
8.57
15.9
20.63
22.97
23.41
22.48
20.58
18.06
15.27
12.64
10.57
9.3
8.86
9.02
9.45
9.82
9.95
9.72
9.11
8.1
6.73
5.04
3.1
0.96
-1.39
-4.03
-7.09
-10.65
-14.81
-19.59
-24.86
-30.2
-34.8
-37.6
-37.52
-34.01
-27.21
-18.12
-8.16
1.25
9.2
15.36
19.8
22.7
24.12
24.02
22.39
19.46
15.81
12.18
9.32
7.73
7.48
8.18
9.18
9.7
9.22
7.63
5.24
2.54
-0.05
-2.39
-4.69
-7.33
-10.66
-14.9
-20.03
-25.88
-32.06
-37.88
-42.41
-44.54
-43.35
-38.5
-30.42
-20.22
-9.4
0.73
9.27
15.92
20.73
23.88
25.47
25.53
24.15
21.55
18.3
15.07
12.57
11.18
10.91
11.33
11.82
11.79
10.96
9.34
7.19
4.8
2.32
-0.26
-3.05
-6.21
-9.87
-14.19
-19.27
-25.1
-31.41
-37.55
-42.49
-45.07
-44.31
-39.77
-31.8
-21.41
-10.02
0.94
10.4
17.83
23.16
26.62
28.51
29.04
28.4
26.74
24.4
21.81
19.53
17.94
17.21
17.15
17.35
17.3
16.59
15.05
12.73
9.86
6.73
3.58
0.52
-2.46
-5.46
-8.71
-12.49
-17.1
-22.77
-29.4
-36.38
-42.61
-46.61
-47.06
-43.26
-35.47
-24.83
-13.01
-1.66
8.05
15.61
21.07
24.79
27.13
28.35
28.64
28.13
27.02
25.57
24.01
22.56
21.37
20.49
19.93
19.59
19.3
18.85
18.01
16.57
14.43
11.56
8.03
3.99
-0.37
-4.85
-9.29
-13.68
-18.15
-23.07
-28.75
-35.23
-41.97
-47.82
-51.23
-50.86
-46.03
-37.11
-25.39
-12.63
-0.5
9.86
17.97
23.87
27.87
30.27
31.33
31.31
30.51
29.29
28.08
27.15
26.59
26.32
26.09
25.67
24.95
24.01
23.01
22.12
21.26
20.17
18.46
15.8
12.14
7.73
3.05
-1.43
-5.42
-8.96
-12.34
-16.0
-20.41
-25.88
-32.45
-39.67
-46.6
-51.87
-54.04
-52.06
-45.68
-35.61
-23.32
-10.56
1.15
10.89
18.34
23.61
26.98
28.72
29.05
28.27
26.76
24.99
23.43
22.44
22.18
22.55
23.25
23.9
24.17
23.93
23.25
22.34
21.33
20.13
18.45
15.89
12.28
