0
3.31
3.8
4.49
5.3
6.2
7.07
7.69
7.74
7.04
5.6
3.68
1.67
-0.06
-1.33
-2.2
-2.85
-3.52
-4.41
-5.57
-6.94
-8.43
-9.88
-11.18
-12.24
-13.0
-13.5
-13.85
-14.28
-15.07
-16.41
-18.25
-20.19
-21.56
-21.59
-19.74
-15.92
-10.53
-4.32
1.81
7.16
11.32
14.17
15.82
16.44
16.24
15.37
14.0
12.29
10.46
8.76
7.48
6.81
6.81
7.39
8.33
9.36
10.3
11.05
11.56
11.81
11.73
11.21
10.17
8.59
6.58
4.34
2.1
0.07
-1.61
-2.91
-3.87
-4.63
-5.37
-6.21
-7.14
-8.03
-8.75
-9.2
-9.46
-9.69
-10.14
-10.97
-12.2
-13.73
-15.31
-16.68
-17.48
-17.39
-16.16
-13.68
-10.08
-5.68
-0.92
3.77
8.03
11.58
14.21
15.74
16.04
15.14
13.22
10.63
7.83
5.26
3.25
2.01
1.59
1.91
2.8
4.07
5.47
6.77
7.78
8.32
8.27
7.6
6.42
4.94
3.42
2.11
1.12
0.41
-0.17
-0.79
-1.55
-2.42
-3.33
-4.16
-4.85
-5.4
-5.87
-6.34
-6.93
-7.75
-8.87
-10.3
-11.91
-13.44
-14.46
-14.5
-13.19
-10.39
-6.28
-1.3
3.94
8.83
12.94
16.05
18.11
19.16
19.19
18.18
16.15
13.28
9.99
6.83
4.36
2.91
2.51
2.92
3.81
4.85
5.85
6.73
7.42
7.83
7.86
7.39
6.37
4.86
2.97
0.89
-1.2
-3.13
-4.82
-6.23
-7.44
-8.51
-9.45
-10.22
-10.71
-10.86
-10.7
-10.32
-9.9
-9.6
-9.56
-9.9
-10.7
-12.01
-13.78
-15.77
-17.53
-18.51
-18.19
-16.3
-12.85
-8.19
-2.87
2.51
7.4
11.41
14.26
15.87
16.29
15.73
14.49
12.84
11.02
9.15
7.34
5.71
4.47
3.86
4.04
5.0
6.51
8.21
9.68
10.67
11.04
10.87
10.28
9.42
8.4
7.27
6.06
4.78
3.48
2.23
1.09
0.08
-0.83
-1.74
-2.74
-3.88
-5.12
-6.35
-7.44
-8.35
-9.06
-9.65
-10.19
-10.8
-11.61
-12.73
-14.3
-16.33
-18.66
-20.95
-22.71
-23.45
-22.75
-20.38
-16.34
-10.93
-4.71
1.54
7.09
11.41
14.3
15.91
16.53
16.41
15.69
14.34
12.41
10.08
7.67
5.59
4.17
3.56
3.7
4.43
5.51
6.76
7.95
8.94
9.6
9.84
9.59
8.81
7.5
5.76
3.76
1.71
-0.23
-2.01
-3.7
-5.37
-7.01
-8.53
-9.77
-10.66
-11.24
-11.64
-12.05
-12.59
-13.32
-14.25
-15.44
-16.87
-18.36
-19.52
-19.83
-18.77
-16.1
-11.88
-6.55
-0.68
5.11
10.3
14.49
17.37
18.76
18.64
17.21
14.82
11.97
9.16
6.82
5.25
4.59
4.87
6.0
7.76
9.89
12.0
13.7
14.64
14.6
13.56
11.68
9.29
6.75
4.3
2.09
0.13
-1.62
-3.19
-4.64
-6.01
-7.4
-8.85
-10.33
-11.71
-12.84
-13.59
-13.99
-14.24
-14.64
-15.47
-16.9
-18.84
-20.93
-22.59
-23.13
-21.95
-18.77
-13.73
-7.43
-0.76
5.42
10.43
13.99
16.11
17.02
16.93
16.03
14.48
12.49
10.36
8.43
6.98
6.13
5.86
6.0
6.4
6.99
7.77
8.76
9.87
10.89
11.5
11.45
10.63
9.14
7.2
5.08
2.94
0.89
-1.03
-2.81
-4.45
-5.96
-7.37
-8.7
-9.94
-11.02
-11.83
-12.32
-12.56
-12.76
-13.2
-14.16
-15.72
-17.75
-19.82
-21.32
-21.6
-20.13
-16.76
-11.73
-5.67
0.63
6.4
11.15
14.69
17.09
18.53
19.15
19.02
18.13
16.54
14.41
12.03
9.77
8.01
6.96
6.7
7.13
8.03
9.16
10.27
11.16
11.66
11.65
11.05
9.85
8.14
6.06
3.85
1.73
-0.09
-1.54
-2.66
-3.62
-4.63
-5.82
-7.22
-8.68
-9.98
-10.92
-11.39
-11.44
-11.31
-11.29
-11.66
-12.61
-14.1
-15.84
-17.31
-17.9
-17.05
-14.47
-10.27
-4.91
0.87
6.32
10.86
14.14
16.1
16.84
16.51
15.24
13.21
10.66
7.96
5.55
3.86
3.19
3.61
4.87
6.53
8.08
9.13
9.58
9.52
9.2
8.82
8.39
7.78
6.82
5.44
3.75
1.93
0.14
-1.57
-3.29
-5.07
-6.89
-8.55
-9.83
-10.59
-10.86
-10.87
-10.98
-11.51
-12.62
-14.33
-16.39
-18.41
-19.89
-20.28
-19.17
-16.37
-12.0
-6.49
-0.54
5.12
9.8
13.07
14.82
15.24
14.69
13.58
12.22
10.73
9.14
7.47
5.83
4.45
3.57
3.4
3.97
5.15
6.66
8.22
9.57
10.56
11.12
11.22
10.87
10.07
8.83
7.19
5.25
3.16
1.09
-0.81
-2.46
-3.88
-5.11
-6.22
-7.19
-8.01
-8.67
-9.24
-9.8
-10.42
-11.17
-12.07
-13.16
-14.49
-16.03
-17.61
-18.85
-19.22
-18.25
-15.68
-11.59
-6.4
-0.74
4.78
9.63
13.47
16.14
17.59
17.9
17.26
15.86
13.99
11.92
9.96
8.37
7.35
7.0
7.28
8.08
9.2
10.4
11.48
12.28
12.67
12.58
12.02
11.05
9.78
8.29
6.66
4.95
3.2
1.5
-0.02
-1.24
-2.09
-2.57
-2.79
-2.91
-3.1
-3.51
-4.22
-5.17
-6.27
-7.35
-8.27
-8.97
-9.49
-10.0
-10.73
-11.82
-13.29
-14.96
-16.48
-17.45
-17.49
-16.35
-13.91
-10.26
-5.67
-0.61
4.4
8.82
12.28
14.62
15.84
16.1
15.53
14.24
12.36
10.05
7.6
5.34
3.59
2.55
2.27
2.67
3.57
4.83
6.29
7.78
9.13
10.07
10.36
9.83
8.44
6.37
4.0
1.77
0.06
-0.96
-1.33
-1.33
-1.3
-1.53
-2.14
-3.03
-4.0
-4.8
-5.3
-5.56
-5.8
-6.32
-7.36
-8.99
-11.06
-13.24
-15.2
-16.63
-17.33
-17.17
-16.07
-13.95
-10.84
-6.94
-2.63
1.55
5.1
7.68
9.19
9.7
9.37
8.33
6.69
4.61
2.4
0.47
-0.77
-1.06
-0.44
0.81
2.27
3.55
4.43
4.91
5.15
5.35
5.62
5.97
6.27
6.39
6.21
5.77
5.17
4.55
4.0
3.54
3.1
2.63
2.09
1.48
0.82
0.09
-0.76
-1.74
-2.81
-3.88
-4.84
-5.64
-6.35
-7.17
-8.3
-9.92
-12.0
-14.31
-16.43
-17.86
-18.13
-17.0
-14.5
-10.9
-6.66
-2.28
1.78
5.21
7.79
9.46
10.28
10.35
9.8
8.7
7.11
5.1
2.85
0.68
-1.03
-1.93
-1.86
-0.91
0.61
2.37
4.08
5.59
6.82
7.7
8.11
7.97
7.25
6.06
4.63
3.15
1.76
0.48
-0.75
-2.01
-3.3
-4.57
-5.76
-6.82
-7.71
-8.42
-8.92
-9.24
-9.42
-9.56
-9.82
-10.34
-11.22
-12.44
-13.91
-15.49
-16.97
-18.13
-18.74
-18.55
-17.32
-14.93
-11.44
-7.08
-2.24
2.57
6.9
10.45
13.11
14.88
15.86
16.07
15.56
14.36
12.57
10.39
8.12
6.08
4.56
3.75
3.63
4.07
4.78
5.49
6.03
6.4
6.69
6.97
7.22
7.23
6.79
5.77
4.27
2.53
0.84
-0.66
-2.0
-3.33
-4.71
-6.07
-7.21
-8.0
-8.41
-8.61
-8.79
-9.1
-9.59
-10.23
-11.0
-11.96
-13.18
-14.67
-16.25
-17.59
-18.21
-17.71
-15.91
-12.86
-8.87
-4.39
0.1
4.23
7.73
10.46
12.38
13.46
13.7
13.14
11.88
10.11
8.13
6.26
4.78
3.89
3.63
3.92
4.59
5.43
6.26
6.91
7.33
7.47
7.28
6.76
5.88
4.68
3.26
1.78
0.35
-0.94
-2.13
-3.29
-4.5
-5.76
-7.0
-8.14
-9.09
-9.86
-10.5
-11.09
-11.71
-12.43
-13.29
-14.34
-15.52
-16.67
-17.54
-17.82
-17.21
-15.54
-12.77
-9.07
-4.7
-0.06
4.42
8.37
11.49
13.62
14.74
14.98
14.47
13.36
11.81
9.98
8.1
6.4
5.16
4.55
4.64
5.35
6.48
7.77
8.98
9.88
10.33
10.31
9.82
8.94
7.75
6.34
4.83
3.35
2.05
1.0
0.21
-0.48
-1.28
-2.35
-3.72
-5.27
-6.74
-7.89
-8.58
-8.85
-8.87
-8.91
-9.28
-10.23
-11.92
-14.3
-17.08
-19.77
-21.7
-22.25
-20.99
-17.84
-13.08
-7.3
-1.22
4.43
9.1
12.5
14.62
15.62
15.7
15.01
13.63
11.63
9.18
6.52
4.02
1.98
0.6
-0.1
-0.18
0.23
1.04
2.21
3.7
5.41
7.15
8.69
9.78
10.25
10.03
9.2
7.98
6.62
5.37
4.37
3.59
2.95
2.28
1.49
0.57
-0.38
-1.28
-2.09
-2.83
-3.6
-4.5
-5.61
-6.96
-8.6
-10.51
-12.64
-14.81
-16.65
-17.68
-17.44
-15.6
-12.2
-7.59
-2.37
2.79
7.3
10.84
13.27
14.66
15.11
14.73
13.56
11.68
9.28
6.7
4.4
2.8
2.16
2.51
3.64
5.22
6.88
8.33
9.38
9.92
9.91
9.37
8.4
7.11
5.68
4.21
2.75
1.27
-0.29
-1.96
-3.72
-5.47
-7.07
-8.36
-9.31
-9.96
-10.42
-10.87
-11.44
-12.24
-13.31
-14.64
-16.06
-17.24
-17.74
-17.08
-14.94
-11.3
-6.49
-1.08
4.24
8.88
12.42
14.64
15.53
15.22
13.96
12.06
9.87
7.7
5.79
4.3
3.34
2.96
3.18
3.95
5.16
6.67
8.25
9.67
10.65
10.95
10.44
9.13
7.25
5.13
3.08
1.25
-0.38
-1.95
-3.56
-5.19
-6.68
-7.86
-8.67
-9.23
-9.77
-10.52
-11.6
-13.01
-14.65
-16.37
-17.99
-19.29
-19.94
-19.58
-17.86
-14.64
-10.04
-4.51
1.3
6.65
10.96
13.95
15.68
16.41
16.49
16.11
15.28
13.89
11.87
9.43
7.0
5.09
4.09
4.11
4.91
6.16
7.49
8.71
9.68
10.31
10.47
10.01
8.81
6.91
4.53
2.02
-0.27
-2.1
-3.43
-4.46
-5.41
-6.49
-7.73
-8.97
-9.99
-10.66
-11.03
-11.32
-11.83
-12.76
-14.12
-15.71
-17.24
-18.33
-18.67
-17.93
-15.92
-12.59
-8.12
-2.95
2.38
7.3
11.39
14.46
16.44
17.37
17.31
16.36
14.68
12.56
10.35
8.39
6.94
6.11
5.9
6.17
6.76
7.44
7.99
8.27
8.21
7.81
7.17
6.35
5.44
4.46
3.44
2.36
1.19
-0.12
-1.58
-3.13
-4.62
-5.88
-6.82
-7.48
-7.97
-8.42
-8.84
-9.12
-9.16
-8.95
-8.67
-8.63
-9.13
-10.3
-12.04
-14.05
-15.95
-17.32
-17.8
-17.09
-15.01
-11.54
-6.88
-1.42
4.33
9.8
14.49
18.0
20.06
20.61
19.73
17.72
14.96
11.92
9.03
6.66
5.11
4.54
4.98
6.29
8.17
10.2
11.94
13.09
13.5
13.22
12.36
11.09
9.5
7.66
5.68
3.68
1.84
0.27
-0.96
-1.93
-2.8
-3.72
-4.79
-5.99
-7.23
-8.4
-9.42
-10.26
-10.92
-11.47
-12.0
-12.67
-13.69
-15.19
-17.11
-19.13
-20.65
-20.97
-19.55
-16.27
-11.46
-5.77
0.0
5.22
9.47
12.62
14.69
15.73
15.79
14.9
13.18
10.87
8.33
6.0
4.29
3.5
3.67
4.66
6.12
7.67
8.98
9.92
10.45
10.65
10.59
10.32
9.84
9.15
8.24
7.09
5.69
4.09
2.34
0.59
-1.03
-2.46
-3.74
-4.94
-6.15
-7.34
-8.47
-9.44
-10.23
-10.87
-11.46
-12.07
-12.77
-13.64
-14.78
-16.31
-18.27
-20.48
-22.53
-23.78
-23.6
-21.6
-17.71
-12.26
-5.88
0.72
6.91
12.22
16.38
19.27
20.84
21.1
20.14
18.15
15.49
12.62
10.02
8.05
6.93
6.67
7.14
8.14
9.41
10.73
11.89
12.7
13.05
12.89
12.25
11.21
9.85
8.26
6.53
4.71
2.86
1.07
-0.57
-1.94
-2.96
-3.62
-4.02
-4.33
-4.76
-5.44
-6.34
-7.34
-8.26
-8.96
-9.45
-9.86
-10.31
-10.94
-11.83
-13.06
-14.71
-16.78
-19.11
-21.3
-22.77
-22.9
-21.3
-17.91
-13.04
-7.26
-1.23
4.43
9.21
12.78
14.98
15.89
15.72
14.81
13.4
11.68
9.7
7.51
5.31
3.43
2.23
1.96
2.64
4.03
5.71
7.28
8.47
9.19
9.49
9.48
9.22
8.73
7.97
6.95
5.75
4.47
3.19
1.94
0.64
-0.82
-2.52
-4.42
-6.36
-8.12
-9.49
-10.36
-10.78
-10.91
-10.99
-11.28
-12.02
-13.36
-15.31
-17.68
-20.01
-21.72
-22.18
-20.97
-17.99
-13.52
-8.15
-2.54
2.7
7.18
10.71
13.23
14.73
15.2
14.64
13.12
10.88
8.27
5.77
3.8
2.64
2.34
2.75
3.68
4.87
6.19
7.51
8.74
9.78
10.43
10.56
10.06
8.9
7.22
5.22
3.12
1.13
-0.62
-2.11
-3.43
-4.74
-6.15
-7.74
-9.42
-11.03
-12.36
-13.26
-13.75
-14.04
-14.5
-15.48
-17.15
-19.38
-21.68
-23.37
-23.74
-22.36
-19.13
-14.39
-8.69
-2.68
3.07
8.2
12.44
15.67
17.77
18.66
18.38
17.04
14.91
12.35
9.69
7.25
5.27
3.9
3.25
3.4
4.31
5.83
7.66
9.41
10.68
11.19
10.81
9.65
7.93
5.93
3.9
2.04
0.38
-1.11
-2.54
-4.0
-5.52
-7.08
-8.6
-9.93
-10.94
-11.52
-11.68
-11.52
-11.3
-11.39
-12.16
-13.8
-16.24
-19.08
-21.65
-23.2
-23.16
-21.23
-17.48
-12.32
-6.32
-0.18
5.5
10.25
13.82
16.14
17.32
17.5
16.82
15.41
13.45
11.16
8.84
6.84
5.49
4.97
5.26
6.18
7.45
8.79
9.99
10.97
11.71
12.18
12.27
11.81
10.67
8.87
6.63
4.29
2.18
0.43
-1.06
-2.57
-4.35
-6.41
-8.53
-10.34
-11.54
-12.05
-12.06
-11.94
-12.07
-12.71
-13.88
-15.42
-17.05
-18.39
-19.04
-18.62
-16.87
-13.66
-9.11
-3.6
2.26
7.8
12.35
15.52
17.16
17.39
16.5
14.81
12.58
10.06
7.48
5.12
3.32
2.38
2.43
3.41
5.04
6.9
8.6
9.84
10.46
10.43
9.82
8.73
7.32
5.73
4.05
2.32
0.56
-1.28
-3.19
-5.15
-7.07
-8.84
-10.36
-11.56
-12.44
-13.08
-13.68
-14.47
-15.68
-17.4
-19.5
-21.57
-23.0
-23.14
-21.51
-17.98
-12.8
-6.56
-0.03
6.06
11.18
15.04
17.56
18.78
18.78
17.68
15.62
12.92
10.03
7.45
5.62
4.77
4.9
5.78
7.08
8.49
9.81
10.94
11.84
12.49
12.79
12.61
11.83
10.38
8.36
5.97
3.48
1.14
-0.91
-2.7
-4.36
-6.06
-7.86
-9.66
-11.25
-12.43
-13.09
-13.35
-13.46
-13.74
-14.44
-15.73
-17.58
-19.89
-22.44
-24.88
-26.69
-27.27
-26.05
-22.66
-17.12
-9.9
-1.83
6.14
13.15
18.64
22.4
24.52
25.21
24.71
23.23
20.97
18.22
15.36
12.87
11.18
10.58
11.05
12.3
13.91
15.44
16.61
17.33
17.66
17.65
17.3
16.53
15.27
13.52
11.37
8.96
6.47
4.02
1.74
-0.28
-1.97
-3.29
-4.32
-5.19
-6.08
-7.1
-8.23
-9.37
-10.38
-11.21
-11.93
-12.68
-13.59
-14.77
-16.28
-18.15
-20.42
-23.02
-25.7
-27.93
-28.96
-28.03
-24.62
-18.72
-10.88
-2.04
6.64
14.2
20.04
23.97
26.11
26.69
25.94
24.05
21.28
17.99
14.74
12.08
10.45
9.99
10.58
11.84
13.36
14.79
15.92
16.65
16.98
16.98
16.66
16.03
15.05
13.69
11.9
9.78
7.48
5.23
3.18
1.39
-0.21
-1.74
-3.25
-4.71
-6.04
-7.1
-7.88
-8.4
-8.79
-9.21
-9.87
-10.95
-12.55
-14.71
-17.34
-20.19
-22.82
-24.72
-25.26
-23.93
-20.45
-14.95
-7.97
-0.42
6.76
12.83
17.44
20.57
22.4
23.04
22.54
20.9
18.21
14.82
11.27
8.17
6.06
5.17
5.45
6.59
8.15
9.77
11.17
12.25
12.99
13.37
13.33
12.75
11.52
9.62
7.2
4.51
1.82
-0.7
-2.95
-4.96
-6.77
-8.43
-9.91
-11.2
-12.25
-13.0
-13.48
-13.72
-13.87
-14.1
-14.62
-15.56
-16.97
-18.82
-21.01
-23.37
-25.63
-27.33
-27.87
-26.6
-23.07
-17.25
-9.63
-1.11
7.23
14.49
20.1
23.89
25.93
26.41
25.55
23.57
20.71
17.33
13.89
10.85
8.61
7.33
6.96
7.27
7.98
8.87
9.83
10.81
11.73
12.39
12.56
12.05
10.81
8.97
6.78
4.43
2.02
-0.46
-2.96
-5.34
-7.38
-8.85
-9.67
-9.94
-9.96
-10.08
-10.48
-11.22
-12.15
-13.07
-13.83
-14.4
-14.91
-15.61
-16.76
-18.54
-20.91
-23.58
-25.99
-27.42
-27.15
-24.68
-19.89
-13.12
-5.12
3.13
10.65
16.72
20.99
23.42
24.22
23.62
21.88
19.25
16.02
12.59
9.4
6.88
5.3
4.75
5.09
6.07
7.38
8.71
9.86
10.7
11.17
11.23
10.82
9.88
8.36
6.29
3.85
1.32
-1.02
-2.96
-4.54
-5.92
-7.29
-8.76
-10.25
-11.57
-12.55
-13.15
-13.51
-13.85
-14.4
-15.32
-16.64
-18.26
-19.86
-20.98
-21.05
-19.54
-16.17
-11.02
-4.57
2.42
9.09
14.72
18.88
21.4
22.37
21.99
20.52
18.17
15.18
11.79
8.32
5.15
2.63
1.03
0.45
0.8
1.85
3.31
4.89
6.33
7.39
7.89
7.71
6.84
5.37
3.49
1.39
-0.79
-2.98
-5.18
-7.34
-9.35
-11.09
-12.4
-13.25
-13.71
-13.98
-14.29
-14.82
-15.73
-17.1
-18.89
-20.94
-22.91
-24.3
-24.54
-23.19
-20.0
-15.09
-8.88
-2.02
4.74
10.71
15.4
18.53
20.08
20.23
19.27
17.49
15.19
12.6
9.97
7.56
5.64
4.37
3.87
4.08
4.89
6.1
7.5
8.85
9.9
10.46
10.39
9.67
8.33
6.46
4.22
1.77
-0.66
-2.91
-4.84
-6.45
-7.82
-9.04
-10.21
-11.29
-12.21
-12.95
-13.56
-14.22
-15.16
-16.57
-18.5
-20.87
-23.44
-25.83
-27.54
-28.04
-26.82
-23.57
-18.32
-11.49
-3.8
3.84
10.63
16.0
19.74
21.89
22.6
22.12
20.65
18.44
15.76
12.97
10.48
8.64
7.68
7.65
8.45
9.83
11.51
13.24
14.78
15.95
16.6
16.66
16.09
14.94
13.28
11.23
8.9
6.45
4.05
1.85
-0.08
-1.78
-3.41
-5.16
-7.11
-9.18
-11.11
-12.62
-13.54
-13.89
-13.88
-13.83
-14.07
-14.85
-16.26
-18.19
-20.3
-22.03
-22.76
-21.97
-19.4
-15.18
-9.73
-3.66
2.42
8.0
12.67
16.15
18.25
18.9
18.2
16.4
13.83
10.87
7.92
5.33
3.4
2.36
2.26
3.02
4.4
6.06
7.67
8.95
9.75
9.98
9.6
8.66
7.22
5.42
3.44
1.42
-0.52
-2.34
-4.06
-5.68
-7.21
-8.57
-9.66
-10.39
-10.71
-10.71
-10.59
-10.6
-11.0
-11.97
-13.55
-15.57
-17.66
-19.34
-20.04
-19.3
-16.9
-12.92
-7.75
-2.02
3.58
8.46
12.24
14.78
16.16
16.56
16.17
15.13
13.57
11.58
9.35
7.15
5.29
4.09
3.7
4.11
5.14
6.52
7.96
9.26
10.18
10.57
10.25
9.15
7.37
5.13
2.8
0.69
-1.0
-2.29
-3.34
-4.37
-5.56
-6.99
-8.6
-10.26
-11.84
-13.16
-14.12
-14.72
-15.11
-15.57
-16.44
-17.89
-19.83
-21.87
-23.38
-23.69
-22.36
-19.27
-14.65
-8.98
-2.88
3.05
8.29
12.43
15.23
16.63
16.72
15.75
14.02
11.89
9.69
7.7
6.19
5.32
5.13
5.57
6.44
7.54
8.66
9.7
10.62
11.36
11.82
11.83
11.25
9.99
8.14
5.94
3.66
1.59
-0.16
-1.58
-2.74
-3.73
-4.6
-5.35
-5.99
-6.55
-7.11
-7.72
-8.38
-9.06
-9.77
-10.59
-11.71
-13.29
-15.4
-17.82
-20.13
-21.71
-21.97
-20.48
-17.17
-12.3
-6.44
-0.29
5.47
10.34
14.07
16.6
17.98
18.35
17.8
16.45
14.44
12.01
9.49
7.27
5.69
4.99
5.2
6.2
7.72
9.41
10.95
12.08
12.59
12.44
11.67
10.41
8.81
6.97
5.0
2.98
1.01
-0.78
-2.23
-3.29
-4.07
-4.79
-5.66
-6.77
-7.99
-8.99
-9.51
-9.47
-9.08
-8.72
-8.84
-9.69
-11.29
-13.44
-15.81
-18.01
-19.66
-20.39
-19.89
-17.95
-14.56
-9.93
-4.53
1.08
6.28
10.61
13.74
15.55
16.11
15.57
14.17
12.22
10.06
8.02
6.39
5.33
4.85
4.83
5.1
5.52
6.05
6.72
7.57
8.52
9.39
9.93
9.93
9.29
8.07
6.44
4.65
2.93
1.45
0.26
-0.7
-1.55
-2.46
-3.52
-4.7
-5.89
-6.96
-7.81
-8.49
-9.14
-9.98
-11.16
-12.73
-14.61
-16.58
-18.35
-19.55
-19.84
-18.91
-16.57
-12.86
-8.02
-2.51
3.11
8.31
12.64
15.82
17.73
18.42
18.01
16.7
14.72
12.4
10.11
8.2
6.98
6.58
6.93
7.78
8.81
9.76
10.46
10.89
11.06
10.95
10.53
9.72
8.54
7.04
5.34
3.58
1.82
0.15
-1.39
-2.75
-3.91
-4.89
-5.75
-6.57
-7.4
-8.2
-8.88
-9.33
-9.51
-9.46
-9.36
-9.48
-10.05
-11.24
-13.13
-15.6
-18.44
-21.25
-23.54
-24.73
-24.28
-21.84
-17.44
-11.52
-4.87
1.61
7.23
11.65
14.93
17.29
18.92
19.83
19.9
19.0
17.2
14.8
12.21
9.86
8.05
6.89
6.36
6.34
6.73
7.4
8.23
9.11
9.84
10.21
10.01
9.11
7.57
5.65
3.7
2.05
0.82
-0.07
-0.87
-1.77
-2.79
-3.82
-4.68
-5.27
-5.63
-5.87
-6.11
-6.42
-6.8
-7.21
-7.63
-8.08
-8.64
-9.43
-10.57
-12.17
-14.23
-16.55
-18.81
-20.6
-21.55
-21.41
-20.08
-17.55
-13.9
-9.29
-4.05
1.35
6.36
10.53
13.62
15.63
16.7
16.95
16.42
15.09
13.04
10.47
7.79
5.45
3.79
2.97
2.98
3.7
4.95
6.52
8.21
9.72
10.79
11.16
10.72
9.51
7.69
5.52
3.25
1.15
-0.63
-2.0
-2.98
-3.65
-4.19
-4.78
-5.54
-6.52
-7.6
-8.6
-9.32
-9.64
-9.64
-9.54
-9.64
-10.22
-11.43
-13.25
-15.5
-17.84
-19.79
-20.87
-20.59
-18.69
-15.17
-10.38
-4.89
0.61
5.55
9.52
12.38
14.12
14.86
14.72
13.83
12.35
10.44
8.37
6.47
5.06
4.43
4.65
5.59
6.88
8.15
9.09
9.65
9.92
10.05
10.11
10.04
9.69
8.97
7.87
6.46
4.89
3.26
1.67
0.22
-1.03
-2.04
-2.84
-3.53
-4.24
-5.1
-6.16
-7.41
-8.82
-10.33
-11.91
-13.46
-14.88
-16.11
-17.24
-18.46
-19.97
-21.8
-23.68
-25.02
-25.12
-23.46
-19.87
-14.64
-8.44
-2.03
3.89
8.85
12.62
15.19
16.61
17.01
16.54
15.31
13.54
11.46
9.38
7.64
6.51
6.17
6.58
7.6
8.96
10.38
11.62
12.51
12.98
13.01
12.58
11.72
10.43
8.75
6.74
4.54
2.3
0.21
-1.59
-3.03
-4.16
-5.11
-6.04
-7.07
-8.23
-9.45
-10.6
-11.57
-12.31
-12.84
-13.3
-13.85
-14.66
-15.87
-17.55
-19.64
-21.91
-23.97
-25.33
-25.48
-24.05
-20.92
-16.27
-10.55
-4.33
1.76
7.18
11.59
14.8
16.77
17.53
17.13
15.66
13.3
10.36
7.24
4.44
2.38
1.31
1.25
2.04
3.38
4.96
6.55
7.99
9.21
10.13
10.7
10.85
10.53
9.71
8.48
7.0
5.5
4.19
3.15
2.29
1.38
0.17
-1.4
-3.19
-4.84
-5.99
-6.45
-6.35
-6.07
-6.05
-6.63
-7.85
-9.48
-11.12
-12.31
-12.68
-12.01
-10.21
-7.33
-3.53
0.89
5.54
9.97
13.75
16.55
18.2
18.68
18.16
16.86
15.0
12.79
10.39
7.99
5.84
4.23
3.42
3.54
4.48
5.92
7.48
8.79
9.61
9.88
9.63
8.93
7.86
6.45
4.76
2.87
0.92
-0.94
-2.6
-4.03
-5.33
-6.62
-8.01
-9.47
-10.86
-12.0
-12.8
-13.32
-13.78
-14.49
-15.66
-17.38
-19.51
-21.73
-23.62
-24.68
-24.46
-22.69
-19.35
-14.75
-9.45
-4.11
0.71
4.69
7.76
9.96
11.42
12.16
12.19
11.53
10.29
8.68
7.04
5.68
4.85
4.67
5.15
6.16
7.5
8.97
10.38
11.62
12.59
13.18
13.25
12.67
11.42
9.62
7.53
5.45
3.57
1.91
0.34
-1.3
-3.09
-4.93
-6.59
-7.91
-8.83
-9.42
-9.86
-10.34
-10.98
-11.8
-12.82
-13.96
-15.11
-16.04
-16.45
-15.92
-14.1
-10.73
-5.85
0.16
6.59
12.59
17.42
20.64
22.22
22.45
21.67
20.16
18.04
15.37
12.32
9.25
6.62
4.83
4.04
4.15
4.83
5.76
6.69
7.53
8.22
8.77
9.07
9.04
8.58
7.62
6.14
4.18
1.85
-0.74
-3.38
-5.92
-8.21
-10.18
-11.77
-12.97
-13.79
-14.26
-14.49
-14.71
-15.16
-16.04
-17.39
-18.99
-20.48
-21.33
-21.1
-19.47
-16.4
-12.08
-6.92
-1.46
3.78
8.34
11.96
14.5
15.92
16.29
15.7
14.29
12.33
10.1
7.96
6.23
5.13
4.75
5.06
5.92
7.13
8.44
9.6
10.36
10.6
10.25
9.42
8.27
6.93
5.49
3.97
2.3
0.44
-1.6
-3.71
-5.73
-7.46
-8.81
-9.77
-10.45
-11.03
-11.69
-12.56
-13.69
-15.09
-16.73
-18.54
-20.3
-21.69
-22.23
-21.46
-19.05
-15.04
-9.77
-3.83
2.14
7.62
12.26
15.89
18.38
19.68
19.74
18.61
16.51
13.77
10.87
8.29
6.38
5.35
5.2
5.74
6.68
7.73
8.64
9.3
9.65
9.64
9.21
8.32
6.98
5.29
3.43
1.6
-0.08
-1.61
-3.04
-4.45
-5.89
-7.32
-8.67
-9.89
-10.93
-11.71
-12.17
-12.26
-12.06
-11.81
-11.86
-12.53
-13.98
-16.09
-18.44
-20.44
-21.45
-20.93
-18.56
-14.33
-8.59
-1.94
4.84
11.02
16.04
19.64
21.74
22.47
21.99
20.54
18.39
15.9
13.44
11.36
9.88
9.07
8.87
9.15
9.72
10.42
11.11
11.66
12.0
12.05
11.75
11.09
10.1
8.85
7.45
5.99
4.49
2.93
1.26
-0.56
-2.47
-4.33
-5.97
-7.3
-8.29
-9.0
-9.52
-9.94
-10.34
-10.81
-11.48
-12.5
-13.97
-15.85
-17.92
-19.77
-20.89
-20.78
-19.11
-15.84
-11.23
-5.78
-0.12
5.2
9.81
13.53
16.32
18.13
18.86
18.38
16.7
14.05
10.9
7.86
5.47
4.08
3.72
4.22
5.31
6.71
8.21
9.6
10.69
11.27
11.15
10.22
8.49
6.17
3.6
1.14
-0.92
-2.53
-3.82
-5.07
-6.49
-8.16
-9.92
-11.57
-12.89
-13.84
-14.47
-14.93
-15.34
-15.86
-16.58
-17.56
-18.71
-19.73
-20.12
-19.26
-16.7
-12.3
-6.4
0.26
6.81
12.45
16.67
19.31
20.45
20.31
19.1
17.08
14.51
11.7
9.05
6.97
5.71
5.36
5.75
6.6
7.63
8.66
9.58
10.34
10.83
10.89
10.43
9.41
7.97
6.32
4.66
3.08
1.58
0.1
-1.43
-3.03
-4.65
-6.22
-7.65
-8.84
-9.69
-10.13
-10.18
-9.99
-9.85
-10.09
-10.99
-12.58
-14.59
-16.45
-17.47
-16.94
-14.43
-9.88
-3.65
3.57
10.96
17.78
23.49
27.82
30.72
32.26
32.6
31.92
30.44
28.43
26.26
24.36
23.11
22.77
23.38
24.72
26.31
27.61
28.06
27.29
25.09
21.42
16.42
10.24
3.19
-4.29
-11.69
-18.48
-24.29
-28.96
-32.6
-35.38
-37.52
-39.16
-40.37
-41.13
-41.38
-41.05
-40.01
-38.18
-35.58
-32.45
-29.2
-26.34
-24.3
-23.23
-22.9
-22.73
-22.01
-20.12
-16.75
-11.99
-6.26
-0.19
5.66
10.84
15.12
18.39
20.58
21.64
21.52
20.28
18.09
15.3
12.32
9.56
7.37
5.98
5.5
5.87
6.9
8.3
9.73
10.83
11.39
11.29
10.58
9.37
7.82
6.04
4.12
2.09
-0.01
-2.13
-4.24
-6.3
-8.29
-10.16
-11.84
-13.2
-14.17
-14.76
-15.12
-15.44
-15.89
-16.46
-16.85
-16.58
-15.19
-12.42
-8.39
-3.58
1.4
5.96
9.74
12.62
14.65
15.83
16.14
15.49
13.9
11.55
8.8
6.18
4.15
3.02
2.87
3.54
4.76
6.18
7.51
8.54
9.17
9.39
9.27
8.87
8.22
7.27
6.0
4.35
2.35
0.07
-2.36
-4.82
-7.22
-9.46
-11.46
-13.19
-14.68
-16.08
-17.58
-19.35
-21.35
-23.33
-24.84
-25.32
-24.36
-21.74
-17.58
-12.22
-6.21
-0.2
5.24
9.63
12.72
14.46
14.97
14.5
13.3
11.65
9.79
7.96
6.44
5.4
4.96
5.11
5.72
6.6
7.56
8.41
9.04
9.37
9.41
9.2
8.82
8.31
7.69
6.89
5.84
4.47
2.76
0.78
-1.32
-3.4
-5.26
-6.8
-7.94
-8.71
-9.21
-9.6
-10.05
-10.7
-11.63
-12.89
-14.48
-16.39
-18.5
-20.57
-22.16
-22.77
-21.91
-19.34
-15.12
-9.65
-3.52
2.6
8.15
12.71
16.04
18.01
18.63
18.01
16.36
13.94
11.09
8.19
5.61
3.69
2.64
2.52
3.25
4.56
6.17
7.8
9.27
10.49
11.41
11.94
12.0
11.42
10.15
8.22
5.82
3.22
0.74
-1.41
-3.15
-4.53
-5.66
-6.67
-7.63
-8.54
-9.39
-10.17
-10.88
-11.59
-12.34
-13.2
-14.26
-15.57
-17.18
-19.0
-20.83
-22.33
-23.04
-22.5
-20.38
-16.58
-11.29
-5.02
1.59
7.82
13.09
16.99
19.34
20.13
19.5
17.7
15.06
11.97
8.88
6.21
4.3
3.36
3.42
4.38
6.01
7.97
9.91
11.47
12.42
12.64
12.17
11.14
9.7
7.96
5.98
3.77
1.32
-1.36
-4.21
-7.14
-9.97
-12.48
-14.43
-15.71
-16.38
-16.72
-17.12
-17.94
-19.31
-21.06
-22.68
-23.52
-22.98
-20.65
-16.4
-10.46
-3.33
4.23
11.4
17.46
21.89
24.51
25.4
24.83
23.13
20.58
17.43
14.0
10.64
7.77
5.73
4.74
4.76
5.57
6.82
8.15
9.28
10.05
10.4
10.36
9.94
9.12
7.86
6.15
4.03
1.6
-1.0
-3.64
-6.21
-8.65
-10.86
-12.75
-14.26
-15.4
-16.33
-17.34
-18.69
-20.51
-22.62
-24.51
-25.48
-24.81
-22.01
-16.95
-10.02
-2.01
6.09
13.31
18.97
22.74
24.64
24.92
23.9
21.93
19.31
16.36
13.4
10.74
8.69
7.46
7.14
7.62
8.63
9.83
10.87
11.54
11.77
11.66
11.32
10.74
9.82
8.35
6.19
3.34
0.0
-3.52
-6.87
-9.74
-11.92
-13.32
-14.0
-14.25
-14.51
-15.21
-16.69
-18.96
-21.69
-24.28
-25.98
-26.08
-24.07
-19.77
-13.43
-5.74
2.34
9.76
15.71
19.81
22.11
22.94
22.71
21.65
19.88
17.5
14.69
11.77
9.13
7.09
5.77
5.07
4.75
4.56
4.26
3.76
3.08
2.32
1.57
0.89
0.27
-0.47
-1.45
-2.8
-4.46
-6.28
-8.04
-9.59
-10.89
-11.98
-12.99
-14.0
-15.03
-16.0
-16.82
-17.32
-17.36
-16.82
-15.53
-13.34
-10.12
-5.8
-0.48
5.51
11.64
17.26
21.78
24.85
26.41
26.64
25.82
24.27
22.22
19.92
17.64
15.68
14.32
13.72
13.89
14.69
15.87
17.2
18.46
19.46
20.04
20.04
19.35
17.9
15.69
12.76
9.24
5.34
1.36
-2.4
-5.7
-8.55
-11.21
-14.08
-17.55
-21.75
-26.4
-30.85
-34.25
-35.84
-35.18
-32.23
-27.42
-21.44
-15.06
-8.96
-3.63
0.68
3.9
6.04
7.18
7.37
6.74
5.46
3.81
2.14
0.8
0.05
0.04
0.72
1.95
3.5
5.16
6.7
7.95
8.74
8.93
8.46
7.38
5.79
3.89
1.88
-0.06
-1.82
-3.33
-4.59
-5.65
-6.57
-7.44
-8.31
-9.19
-10.04
-10.74
-11.12
-10.92
-9.87
-7.71
-4.31
0.22
5.53
11.02
16.07
20.1
22.76
23.94
23.69
22.21
19.73
16.5
12.76
8.81
4.94
1.54
-1.04
-2.52
-2.84
-2.21
-1.06
0.09
0.76
0.69
-0.13
-1.53
-3.29
-5.22
-7.23
-9.26
-11.27
-13.17
-14.84
-16.21
-17.23
-17.9
-18.22
-18.25
-18.03
-17.6
-17.04
-16.45
-15.97
-15.68
-15.59
-15.55
-15.29
-14.44
-12.65
-9.77
-5.85
-1.22
3.63
8.19
12.08
15.06
17.06
18.06
18.12
17.32
15.81
13.85
11.77
9.94
8.61
7.89
7.71
7.91
8.31
8.79
9.27
9.71
10.02
10.05
9.65
8.77
7.45
5.88
4.29
2.83
1.53
0.31
-0.87
-2.03
-3.1
-4.01
-4.77
-5.51
-6.38
-7.48
-8.81
-10.29
-11.82
-13.35
-14.79
-15.98
-16.63
-16.34
-14.79
-11.89
-7.84
-3.09
1.75
6.13
9.66
12.1
13.36
13.49
12.66
11.1
9.17
