0
-6.01
-0.75
3.88
7.67
10.29
11.58
11.7
11.13
10.44
10.06
10.17
10.7
11.42
12.15
12.74
13.18
13.49
13.69
13.7
13.44
12.76
11.57
9.85
7.75
5.53
3.47
1.78
0.4
-0.93
-2.7
-5.3
-8.94
-13.48
-18.48
-23.24
-26.96
-28.91
-28.54
-25.71
-20.72
-14.26
-7.23
-0.46
5.47
10.34
14.13
16.88
18.54
18.99
18.26
16.53
14.3
12.14
10.55
9.77
9.78
10.36
11.23
12.16
12.98
13.55
13.67
13.18
11.94
9.93
7.29
4.28
1.21
-1.66
-4.19
-6.41
-8.53
-10.88
-13.77
-17.42
-21.77
-26.49
-30.94
-34.32
-35.84
-34.95
-31.51
-25.81
-18.54
-10.53
-2.66
4.42
10.21
14.45
17.03
18.0
17.54
16.0
13.82
11.53
9.58
8.29
7.77
7.9
8.44
9.1
9.66
10.04
10.22
10.25
10.06
9.47
8.29
6.39
3.82
0.83
-2.2
-4.94
-7.14
-8.85
-10.36
-12.09
-14.5
-17.87
-22.18
-27.12
-32.02
-36.06
-38.45
-38.58
-36.27
-31.74
-25.57
-18.56
-11.5
-5.04
0.45
4.82
8.09
10.27
11.38
11.46
10.67
9.33
7.92
7.0
6.96
7.91
9.62
11.6
13.36
14.56
15.13
15.17
14.82
14.16
13.16
11.74
9.9
7.75
5.49
3.33
1.4
-0.29
-1.83
-3.4
-5.23
-7.56
-10.57
-14.34
-18.72
-23.33
-27.57
-30.68
-31.94
-30.84
-27.3
-21.69
-14.73
-7.3
-0.17
6.13
11.33
15.35
18.11
19.6
19.83
19.01
17.55
15.97
14.73
14.09
14.04
14.37
14.85
15.31
15.62
15.78
15.72
15.44
14.92
14.07
12.87
11.25
9.15
6.62
3.85
1.15
-1.18
-3.05
-4.59
-6.19
-8.33
-11.41
-15.54
-20.53
-25.93
-31.07
-35.16
-37.4
-37.19
-34.27
-28.92
-21.84
-14.03
-6.44
0.22
5.69
9.91
13.0
15.03
16.02
16.1
15.53
14.72
14.16
14.17
14.83
15.98
17.31
18.51
19.41
19.92
20.11
20.01
19.72
19.29
18.74
18.04
17.06
15.7
13.81
11.39
8.56
5.55
2.55
-0.26
-2.79
-5.1
-7.25
-9.39
-11.74
-14.56
-18.09
-22.48
-27.62
-33.11
-38.23
-42.05
-43.64
-42.41
-38.29
-31.78
-23.91
-15.76
-8.21
-1.68
3.81
8.47
12.39
15.48
17.51
18.29
17.91
16.77
15.46
14.55
14.37
14.96
16.12
17.54
18.95
20.2
21.25
22.1
22.7
22.91
22.54
21.42
19.51
17.01
14.27
11.69
9.52
7.74
6.12
4.32
2.11
-0.54
-3.49
-6.45
-9.23
-11.78
-14.19
-16.67
-19.4
-22.56
-26.14
-29.99
-33.69
-36.63
-38.06
-37.38
-34.29
-29.01
-22.21
-14.78
-7.54
-1.03
4.56
9.23
13.06
15.97
17.85
18.59
18.31
17.39
16.33
15.66
15.71
16.58
18.09
19.86
21.52
22.67
23.16
22.95
22.25
21.27
20.2
19.09
17.85
16.33
14.44
12.24
9.87
7.53
5.31
3.23
1.24
-0.71
-2.57
-4.39
-6.27
-8.47
-11.34
-15.11
-19.81
-25.11
-30.35
-34.59
-36.93
-36.66
-33.57
-27.99
-20.75
-12.88
-5.28
1.4
6.89
11.06
13.88
15.29
15.32
14.22
12.48
10.71
9.45
8.9
9.0
9.49
10.16
10.95
11.89
13.0
14.15
15.1
15.55
15.33
14.44
13.06
11.39
9.71
8.17
6.77
5.37
3.77
1.76
-0.73
-3.57
-6.48
-9.14
-11.35
-13.08
-14.56
-16.12
-18.19
-21.04
-24.82
-29.42
-34.41
-39.07
-42.46
-43.72
-42.29
-38.19
-32.02
-24.72
-17.27
-10.34
-4.19
1.25
6.13
10.43
13.92
16.29
17.36
17.3
16.59
15.87
15.67
16.17
17.24
18.54
19.71
20.52
20.98
21.18
21.28
21.31
21.15
20.62
19.51
17.77
15.52
13.09
10.81
8.95
7.48
6.16
4.6
2.52
-0.11
-3.1
-6.12
-8.9
-11.37
-13.67
-16.04
-18.76
-22.11
-26.27
-31.33
-37.09
-43.06
-48.37
-52.05
-53.24
-51.57
-47.18
-40.73
-33.1
-25.11
-17.29
-9.94
-3.16
2.89
8.02
11.94
14.5
15.73
15.98
15.76
15.65
16.09
17.18
18.77
20.5
22.04
23.21
24.07
24.77
25.41
25.95
26.16
25.8
24.76
23.15
21.21
19.29
17.62
16.24
15.0
13.69
12.13
10.28
8.22
6.15
4.21
2.49
0.93
-0.65
-2.39
-4.46
-6.96
-9.97
-13.51
-17.47
-21.54
-25.09
-27.32
-27.47
-25.16
-20.51
-14.19
-7.11
-0.07
6.48
12.45
17.93
22.93
27.2
30.3
31.76
31.39
29.32
26.05
22.27
18.67
15.75
13.77
12.74
12.43
12.47
12.46
12.07
11.05
9.34
7.07
4.43
1.65
-1.09
-3.67
-6.07
-8.28
-10.4
-12.51
-14.74
-17.13
-19.7
-22.37
-25.05
-27.62
-30.08
-32.53
-35.23
-38.44
-42.29
-46.51
-50.47
-53.2
-53.78
-51.56
-46.52
-39.14
-30.28
-20.84
-11.54
-2.92
4.68
10.96
15.74
18.99
20.89
21.84
22.27
22.55
22.82
23.17
23.61
24.19
24.96
25.89
26.87
27.7
28.22
28.35
28.13
27.57
26.65
25.37
23.71
21.82
19.94
18.29
16.9
15.61
14.07
11.93
9.0
5.35
1.25
-2.92
-6.82
-10.3
-13.41
-16.46
-19.91
-24.15
-29.27
-34.88
-40.1
-43.81
-45.01
-43.25
-38.74
-32.28
-24.83
-17.3
-10.21
-3.8
1.95
7.03
11.37
14.78
17.11
18.34
18.69
18.52
18.3
18.44
19.12
20.27
21.64
22.9
23.87
24.53
24.96
25.26
25.38
25.1
24.2
22.62
20.52
18.21
16.04
14.19
12.63
11.13
9.45
7.49
5.28
2.95
0.62
-1.81
-4.57
-7.96
-12.22
-17.37
-23.17
-29.04
-34.25
-38.01
-39.63
-38.75
-35.35
-29.8
-22.78
-15.11
-7.51
-0.57
5.39
10.15
13.64
15.81
16.67
16.34
15.08
13.32
11.58
10.34
9.92
10.34
11.38
12.66
13.82
14.63
15.1
15.32
15.38
15.34
15.07
14.41
13.23
11.52
9.44
7.15
4.84
2.6
0.43
-1.76
-4.09
-6.73
-9.86
-13.69
-18.32
-23.68
-29.36
-34.64
-38.62
-40.42
-39.44
-35.62
-29.42
-21.71
-13.5
-5.64
1.34
7.24
12.07
15.79
18.22
19.08
18.23
15.9
12.72
9.63
7.55
7.03
8.11
10.36
13.15
15.86
18.1
19.74
20.79
21.31
21.37
20.99
20.19
18.95
17.22
14.99
12.28
9.2
5.94
2.67
-0.48
-3.44
-6.26
-9.05
-12.02
-15.45
-19.62
-24.71
-30.57
-36.67
-42.07
-45.66
-46.5
-44.16
-38.86
-31.39
-22.81
-14.18
-6.27
0.51
6.02
10.26
13.32
15.31
16.36
16.6
16.15
15.19
13.97
12.85
12.2
12.28
13.1
14.38
15.65
16.54
16.91
16.94
16.93
17.14
17.55
17.85
17.6
16.45
14.32
11.38
7.99
4.54
1.3
-1.65
-4.39
-7.09
-9.99
-13.31
-17.21
-21.82
-27.1
-32.83
-38.52
-43.36
-46.42
-46.84
-44.1
-38.3
-30.15
-20.78
-11.4
-2.92
4.19
9.86
14.19
17.24
18.96
19.26
18.24
16.32
14.17
12.52
11.91
12.44
13.9
15.8
17.67
19.21
20.36
21.2
21.91
22.61
23.24
23.64
23.53
22.69
21.02
18.62
15.7
12.52
9.31
6.17
3.12
0.13
-2.88
-6.04
-9.48
-13.4
-17.9
-22.99
-28.46
-33.8
-38.32
-41.24
-41.84
-39.76
-35.01
-28.07
-19.79
-11.12
-2.88
4.41
10.51
15.35
18.83
20.82
21.23
20.23
18.31
16.24
14.78
14.39
15.05
16.37
17.78
18.88
19.6
20.09
20.63
21.31
21.98
22.3
21.87
20.43
17.99
14.79
11.24
7.75
4.53
1.62
-1.17
-4.16
-7.72
-12.11
-17.42
-23.48
-29.77
-35.51
-39.76
-41.64
-40.64
-36.75
-30.44
-22.6
-14.18
-5.97
1.48
7.92
13.21
17.15
19.55
20.26
19.36
17.28
14.72
12.48
11.15
10.96
11.73
13.01
14.35
15.36
15.88
15.89
15.48
14.71
13.7
12.46
10.95
9.09
6.85
4.23
1.4
-1.46
-4.16
-6.67
-9.15
-11.86
-15.14
-19.27
-24.4
-30.42
-36.98
-43.36
-48.62
-51.74
-51.92
-48.88
-42.94
-34.93
-25.85
-16.61
-7.84
0.13
7.11
12.93
17.39
20.33
21.77
21.95
21.28
20.27
19.39
18.99
19.17
19.86
20.82
21.79
22.55
23.02
23.23
23.24
23.05
22.56
21.59
19.99
17.68
14.68
11.12
7.21
3.17
-0.8
-4.57
-8.06
-11.34
-14.55
-17.98
-21.88
-26.46
-31.77
-37.56
-43.29
-48.16
-51.2
-51.55
-48.74
-42.9
-34.76
-25.41
-15.92
-7.06
0.9
7.93
14.07
19.18
22.96
25.12
25.62
24.8
23.29
21.77
20.8
20.58
21.03
21.9
22.88
23.73
24.34
24.71
24.92
25.04
25.07
24.85
24.17
22.79
20.64
17.81
14.54
11.18
8.0
5.08
2.34
-0.46
-3.56
-7.13
-11.28
-16.05
-21.33
-26.84
-31.98
-35.94
-37.81
-36.92
-33.07
-26.65
-18.52
-9.66
-0.91
7.16
14.23
20.01
24.19
26.51
26.91
25.7
23.55
21.32
19.71
19.1
19.41
20.22
21.01
21.37
21.15
20.5
19.69
18.97
18.41
17.91
17.26
16.22
14.7
12.73
10.45
7.94
5.28
2.46
-0.52
-3.72
-7.18
-11.04
-15.46
-20.57
-26.29
-32.32
-38.02
-42.55
-45.04
-44.76
-41.44
-35.27
-26.93
-17.49
-7.98
0.68
7.99
13.79
18.14
21.12
22.78
23.21
22.59
21.29
19.78
18.51
17.78
17.71
18.25
19.25
20.49
21.73
22.77
23.39
23.49
23.1
22.27
21.11
19.58
17.63
15.17
12.25
9.05
5.85
2.87
0.17
-2.38
-5.04
-8.12
-11.85
-16.35
-21.64
-27.55
-33.72
-39.57
-44.28
-47.01
-47.1
-44.3
-38.84
-31.42
-22.95
-14.29
-6.09
1.34
7.83
13.27
17.48
20.24
21.43
21.13
19.71
17.78
16.02
14.95
14.83
15.59
16.94
18.52
20.03
21.31
22.29
22.95
23.23
23.08
22.42
21.25
19.68
17.82
15.79
13.6
11.19
8.49
5.45
2.13
-1.37
-4.95
-8.61
-12.42
-16.49
-20.92
-25.74
-30.79
-35.71
-39.9
-42.61
-43.13
-40.97
-36.11
-29.07
-20.72
-12.04
-3.83
3.43
9.54
14.44
18.02
20.08
20.53
19.45
17.29
14.74
12.57
11.37
11.35
12.3
13.69
15.02
15.92
16.4
16.71
17.18
17.99
19.01
19.83
19.95
19.01
16.99
14.17
11.04
8.03
5.42
3.18
1.1
-1.1
-3.66
-6.75
-10.47
-14.8
-19.67
-24.8
-29.72
-33.7
-36.0
-35.97
-33.36
-28.34
-21.54
-13.87
-6.21
0.76
6.68
11.44
15.07
17.58
18.97
19.25
18.54
17.18
15.66
14.55
14.26
14.89
16.23
17.85
19.28
20.21
20.52
20.27
19.54
18.38
16.82
14.87
12.55
9.98
7.23
4.36
1.3
-1.99
-5.49
-9.09
-12.62
-15.92
-18.99
-22.06
-25.5
-29.61
-34.47
-39.73
-44.64
-48.22
-49.52
-48.01
-43.68
-37.06
-29.09
-20.75
-12.81
-5.68
0.52
5.83
10.26
13.69
15.93
16.88
16.63
15.55
14.2
13.16
12.88
13.48
14.82
16.56
18.31
19.71
20.55
20.77
20.4
19.59
18.48
17.24
15.96
14.67
13.26
11.6
9.55
7.01
4.03
0.78
-2.51
-5.65
-8.56
-11.33
-14.2
-17.41
-21.23
-25.79
-31.09
-36.82
-42.44
-47.13
-50.01
-50.26
-47.51
-41.9
-34.1
-25.11
-15.94
-7.43
-0.05
6.03
10.76
14.2
16.39
17.42
17.42
16.66
15.49
14.37
13.67
13.67
14.4
15.63
17.0
18.14
18.84
19.08
19.02
18.84
18.61
18.25
17.6
16.53
15.04
13.18
11.1
8.89
6.63
4.35
2.09
-0.15
-2.41
-4.84
-7.67
-11.1
-15.21
-19.89
-24.76
-29.22
-32.54
-34.03
-33.12
-29.65
-23.89
-16.58
-8.71
-1.26
5.05
9.9
13.34
15.59
16.87
17.27
16.79
15.49
13.61
11.63
10.09
9.4
9.73
10.86
12.36
13.72
14.57
14.81
14.54
13.97
13.3
12.57
11.66
10.37
8.56
6.23
3.56
0.8
-1.82
-4.22
-6.52
-8.93
-11.73
-15.1
-19.21
-24.11
-29.74
-35.78
-41.64
-46.44
-49.23
-49.27
-46.31
-40.77
-33.52
-25.62
-17.99
-11.12
-5.16
-0.05
4.22
7.56
9.79
10.82
10.8
10.12
9.35
9.06
9.58
10.96
12.99
15.32
17.58
19.48
20.85
21.65
21.93
21.73
21.12
20.13
18.79
17.04
14.84
12.15
8.98
5.47
1.83
-1.65
-4.78
-7.45
-9.79
-12.04
-14.53
-17.57
-21.39
-26.08
-31.48
-37.1
-42.13
-45.53
-46.35
-44.01
-38.6
-30.87
-22.02
-13.3
-5.59
0.7
5.64
9.45
12.37
14.5
15.82
16.36
16.27
15.87
15.5
15.47
15.94
16.87
18.13
19.49
20.73
21.61
21.96
21.67
20.77
19.44
17.96
16.54
15.3
14.14
12.86
11.26
9.22
6.81
4.17
1.46
-1.18
-3.76
-6.36
-9.11
-12.19
-15.75
-19.85
-24.48
-29.5
-34.56
-39.16
-42.59
-44.11
-43.09
-39.32
-33.1
-25.2
-16.68
-8.52
-1.35
4.59
9.39
13.2
16.06
17.89
18.61
18.29
17.19
15.79
14.53
13.76
13.64
14.08
14.86
15.72
16.44
16.98
17.36
17.63
17.77
17.63
16.96
15.55
13.35
10.59
7.65
4.97
2.77
1.02
-0.53
-2.17
-4.17
-6.7
-9.88
-13.8
-18.44
-23.58
-28.7
-33.0
-35.58
-35.66
-32.93
-27.6
-20.41
-12.35
-4.44
2.56
8.25
12.53
15.46
17.17
17.72
17.22
15.84
13.92
11.93
10.33
9.46
9.41
9.97
10.8
11.54
11.99
12.09
11.91
11.61
11.26
10.86
10.31
9.46
8.2
6.48
4.36
1.96
-0.5
-2.84
-4.93
-6.82
-8.69
-10.88
-13.68
-17.28
-21.7
-26.68
-31.82
-36.47
-39.94
-41.52
-40.7
-37.28
-31.56
-24.24
-16.27
-8.51
-1.5
4.63
10.02
14.82
18.99
22.25
24.28
24.93
24.38
23.13
21.83
20.98
20.76
21.0
21.35
21.46
21.17
20.57
19.84
19.13
18.46
17.67
16.57
15.0
12.95
10.5
7.81
5.0
2.16
-0.72
-3.66
-6.69
-9.88
-13.31
-17.07
-21.27
-25.98
-31.13
-36.45
-41.38
-45.06
-46.64
-45.46
-41.36
-34.76
-26.55
-17.8
-9.43
-2.05
4.09
8.93
12.47
14.69
15.62
15.46
14.66
13.76
13.23
13.37
14.11
15.21
16.29
17.08
17.47
17.53
17.42
17.35
17.37
17.39
17.14
16.34
14.76
12.44
9.63
6.79
4.33
2.46
1.15
0.08
-1.12
-2.81
-5.23
-8.46
-12.48
-17.03
-21.6
-25.44
-27.68
-27.52
-24.66
-19.33
-12.3
-4.6
2.8
9.2
14.34
18.15
20.7
22.02
22.12
21.12
19.29
17.13
15.22
14.0
13.62
13.94
14.6
15.26
15.76
16.12
16.41
16.61
16.47
15.69
14.01
11.46
8.34
5.12
2.2
-0.22
-2.19
-3.96
-5.85
-8.19
-11.25
-15.19
-19.96
-25.26
-30.5
-34.83
-37.36
-37.35
-34.48
-29.0
-21.63
-13.41
-5.35
1.79
7.66
12.2
15.5
17.63
18.59
18.39
17.24
15.58
14.07
13.37
13.89
15.65
18.28
21.23
23.94
26.12
27.65
28.64
29.17
29.31
29.0
28.26
27.14
25.82
24.51
23.43
22.64
22.05
21.48
20.75
19.72
18.37
16.78
15.1
13.51
12.19
11.28
10.82
10.74
10.86
10.96
10.87
10.49
9.87
9.14
8.44
7.89
7.54
7.37
7.25
7.03
6.51
5.58
4.21
2.53
0.76
-0.88
-2.3
-3.58
-4.92
-6.54
-8.57
-10.94
-13.46
-15.89
-18.01
-19.83
-21.53
-23.43
-25.84
-28.88
-32.39
-36.01
-39.28
-41.93
-43.99
-45.82
-48.03
-51.27
-55.96
-62.13
-69.22
-76.14
-81.4
-83.53
-81.5
-75.06
-64.94
-52.58
-39.7
-27.82
-17.84
-10.05
-4.23
0.07
3.23
5.54
7.1
7.94
8.12
7.75
7.08
6.38
5.92
5.85
6.17
6.74
7.44
8.24
9.21
10.47
12.0
13.58
14.75
15.06
14.3
12.57
10.24
7.75
5.4
3.24
1.07
-1.42
-4.53
-8.47
-13.3
-18.87
-24.78
-30.41
-34.92
-37.4
-37.21
-34.08
-28.34
-20.81
-12.51
-4.43
2.76
8.8
13.69
17.53
20.3
21.85
22.08
21.05
19.15
16.98
15.18
14.16
13.93
14.19
14.5
14.56
14.34
14.01
13.76
13.64
13.44
12.77
11.34
9.08
6.23
3.18
0.28
-2.41
-5.07
-8.05
-11.67
-16.1
-21.27
-26.94
-32.64
-37.64
-41.09
-42.13
-40.22
-35.37
-28.25
-19.93
-11.51
-3.78
2.92
8.62
13.35
16.99
19.27
19.97
19.12
17.14
14.73
12.58
11.17
10.61
10.68
11.01
11.27
11.32
11.19
10.98
10.69
10.17
9.19
7.54
5.27
2.6
-0.05
-2.39
-4.33
-6.08
-8.0
-10.48
-13.79
-18.03
-23.19
-29.16
-35.59
-41.87
-47.1
-50.26
-50.46
-47.36
-41.31
-33.19
-24.16
-15.2
-6.9
0.55
7.16
12.9
17.59
20.88
22.49
22.46
21.18
19.35
17.76
16.97
17.13
18.0
19.07
19.88
20.19
20.02
19.58
19.07
18.47
17.64
16.32
14.4
11.91
9.12
6.35
3.86
1.68
-0.39
-2.65
-5.49
-9.1
-13.6
-18.97
-25.04
-31.47
-37.68
-42.81
-45.93
-46.28
-43.57
-38.08
-30.61
-22.14
-13.52
-5.28
2.37
9.42
15.76
21.16
25.25
27.7
28.39
27.52
25.61
23.36
21.43
20.29
20.09
20.64
21.55
22.42
22.95
23.07
22.85
22.41
21.83
21.05
19.92
18.22
15.92
13.11
10.07
7.08
4.37
1.93
-0.35
-2.72
-5.37
-8.42
-11.96
-16.0
-20.57
-25.59
-30.77
-35.52
-39.07
-40.57
-39.38
-35.32
-28.72
-20.32
-11.1
-1.96
6.48
13.89
20.12
25.09
28.6
30.49
30.66
29.31
26.95
24.31
22.13
20.92
20.81
21.61
22.95
24.43
25.84
27.08
28.14
28.94
29.33
29.11
28.06
26.12
23.4
20.2
16.91
13.8
11.02
8.44
5.82
2.85
-0.67
-4.87
-9.72
-15.1
-20.74
-26.21
-30.94
-34.25
-35.55
-34.46
-30.97
-25.39
-18.33
-10.47
-2.48
5.09
11.82
17.37
21.5
24.07
25.11
24.85
23.68
22.13
20.71
19.78
19.5
19.82
20.54
21.42
22.25
22.9
23.28
23.28
22.77
21.67
20.05
18.15
16.32
14.92
14.1
13.74
13.42
12.62
10.99
8.34
4.85
0.84
-3.31
-7.29
-11.0
-14.49
-17.95
-21.68
-25.92
-30.81
-36.13
-41.31
-45.45
-47.59
-46.94
-43.31
-37.08
-29.12
-20.48
-12.06
-4.34
2.53
8.6
13.82
18.0
20.84
22.16
22.07
21.05
19.74
18.76
18.48
18.98
20.1
21.59
23.2
24.75
26.11
27.2
27.95
28.35
28.43
28.28
27.94
27.38
26.53
25.35
23.83
22.07
20.11
17.94
15.44
12.49
9.07
5.32
1.52
-2.06
-5.26
-8.14
-10.89
-13.72
-16.79
-20.2
-24.0
-28.29
-33.09
-38.22
-43.17
-47.13
-49.18
-48.61
-45.25
-39.49
-32.15
-24.22
-16.44
-9.21
-2.6
3.46
8.94
13.68
17.39
19.79
20.84
20.81
20.24
19.79
19.96
20.92
22.52
24.35
25.98
27.19
27.97
28.47
28.84
29.06
28.95
28.27
26.92
25.0
22.76
20.54
18.56
16.8
15.09
13.13
10.7
7.76
4.49
1.2
-1.79
-4.33
-6.52
-8.75
-11.53
-15.27
-20.13
-25.87
-31.94
-37.61
-42.12
-44.86
-45.36
-43.42
-39.1
-32.78
-25.13
-16.97
-9.08
-2.0
4.04
9.06
13.11
16.18
18.16
19.01
18.94
18.36
17.85
17.82
18.41
19.42
20.49
21.32
21.81
22.09
22.34
22.67
22.99
23.03
22.54
21.34
19.43
17.02
14.43
12.05
10.11
8.63
7.37
5.94
3.98
1.29
-2.02
-5.63
-9.15
-12.3
-14.98
-17.3
-19.49
-21.79
-24.44
-27.7
-31.72
-36.51
-41.76
-46.84
-50.82
-52.76
-51.9
-48.01
-41.41
-32.98
-23.86
-15.13
-7.52
-1.22
3.94
8.27
11.95
14.88
16.82
17.64
17.42
16.55
15.58
14.95
14.87
15.29
16.04
16.99
18.0
19.03
20.02
20.88
21.49
21.76
21.56
20.86
19.64
18.01
16.17
14.33
12.65
11.16
9.72
8.16
6.31
4.19
1.92
-0.35
-2.48
-4.51
-6.51
-8.59
-10.87
-13.42
-16.28
-19.56
-23.37
-27.78
-32.73
-37.87
-42.57
-45.94
-47.17
-45.78
-41.85
-35.98
-29.09
-22.06
-15.43
-9.39
-3.82
1.43
6.35
10.7
14.17
16.54
17.84
18.32
18.39
18.44
18.75
19.37
20.2
21.08
21.87
22.49
22.97
23.31
23.46
23.32
22.76
21.74
20.3
18.62
16.95
15.49
14.3
13.25
12.16
10.84
9.24
7.42
5.51
3.58
1.59
-0.58
-2.99
-5.63
-8.31
-10.9
-13.35
-15.9
-18.94
-22.85
-27.81
-33.63
-39.8
-45.5
-49.85
-52.07
-51.64
-48.43
-42.74
-35.27
-26.92
-18.57
-10.84
-4.05
1.75
6.59
10.46
13.27
14.93
15.51
15.29
14.68
14.12
13.89
14.08
14.68
15.61
16.84
18.35
20.05
21.78
23.31
24.39
24.81
24.44
23.2
21.13
18.44
15.42
12.52
10.07
8.23
6.89
5.76
4.53
3.04
1.33
-0.44
-2.1
-3.62
-5.16
-6.97
-9.32
-12.47
-16.57
-21.6
-27.35
-33.34
-38.81
-42.87
-44.66
-43.69
-39.97
-34.05
-26.83
-19.25
-11.99
-5.45
0.3
5.29
9.46
12.63
14.62
15.33
14.88
13.71
12.33
11.24
10.8
11.12
12.14
13.71
15.6
17.55
19.29
20.54
21.12
21.01
20.31
19.23
17.88
16.26
14.27
11.8
8.89
5.75
2.68
-0.03
-2.24
-3.98
-5.42
-6.81
-8.4
-10.41
-12.99
-16.24
-20.23
-24.86
-29.79
-34.39
-37.84
-39.29
-38.17
-34.43
-28.62
-21.7
-14.67
-8.26
-2.78
1.86
5.8
9.1
11.57
12.94
13.05
12.05
10.41
8.78
7.74
7.63
8.41
9.84
11.53
13.19
14.66
15.87
16.81
17.45
17.73
17.58
16.99
15.94
14.44
12.46
10.02
7.15
4.05
0.98
-1.82
-4.22
-6.33
-8.47
-11.04
-14.39
-18.7
-23.98
-30.04
-36.53
-42.88
-48.32
-51.96
-52.99
-50.98
-46.04
-38.84
-30.39
-21.77
-13.75
-6.72
-0.72
4.39
8.69
12.13
14.6
16.01
16.48
16.32
15.96
15.81
16.11
16.89
18.05
19.35
20.6
21.62
22.31
22.62
22.51
22.01
21.15
20.0
18.62
17.03
15.2
13.11
10.71
8.0
5.06
1.96
-1.15
-4.22
-7.21
-10.22
-13.36
-16.8
-20.72
-25.24
-30.39
-35.95
-41.42
-45.98
-48.66
-48.65
-45.65
-39.99
-32.54
-24.4
-16.53
-9.46
-3.34
1.91
6.35
9.96
12.58
14.14
14.7
14.55
14.15
13.93
14.28
15.35
17.1
19.28
21.58
23.68
25.39
26.62
27.41
27.74
27.56
26.73
25.15
22.83
19.94
16.73
13.47
10.35
7.42
4.68
2.14
-0.23
-2.49
-4.83
-7.5
-10.8
-14.87
-19.66
-24.79
-29.59
-33.22
-34.85
-33.97
-30.49
-24.88
-17.98
-10.71
-3.86
2.16
7.18
11.26
14.38
16.46
17.37
17.09
15.84
14.02
12.15
10.71
10.03
10.16
10.97
12.17
13.44
14.5
15.2
15.56
15.62
15.44
14.99
14.12
12.7
10.64
8.03
5.05
1.99
-0.91
-3.53
-5.88
-8.07
-10.34
-13.0
-16.38
-20.74
-26.07
-32.07
-38.02
-42.97
-45.9
-46.06
-43.17
-37.5
-29.78
-21.01
-12.17
-4.01
2.99
8.69
13.1
16.3
18.33
19.24
19.11
18.15
16.72
15.27
14.21
13.79
14.03
14.78
15.79
16.77
17.55
18.03
18.21
18.13
17.83
17.34
16.65
15.72
14.46
12.81
10.76
8.36
5.74
3.0
0.18
-2.77
-6.03
-9.74
-14.02
-18.88
-24.29
-30.07
-35.86
-41.06
-44.86
-46.38
-45.0
-40.57
-33.59
-25.09
-16.25
-8.02
-0.96
4.88
9.63
13.42
16.2
17.8
18.16
17.4
15.93
14.29
13.03
12.47
12.72
13.61
14.88
16.23
17.48
18.52
19.32
19.85
20.09
19.97
19.42
18.41
16.94
15.04
12.79
10.28
7.66
5.07
2.64
0.37
-1.82
-4.14
-6.84
-10.14
-14.18
-18.93
-24.17
-29.45
-34.1
-37.33
-38.41
-36.92
-32.88
-26.8
-19.47
-11.76
-4.3
2.5
8.47
13.45
17.26
19.66
20.55
20.06
18.62
16.86
15.41
14.71
14.92
15.91
17.37
18.92
20.24
21.13
21.51
21.44
20.97
20.16
18.99
17.41
15.37
12.95
10.32
7.68
5.21
2.85
0.41
-2.45
-5.95
-10.18
-15.04
-20.29
-25.69
-30.89
-35.52
-39.03
-40.8
-40.23
-37.01
-31.25
-23.49
-14.6
-5.5
2.95
10.19
15.83
19.74
21.92
22.45
21.59
19.68
17.22
14.72
12.67
11.39
11.02
11.48
12.52
13.77
14.89
15.57
15.67
15.19
14.24
12.99
11.63
10.21
8.73
7.09
5.19
2.98
0.53
-2.03
-4.5
-6.81
-9.0
-11.24
-13.78
-16.88
-20.66
-25.12
-30.06
-35.15
-39.81
-43.36
-45.06
-44.25
-40.62
-34.35
-26.12
-16.92
-7.78
0.49
7.45
12.96
17.07
19.83
21.33
21.7
21.16
20.05
18.81
17.8
17.24
17.19
17.56
18.19
18.91
19.56
20.03
20.24
20.13
19.65
18.74
17.37
15.59
13.45
11.07
8.56
5.99
3.31
0.51
-2.43
-5.37
-8.13
-10.49
-12.45
-14.21
-16.22
-18.97
-22.8
-27.66
-33.05
-38.08
-41.72
-43.06
-41.6
-37.37
-30.93
-23.13
-14.88
-6.87
0.45
6.91
12.41
16.81
19.91
21.51
21.64
20.62
19.02
17.48
16.47
16.17
16.48
17.11
17.77
18.29
18.64
18.88
19.07
19.21
19.2
18.92
18.2
16.91
15.02
12.62
9.86
6.97
4.09
1.26
-1.62
-4.64
-7.85
-11.22
-14.66
-18.14
-21.71
-25.44
-29.3
-32.96
-35.78
-36.96
-35.87
-32.27
-26.46
-19.18
-11.37
-3.86
2.8
8.29
12.56
15.59
17.39
18.02
17.59
16.36
14.69
13.02
11.81
11.35
11.78
12.98
14.64
16.35
17.72
18.47
18.52
17.9
16.8
15.44
14.02
12.65
11.26
9.68
7.7
5.18
2.22
-0.97
-4.13
-7.07
-9.79
-12.47
-15.35
-18.68
-22.68
-27.45
-32.94
-38.83
-44.44
-48.8
-50.86
-49.86
-45.62
-38.61
-29.86
-20.54
-11.62
-3.7
3.08
8.77
13.48
17.25
20.03
21.8
22.62
22.66
22.16
21.43
20.76
20.36
20.32
20.61
21.05
21.44
21.56
21.28
20.56
19.46
18.05
16.43
14.6
12.59
10.4
8.09
5.71
3.33
0.95
-1.47
-3.98
-6.61
-9.38
-12.25
-15.26
-18.55
-22.32
-26.76
-31.88
-37.33
-42.4
-46.15
-47.61
-46.15
-41.65
-34.59
-25.93
-16.8
-8.17
-0.64
5.62
10.69
14.67
17.53
19.17
19.48
18.62
17.04
15.37
14.23
14.06
14.9
16.49
18.34
19.98
21.07
21.56
21.59
21.42
21.23
21.0
20.47
19.33
17.38
14.68
11.59
8.55
5.91
3.72
1.8
-0.23
-2.73
-5.93
-9.94
-14.67
-19.92
-25.33
-30.35
-34.29
-36.38
-36.02
-32.93
-27.3
-19.78
-11.31
-2.92
4.59
10.72
15.32
18.45
20.26
20.78
20.0
18.02
15.14
11.98
9.27
7.62
7.23
7.88
9.02
10.09
10.79
11.11
11.24
11.35
11.43
11.29
10.64
9.25
7.13
4.41
1.34
-1.78
-4.79
-7.58
-10.2
-12.77
-15.45
-18.48
-22.07
-26.29
-31.0
-35.77
-39.94
-42.72
-43.42
-41.6
-37.24
-30.74
-22.79
-14.23
-5.81
1.87
8.47
13.83
17.87
20.58
22.02
22.31
21.73
20.63
19.42
18.48
18.0
18.0
18.34
18.85
19.34
19.64
19.67
19.4
18.84
18.11
17.28
16.4
15.39
14.06
12.26
9.94
7.22
4.33
1.5
-1.19
-3.84
-6.67
-9.91
-13.73
-18.19
-23.28
-28.91
-34.79
-40.4
-44.95
-47.51
-47.28
-43.85
-37.46
-28.89
-19.29
-9.87
-1.54
5.25
10.43
14.21
16.81
18.33
18.81
18.3
16.98
15.26
13.67
12.66
12.48
13.1
14.31
15.75
17.12
18.17
18.76
18.88
18.59
18.09
17.52
16.94
16.25
15.25
13.71
11.62
9.1
6.41
3.78
1.26
-1.31
-4.22
-7.76
-12.06
-17.12
-22.76
-28.63
-34.2
-38.74
-41.46
-41.67
-39.01
-33.65
-26.23
-17.66
-8.91
-0.68
6.57
12.6
17.24
20.34
21.82
21.81
20.69
19.0
17.36
16.24
15.87
16.21
17.04
18.08
19.03
19.69
19.92
19.72
19.16
18.28
17.1
15.53
13.47
10.92
7.98
4.89
1.87
-0.97
-3.68
-6.46
-9.48
-12.88
-16.65
-20.77
-25.21
-29.8
-34.17
-37.7
-39.53
-38.95
-35.63
-29.81
-22.26
-14.0
-5.94
1.31
7.5
12.58
16.53
19.22
20.53
20.33
18.78
16.24
13.33
10.73
9.01
8.43
8.9
10.02
11.27
12.2
12.59
12.5
12.14
11.76
11.45
11.15
10.64
9.72
8.22
6.12
3.56
0.79
-1.98
-4.6
-7.1
-9.65
-12.51
-15.96
-20.16
-25.11
-30.63
-36.3
-41.5
-45.45
-47.32
-46.49
-42.74
-36.39
-28.29
-19.46
-10.89
-3.22
3.3
8.67
12.97
16.15
18.13
18.86
18.52
17.51
16.4
15.67
15.53
15.94
16.62
17.29
17.74
17.91
17.82
17.54
17.14
16.66
16.1
15.43
14.54
13.28
11.51
9.2
6.46
3.51
0.58
-2.18
-4.8
-7.46
-10.39
-13.79
-17.78
-22.37
-27.48
-32.89
-38.2
-42.86
-46.13
-47.31
-45.87
-41.73
-35.24
-27.19
-18.56
-10.21
-2.75
3.57
8.72
12.66
15.3
16.51
16.27
14.84
12.81
10.94
9.88
9.97
11.06
12.7
14.35
15.62
16.46
17.03
17.56
18.14
18.6
18.68
18.13
16.89
15.15
13.25
11.47
9.98
8.73
7.51
6.01
3.92
0.95
-3.08
-8.17
-14.12
-20.47
-26.48
-31.27
-33.96
-33.96
-31.11
-25.76
-18.72
-10.94
-3.36
3.47
9.26
13.94
17.49
19.81
20.76
20.33
18.77
16.6
14.45
12.89
12.16
12.21
12.72
13.37
13.93
14.37
14.77
15.19
15.57
15.73
15.4
14.4
12.68
10.37
7.75
5.09
2.51
-0.04
-2.76
-5.93
-9.77
-14.32
-19.54
-25.18
-30.96
-36.4
-40.87
-43.59
-43.87
-41.28
-35.92
-28.47
-19.94
-11.42
-3.65
3.06
8.65
13.18
16.56
18.61
19.24
18.64
17.31
15.96
15.21
15.36
16.35
17.75
19.11
20.06
20.46
20.35
19.88
19.23
18.51
17.78
17.01
16.08
14.76
12.86
10.29
7.16
3.75
0.42
-2.52
-5.02
-7.29
-9.73
-12.74
-16.65
-21.53
-27.23
-33.33
-39.11
-43.71
-46.22
-45.97
-42.72
-36.82
-29.09
-20.57
-12.2
-4.57
2.1
7.85
12.79
16.89
20.02
21.99
22.71
22.3
21.11
19.66
18.45
17.86
18.01
18.8
19.95
21.1
21.98
22.43
22.46
22.14
21.59
20.82
19.77
18.3
16.24
13.59
10.49
7.25
4.13
1.3
-1.32
-4.01
-7.05
-10.61
-14.67
-19.12
-23.8
-28.54
-33.12
-37.14
-40.02
-41.03
-39.65
-35.69
-29.48
-21.79
-13.53
-5.56
1.57
7.57
12.44
16.26
19.1
20.99
21.9
21.86
21.05
19.88
18.87
18.52
19.08
20.49
22.35
24.17
25.56
26.34
26.55
26.32
25.76
24.8
23.3
21.15
18.36
15.12
11.75
8.55
5.67
3.02
0.3
-2.83
-6.62
-11.09
-16.02
-21.04
-25.72
-29.66
-32.43
-33.55
-32.62
-29.41
-24.09
-17.23
-9.72
-2.46
3.92
9.2
13.4
16.65
18.92
20.07
19.99
18.78
16.87
14.86
13.36
12.77
13.16
14.31
15.9
17.5
18.75
19.39
19.37
18.77
17.79
16.64
15.31
13.73
11.68
9.08
6.02
2.82
-0.21
-2.88
-5.29
-7.85
-10.98
-15.04
-20.12
-25.99
-32.19
-37.99
-42.57
-45.11
-45.05
-42.16
-36.72
-29.37
-20.98
-12.42
-4.38
2.67
8.49
12.92
15.92
17.48
17.76
17.04
15.79
14.49
13.59
13.39
13.93
15.08
16.52
17.89
18.89
19.35
19.23
18.59
17.52
16.1
14.37
12.32
9.97
7.4
4.73
2.13
-0.23
-2.31
-4.22
-6.18
-8.52
-11.55
-15.46
-20.28
-25.83
-31.68
-37.17
-41.5
-43.83
-43.5
-40.25
-34.33
-26.44
-17.5
-8.44
0.08
7.71
14.32
19.83
24.15
27.09
