0
-41.84
-47.96
-53.22
-56.23
-55.92
-51.87
-44.52
-34.95
-24.5
-14.4
-5.42
2.1
8.22
13.15
17.1
20.26
22.69
24.46
25.63
26.3
26.64
26.84
27.07
27.4
27.73
27.96
27.97
27.78
27.44
26.99
26.32
25.18
23.26
20.42
16.83
12.98
9.43
6.55
4.41
2.74
1.12
-0.76
-3.01
-5.52
-8.04
-10.39
-12.5
-14.43
-16.41
-18.81
-22.01
-26.34
-31.79
-37.9
-43.73
-48.03
-49.64
-47.85
-42.65
-34.72
-25.25
-15.46
-6.37
1.42
7.76
12.78
16.68
19.64
21.76
23.02
23.48
23.26
22.61
21.86
21.31
21.13
21.4
22.07
23.01
24.02
24.86
25.23
24.89
23.71
21.77
19.3
16.64
14.03
11.58
9.18
6.67
3.88
0.79
-2.5
-5.8
-8.91
-11.67
-14.03
-16.09
-18.13
-20.61
-24.01
-28.73
-34.76
-41.55
-48.01
-52.74
-54.45
-52.39
-46.62
-37.9
-27.55
-16.9
-7.01
1.52
8.54
14.2
18.73
22.3
24.98
26.78
27.72
27.97
27.77
27.46
27.3
27.39
27.64
27.87
27.89
27.64
27.18
26.63
25.97
25.1
23.78
21.84
19.24
16.11
12.77
9.6
6.87
4.73
3.09
1.63
-0.07
-2.37
-5.45
-9.17
-13.11
-16.79
-19.9
-22.45
-24.84
-27.67
-31.53
-36.65
-42.78
-49.07
-54.29
-57.05
-56.29
-51.63
-43.54
-33.27
-22.37
-12.26
-3.78
2.87
8.01
12.1
15.46
18.2
20.28
21.64
22.41
22.79
23.03
23.33
23.76
24.24
24.64
24.81
24.68
24.34
23.91
23.54
23.19
22.69
21.69
19.91
17.26
13.96
10.43
7.16
4.46
2.36
0.6
-1.24
-3.49
-6.29
-9.5
-12.88
-16.09
-18.91
-21.25
-23.21
-25.05
-27.12
-29.78
-33.27
-37.64
-42.53
-47.26
-50.82
-52.2
-50.64
-45.95
-38.54
-29.37
-19.6
-10.31
-2.25
4.28
9.33
13.15
16.02
18.1
19.44
20.07
20.1
19.76
19.37
19.23
19.48
20.05
20.73
21.33
21.75
21.99
22.09
22.0
21.54
20.49
18.76
16.43
13.81
11.24
8.98
7.09
5.39
3.59
1.4
-1.32
-4.54
-7.97
-11.28
-14.14
-16.44
-18.39
-20.41
-23.03
-26.71
-31.58
-37.41
-43.53
-48.98
-52.68
-53.62
-51.18
-45.35
-36.77
-26.59
-16.18
-6.66
1.33
7.71
12.78
16.93
20.35
22.99
24.67
25.33
25.13
24.51
23.96
23.88
24.33
25.15
26.02
26.7
27.11
27.29
27.34
27.24
26.88
26.08
24.7
22.68
20.11
17.23
14.31
11.61
9.28
7.3
5.45
3.43
0.87
-2.4
-6.32
-10.62
-14.9
-18.76
-22.0
-24.66
-27.07
-29.74
-33.22
-37.91
-43.83
-50.5
-56.91
-61.74
-63.68
-61.9
-56.26
-47.42
-36.61
-25.25
-14.55
-5.26
2.39
8.57
13.62
17.83
21.28
23.9
25.56
26.29
26.33
26.15
26.19
26.73
27.74
28.93
29.95
30.56
30.71
30.5
30.07
29.47
28.68
27.59
26.14
24.27
22.02
19.42
16.6
13.73
10.98
8.47
6.22
4.11
1.93
-0.5
-3.28
-6.33
-9.5
-12.56
-15.33
-17.74
-19.92
-22.16
-24.92
-28.62
-33.56
-39.65
-46.33
-52.63
-57.27
-59.1
-57.37
-51.95
-43.41
-32.83
-21.49
-10.55
-0.82
7.3
13.78
18.81
22.6
25.28
26.96
27.79
28.02
28.02
28.15
28.64
29.46
30.35
30.97
31.11
30.76
30.12
29.42
28.76
28.04
27.03
25.51
23.41
20.82
17.98
15.13
12.47
10.12
8.04
6.07
3.96
1.45
-1.56
-4.95
-8.41
-11.6
-14.36
-16.79
-19.26
-22.24
-26.1
-30.93
-36.5
-42.13
-46.88
-49.64
-49.41
-45.64
-38.53
-28.95
-18.31
-7.99
1.06
8.53
14.56
19.5
23.57
26.74
28.9
29.99
30.19
29.8
29.24
28.84
28.74
28.99
29.5
30.15
30.75
31.19
31.33
31.11
30.45
29.29
27.55
25.2
22.28
18.99
15.68
12.7
10.29
8.48
7.01
5.49
3.49
0.75
-2.76
-6.76
-10.83
-14.47
-17.33
-19.34
-20.77
-22.19
-24.32
-27.78
-32.88
-39.38
-46.45
-52.82
-57.05
-57.99
-55.05
-48.47
-39.17
-28.52
-17.93
-8.43
-0.58
5.66
10.62
14.76
18.37
21.54
24.19
26.26
27.73
28.73
29.42
29.88
30.09
29.95
29.41
28.58
27.67
26.95
26.51
26.25
25.86
24.98
23.4
21.08
18.18
14.95
11.69
8.68
6.13
4.11
2.53
1.12
-0.52
-2.66
-5.36
-8.44
-11.58
-14.5
-17.07
-19.43
-21.83
-24.57
-27.92
-32.08
-37.07
-42.55
-47.78
-51.64
-52.98
-51.01
-45.64
-37.6
-28.1
-18.44
-9.59
-1.96
4.4
9.69
14.02
17.42
19.77
21.01
21.25
20.78
20.04
19.53
19.65
20.57
22.18
24.16
26.07
27.51
28.25
28.21
27.42
25.99
23.98
21.45
18.5
15.32
12.14
9.25
6.84
4.88
3.17
1.39
-0.71
-3.18
-5.82
-8.34
-10.51
-12.32
-14.0
-15.97
-18.69
-22.45
-27.31
-32.88
-38.35
-42.58
-44.4
-42.95
-38.08
-30.42
-21.2
-11.8
-3.33
3.67
9.18
13.47
16.77
19.21
20.78
21.5
21.54
21.21
20.86
20.73
20.9
21.28
21.65
21.85
21.78
21.53
21.24
21.09
21.09
21.08
20.68
19.57
17.58
14.89
11.96
9.27
7.12
5.44
3.81
1.79
-0.89
-4.18
-7.71
-11.07
-13.99
-16.46
-18.69
-20.96
-23.55
-26.68
-30.51
-35.03
-40.0
-44.79
-48.42
-49.79
-48.06
-43.0
-35.15
-25.63
-15.77
-6.69
1.0
7.21
12.2
16.31
19.78
22.69
24.96
26.42
27.02
26.84
26.14
25.29
24.6
24.22
24.09
23.98
23.7
23.19
22.54
21.89
21.22
20.33
18.89
16.65
13.62
10.12
6.64
3.62
1.33
-0.32
-1.6
-2.96
-4.74
-7.1
-9.97
-12.99
-15.79
-18.03
-19.67
-20.97
-22.41
-24.57
-27.92
-32.57
-38.26
-44.26
-49.5
-52.83
-53.28
-50.36
-44.3
-35.94
-26.5
-17.2
-8.89
-1.9
3.81
8.46
12.18
15.0
16.86
17.83
18.17
18.28
18.56
19.24
20.26
21.39
22.32
22.84
22.94
22.74
22.4
22.01
21.5
20.72
19.51
17.81
15.68
13.34
11.02
8.86
6.93
5.19
3.48
1.68
-0.31
-2.54
-4.87
-7.15
-9.2
-11.0
-12.71
-14.66
-17.27
-20.84
-25.39
-30.59
-35.72
-39.88
-42.1
-41.62
-38.15
-31.94
-23.83
-14.99
-6.59
0.57
6.18
10.44
13.69
16.21
18.06
19.12
19.37
18.93
18.12
17.3
16.77
16.61
16.77
17.17
17.72
18.34
18.96
19.46
19.65
19.4
18.57
17.07
14.91
12.18
9.14
6.11
3.42
1.2
-0.66
-2.46
-4.52
-6.98
-9.75
-12.51
-15.01
-17.19
-19.24
-21.62
-24.8
-29.07
-34.46
-40.65
-46.97
-52.47
-56.12
-57.05
-54.81
-49.55
-42.03
-33.31
-24.49
-16.34
-9.15
-2.8
2.98
8.38
13.35
17.65
21.0
23.3
24.7
25.53
26.21
27.03
28.14
29.53
31.11
32.77
34.39
35.79
36.87
37.53
37.74
37.52
36.8
35.51
33.57
31.06
28.19
25.27
22.45
19.6
16.36
12.33
7.36
1.74
-3.97
-9.14
-13.39
-16.74
-19.53
-22.31
-25.6
-29.83
-35.17
-41.39
-47.75
-53.12
-56.18
-55.94
-52.04
-45.0
-35.94
-26.2
-16.92
-8.77
-1.94
3.69
8.35
12.22
15.37
17.88
19.78
21.14
22.07
22.72
23.24
23.71
24.1
24.34
24.32
24.02
23.51
22.96
22.42
21.84
20.93
19.39
17.04
14.02
10.72
7.7
5.33
3.71
2.56
1.43
-0.06
-2.1
-4.57
-7.23
-9.85
-12.39
-14.93
-17.74
-21.03
-25.01
-29.72
-34.97
-40.21
-44.63
-47.2
-47.06
-43.81
-37.69
-29.54
-20.52
-11.72
-3.84
2.86
8.48
13.23
17.29
20.72
23.45
25.37
26.45
26.81
26.7
26.48
26.46
26.75
27.27
27.78
28.09
28.1
27.87
27.52
27.07
26.39
25.24
23.43
20.95
18.03
15.08
12.44
10.28
8.51
6.82
4.81
2.17
-1.18
-5.08
-9.1
-12.78
-15.79
-18.09
-19.98
-22.01
-24.8
-28.78
-34.02
-40.21
-46.53
-51.91
-55.19
-55.45
-52.21
-45.7
-36.79
-26.73
-16.83
-7.98
-0.56
5.55
10.72
15.21
19.05
22.12
24.27
25.54
26.15
26.47
26.77
27.17
27.61
27.97
28.12
28.07
27.84
27.55
27.28
27.03
26.71
26.13
25.01
23.12
20.43
17.12
13.57
10.25
7.45
5.22
3.32
1.41
-0.84
-3.55
-6.6
-9.71
-12.59
-15.07
-17.16
-19.08
-21.18
-23.85
-27.35
-31.76
-36.82
-41.94
-46.22
-48.64
-48.36
-45.01
-38.81
-30.53
-21.29
-12.17
-3.98
2.92
8.56
13.12
16.8
19.68
21.7
22.88
23.3
23.26
23.11
23.21
23.69
24.49
25.4
26.22
26.81
27.12
27.14
26.76
25.84
24.22
21.95
19.25
16.48
13.99
11.98
10.42
9.08
7.64
5.83
3.51
0.69
-2.45
-5.63
-8.57
-11.12
-13.35
-15.57
-18.23
-21.76
-26.32
-31.71
-37.3
-42.2
-45.45
-46.22
-44.01
-38.78
-31.04
-21.73
-11.99
-2.88
4.88
11.04
15.74
19.31
22.01
23.91
25.03
25.46
25.44
25.37
25.6
26.24
27.13
27.95
28.38
28.32
27.84
27.16
26.47
25.85
25.26
24.57
23.57
22.07
19.96
17.3
14.29
11.23
8.4
5.9
3.57
1.13
-1.7
-4.92
-8.31
-11.52
-14.28
-16.59
-18.68
-20.96
-23.78
-27.38
-31.79
-36.76
-41.77
-46.03
-48.59
-48.61
-45.62
-39.76
-31.85
-23.02
-14.4
-6.73
-0.24
5.19
9.77
13.62
16.73
19.0
20.44
21.19
21.5
21.59
21.66
21.75
21.87
21.93
21.85
21.56
21.07
20.48
19.92
19.5
19.17
18.75
17.94
16.5
14.4
11.79
9.05
6.51
4.46
2.93
1.79
0.76
-0.5
-2.21
-4.45
-7.07
-9.71
-12.04
-13.86
-15.29
-16.73
-18.72
-21.64
-25.64
-30.44
-35.47
-39.92
-42.97
-43.88
-42.18
-37.82
-31.25
-23.32
-15.04
-7.39
-0.95
4.12
8.01
11.04
13.43
15.26
16.48
17.07
17.14
16.95
16.76
16.79
17.11
17.64
18.28
18.92
19.53
20.03
20.37
20.37
19.86
18.69
16.83
14.4
11.67
8.95
6.54
4.58
3.01
1.65
0.21
-1.55
-3.73
-6.27
-8.98
-11.62
-14.03
-16.15
-18.0
-19.81
-21.86
-24.45
-27.81
-31.86
-36.07
-39.51
-41.08
-39.93
-35.82
-29.29
-21.4
-13.37
-6.1
0.03
5.14
9.57
13.61
17.29
20.45
22.84
24.32
24.91
24.83
24.4
23.93
23.65
23.6
23.7
23.77
23.62
23.17
22.43
21.51
20.47
19.36
18.1
16.57
14.7
12.51
10.11
7.7
5.52
3.72
2.32
1.19
0.05
-1.36
-3.28
-5.73
-8.52
-11.35
-13.96
-16.22
-18.3
-20.53
-23.25
-26.7
-30.89
-35.62
-40.47
-44.84
-47.96
-49.0
-47.3
-42.66
-35.42
-26.59
-17.47
-9.29
-2.76
2.03
5.52
8.31
10.84
13.22
15.28
16.74
17.48
17.67
17.64
17.75
18.21
18.98
19.8
20.35
20.45
20.1
19.53
19.01
18.66
18.39
17.81
16.55
14.41
11.56
8.51
5.89
4.14
3.29
2.93
2.45
1.32
-0.65
-3.31
-6.26
-9.11
-11.62
-13.77
-15.79
-17.98
-20.67
-24.1
-28.3
-32.99
-37.51
-40.95
-42.36
-41.08
-36.96
-30.5
-22.65
-14.52
-7.01
-0.69
4.37
8.35
11.52
14.06
15.98
17.23
17.83
17.91
17.8
17.86
18.39
19.46
20.85
22.22
23.18
23.51
23.22
22.49
21.57
20.59
19.5
18.22
16.62
14.71
12.62
10.56
8.62
6.86
5.19
3.44
1.45
-0.92
-3.7
-6.79
-9.95
-12.9
-15.34
-17.16
-18.47
-19.68
-21.33
-23.97
-27.93
-33.16
-39.21
-45.17
-49.9
-52.27
-51.45
-47.24
-40.12
-31.18
-21.72
-12.9
-5.45
0.46
5.09
8.9
12.3
15.53
18.55
21.24
23.44
25.05
26.11
26.72
27.06
27.29
27.51
27.77
28.02
28.24
28.31
28.22
27.94
27.44
26.73
25.76
24.52
23.0
21.27
19.47
17.77
16.32
15.08
13.87
12.28
9.93
6.53
2.03
-3.3
-8.96
-14.36
-18.98
-22.55
-25.17
-27.13
-28.91
-30.97
-33.64
-37.09
-41.34
-46.13
-50.9
-54.77
-56.67
-55.66
-51.28
-43.82
-34.33
-24.25
-14.97
-7.35
-1.57
2.83
6.51
10.04
13.6
17.02
19.91
21.93
23.03
23.4
23.46
23.58
23.93
24.44
24.89
25.1
25.04
24.88
24.82
24.95
25.05
24.73
23.59
21.39
18.27
14.69
11.27
8.5
6.51
5.11
3.86
2.33
0.34
-2.07
-4.64
-7.12
-9.38
-11.42
-13.38
-15.45
-17.81
-20.69
-24.3
-28.67
-33.56
-38.33
-41.99
-43.51
-42.13
-37.68
-30.67
-22.08
-13.06
-4.57
2.78
8.81
13.64
17.46
20.43
22.65
24.11
24.81
24.88
24.58
24.28
24.3
24.78
25.66
26.7
27.61
28.19
28.4
28.26
27.79
26.93
25.52
23.5
20.93
18.02
15.03
12.21
9.68
7.42
5.4
3.5
1.61
-0.41
-2.69
-5.31
-8.2
-11.18
-14.01
-16.47
-18.5
-20.2
-21.85
-23.81
-26.47
-30.14
-34.97
-40.74
-46.79
-52.03
-55.24
-55.39
-52.05
-45.57
-36.93
-27.44
-18.27
-10.21
-3.51
1.99
6.64
10.75
14.46
17.69
20.31
22.19
23.37
24.06
24.56
25.17
26.0
26.98
27.9
28.58
28.94
29.02
28.93
28.72
28.28
27.39
25.83
23.44
20.29
16.64
12.91
9.58
6.99
5.2
4.03
3.0
1.62
-0.45
-3.22
-6.33
-9.32
-11.76
-13.55
-14.9
-16.27
-18.08
-20.63
-24.06
-28.33
-33.3
-38.62
-43.59
-47.23
-48.47
-46.54
-41.3
-33.4
-24.06
-14.64
-6.14
0.9
6.49
10.93
14.51
17.42
19.72
21.45
22.61
23.32
23.71
23.96
24.24
24.66
25.24
25.87
26.4
26.72
26.78
26.64
26.3
25.66
24.52
22.64
19.94
16.66
13.26
10.26
8.01
6.46
5.28
4.0
2.22
-0.18
-3.07
-6.16
-9.14
-11.78
-14.05
-16.06
-18.08
-20.51
-23.7
-27.82
-32.59
-37.31
-40.88
-42.21
-40.56
-35.8
-28.54
-19.86
-10.98
-2.87
3.97
9.5
13.99
17.72
20.89
23.48
25.38
26.51
26.87
26.67
26.23
25.87
25.84
26.13
26.61
27.04
27.23
27.11
26.73
26.18
25.52
24.66
23.47
21.8
19.65
17.17
14.63
12.32
10.43
8.96
7.78
6.57
5.01
2.83
-0.02
-3.31
-6.65
-9.6
-11.9
-13.68
-15.31
-17.32
-20.16
-24.01
-28.77
-34.07
-39.31
-43.72
-46.43
-46.63
-43.82
-38.07
-30.0
-20.74
-11.47
-3.16
3.69
9.03
13.1
16.22
18.57
20.22
21.13
21.29
20.8
19.91
18.97
18.32
18.12
18.35
18.77
19.13
19.26
19.17
19.02
18.93
18.86
18.57
17.68
15.96
13.45
10.53
7.74
5.56
4.16
3.38
2.81
2.05
0.85
-0.78
-2.65
-4.57
-6.43
-8.28
-10.26
-12.49
-15.07
-18.01
-21.29
-24.82
-28.37
-31.52
-33.68
-34.21
-32.59
-28.66
-22.73
-15.53
-7.98
-1.0
4.8
9.19
12.23
14.1
14.99
14.97
14.11
12.65
11.01
9.75
9.32
9.94
11.39
13.17
14.74
15.75
16.16
16.21
16.15
16.11
16.02
15.63
14.74
13.34
11.52
9.52
7.54
5.68
3.95
2.26
0.48
-1.56
-3.94
-6.66
-9.55
-12.36
-14.85
-16.88
-18.58
-20.28
-22.41
-25.3
-29.05
-33.41
-37.84
-41.53
-43.61
-43.24
-39.94
-33.81
-25.62
-16.57
-8.02
-0.94
4.31
8.02
10.77
13.09
15.16
16.86
17.97
18.38
18.29
18.03
17.92
18.11
18.52
18.96
19.28
19.39
19.32
19.1
18.74
18.16
17.31
16.14
14.6
12.71
10.55
8.19
5.81
3.55
1.59
0.05
-1.07
-1.95
-2.89
-4.3
-6.51
-9.55
-13.13
-16.68
-19.56
-21.43
-22.37
-22.9
-23.7
-25.3
-27.91
-31.32
-35.11
-38.62
-41.12
-41.89
-40.32
-36.07
-29.41
-21.13
-12.46
-4.67
1.43
5.62
8.3
10.11
11.59
13.0
14.26
15.21
15.77
16.03
16.15
16.32
16.57
16.89
17.21
17.48
17.73
17.98
18.27
18.5
18.53
18.19
17.35
15.94
14.02
11.8
9.54
7.46
5.7
4.2
2.7
0.92
-1.3
-3.91
-6.7
-9.38
-11.72
-13.66
-15.28
-16.87
-18.74
-21.23
-24.5
-28.46
-32.71
-36.43
-38.72
-38.74
-36.09
-30.97
-24.09
-16.5
-9.18
-2.87
2.18
6.06
9.13
11.78
14.23
16.44
18.24
19.38
19.76
19.58
19.2
19.01
19.23
19.81
20.51
21.08
21.41
21.48
21.37
21.07
20.39
19.11
17.01
14.1
10.59
6.91
3.49
0.67
-1.43
-2.96
-4.25
-5.72
-7.67
-10.13
-12.87
-15.49
-17.64
-19.29
-20.68
-22.36
-24.86
-28.49
-33.17
-38.46
-43.62
-47.78
-50.1
-49.91
-46.92
-41.26
-33.61
-25.02
-16.64
-9.38
-3.66
0.65
4.04
7.03
9.92
12.65
14.98
16.64
17.56
17.92
18.01
18.16
18.55
19.19
19.97
20.68
21.17
21.35
21.24
20.92
20.43
19.71
18.62
17.0
14.81
12.2
9.53
7.21
5.47
4.33
3.49
2.57
1.21
-0.74
-3.26
-6.16
-9.22
-12.13
-14.71
-16.85
-18.69
-20.56
-23.02
-26.59
-31.53
-37.59
-44.04
-49.74
-53.49
-54.37
-52.01
-46.65
-39.12
-30.55
-22.06
-14.45
-8.08
-2.85
1.58
5.58
9.29
12.67
15.51
17.67
19.14
20.06
20.62
21.01
21.36
21.76
22.28
22.95
23.77
24.66
25.52
26.19
26.49
26.22
25.24
23.47
21.03
18.25
15.56
13.32
11.59
10.14
8.48
6.2
3.19
-0.36
-3.99
-7.27
-10.0
-12.27
-14.43
-16.96
-20.27
-24.67
-30.17
-36.41
-42.58
-47.51
-50.03
-49.25
-44.97
-37.7
-28.48
-18.56
-9.05
-0.65
6.33
11.93
16.32
19.71
22.24
23.98
25.04
25.56
25.77
25.97
26.39
27.15
28.2
29.34
30.35
31.15
31.71
32.08
32.19
31.91
30.98
29.24
26.69
23.54
20.23
17.21
14.83
13.19
12.12
11.2
9.94
7.92
4.98
1.31
-2.67
-6.43
-9.61
-12.21
-14.58
-17.36
-21.14
-26.27
-32.66
-39.74
-46.45
-51.54
-53.75
-52.27
-46.96
-38.47
-28.11
-17.46
-7.82
0.1
6.25
11.12
15.26
19.08
22.61
25.67
28.05
29.66
30.61
31.18
31.66
32.27
33.11
34.15
35.21
36.02
36.39
36.18
35.47
34.43
33.24
31.88
30.23
28.09
25.4
22.39
19.43
16.91
14.95
13.32
11.57
9.26
6.25
2.72
-0.92
-4.26
-7.14
-9.58
-11.75
-13.86
-16.14
-18.77
-22.07
-26.29
-31.61
-37.87
-44.41
-50.14
-53.7
-53.96
-50.37
-43.24
-33.67
-23.22
-13.35
-4.97
1.66
6.9
11.29
15.26
18.91
22.06
24.49
26.12
27.1
27.74
28.34
29.03
29.72
30.23
30.38
30.15
29.62
28.94
28.16
27.25
26.08
24.5
22.42
19.88
17.03
14.13
11.45
9.17
7.33
5.73
4.11
2.18
-0.15
-2.74
-5.29
-7.53
-9.34
-10.83
-12.31
-14.19
-16.82
-20.45
-25.08
-30.43
-35.83
-40.3
-42.76
-42.32
-38.6
-31.97
-23.43
-14.26
-5.69
1.54
7.2
11.46
14.64
17.0
18.64
19.57
19.84
19.64
19.26
19.0
19.05
19.4
19.85
20.15
20.09
19.69
19.11
18.57
18.24
18.09
17.89
17.34
16.21
14.48
12.27
9.91
7.66
5.75
4.23
2.99
1.8
0.38
-1.55
-4.04
-6.97
-10.0
-12.78
-15.11
-17.1
-19.07
-21.47
-24.63
-28.64
-33.34
-38.27
-42.79
-46.1
-47.37
-45.93
-41.52
-34.46
-25.66
-16.39
-7.82
-0.69
4.86
9.16
12.67
15.78
18.6
21.02
22.86
24.07
24.69
24.91
24.9
24.76
24.49
24.02
23.28
22.32
21.33
20.47
19.84
19.38
18.87
17.96
16.44
14.22
11.46
8.51
5.69
3.29
1.39
-0.12
-1.4
-2.67
-4.05
-5.67
-7.52
-9.55
-11.7
-13.84
-15.92
-17.9
-19.89
-22.06
-24.7
-28.03
-32.15
-36.89
-41.82
-46.21
-49.19
-49.9
-47.8
-42.76
-35.29
-26.36
-17.19
-8.89
-2.15
2.91
6.6
9.43
11.82
13.9
15.54
16.55
16.84
16.56
15.98
15.49
15.32
15.49
15.91
16.42
16.87
17.19
17.34
17.25
16.85
16.04
14.76
13.02
10.97
8.8
6.77
5.07
3.79
2.81
1.87
0.56
-1.43
-4.21
-7.59
-11.14
-14.35
-16.96
-19.01
-20.9
-23.17
-26.24
-30.21
-34.77
-39.17
-42.46
-43.67
-42.12
-37.62
-30.61
-22.03
-13.08
-4.89
1.87
7.05
10.89
13.83
16.2
18.06
19.32
19.92
19.89
19.53
19.17
19.11
19.39
19.87
20.28
20.41
20.17
19.65
19.0
18.36
17.71
16.93
15.82
14.21
12.1
9.64
7.16
5.0
3.37
2.2
1.16
-0.18
-2.18
-4.92
-8.16
-11.48
-14.45
-16.79
-18.51
-19.89
-21.36
-23.51
-26.74
-31.22
-36.64
-42.19
-46.72
-49.07
-48.46
-44.73
-38.35
-30.32
-21.77
-13.66
-6.57
-0.71
4.09
8.1
11.59
14.71
17.37
19.38
20.59
21.0
20.92
20.75
20.83
21.23
21.76
22.06
21.89
21.24
20.42
19.74
19.44
19.4
19.29
18.74
17.43
15.37
12.75
9.94
7.28
4.99
3.11
1.52
-0.03
-1.79
-3.9
-6.38
-9.04
-11.63
-13.93
-15.87
-17.56
-19.31
-21.49
-24.39
-28.22
-33.0
-38.52
-44.27
-49.35
-52.68
-53.22
-50.42
-44.37
-35.95
-26.45
-17.15
-8.91
-2.04
3.57
8.22
12.14
15.45
18.13
20.23
21.81
22.97
23.82
24.43
24.9
25.29
25.68
26.07
26.38
26.58
26.65
26.7
26.8
26.92
26.81
26.06
24.3
21.43
17.75
13.92
10.65
8.45
7.31
6.78
6.16
4.8
2.38
-1.01
-4.91
-8.81
-12.29
-15.14
-17.54
-19.82
-22.5
-25.99
-30.48
-35.82
-41.43
-46.38
-49.59
-50.15
-47.54
-41.87
-33.87
-24.64
-15.33
-6.85
0.36
6.26
11.07
15.03
18.23
20.64
22.24
23.06
23.34
23.42
23.65
24.24
25.24
26.48
27.72
28.74
29.39
29.64
29.51
29.09
28.44
27.56
26.4
24.89
22.95
20.6
17.97
15.28
12.76
10.59
8.75
7.08
5.3
3.16
0.53
-2.54
-5.93
-9.42
-12.82
-16.0
-18.93
-21.72
-24.59
-27.9
-32.0
-37.04
-42.85
-48.84
-53.98
-57.12
-57.19
-53.63
-46.56
-36.75
-25.49
-14.17
-3.95
4.56
11.32
16.66
21.09
24.99
28.53
31.67
34.28
36.25
37.54
38.12
38.07
37.5
36.6
35.6
34.77
34.19
33.83
33.52
33.01
32.15
30.88
29.22
27.17
24.68
21.66
18.11
14.18
10.21
6.61
3.71
1.55
-0.13
-1.77
-3.82
-6.52
-9.83
-13.45
-17.04
-20.26
-23.04
-25.46
-27.79
-30.38
-33.56
-37.59
-42.56
-48.34
-54.49
-60.26
-64.57
-66.35
-64.73
-59.42
-50.82
-40.05
-28.58
-17.85
-8.8
-1.68
3.88
8.51
12.79
16.97
20.96
24.58
27.68
30.32
32.63
34.73
36.58
38.03
38.93
39.22
38.96
38.28
37.32
36.15
34.81
33.34
31.77
30.12
28.29
26.19
23.76
21.06
18.28
15.64
13.27
11.11
8.99
6.6
3.8
0.57
-2.9
-6.33
-9.47
-12.2
-14.61
-16.97
-19.65
-23.03
-27.34
-32.56
-38.46
-44.49
-49.85
-53.59
-54.79
-52.8
-47.45
-39.19
-29.03
-18.29
-8.25
0.23
6.8
11.64
15.2
17.96
20.2
21.97
23.22
23.9
24.13
24.17
24.34
24.89
25.87
27.09
28.24
29.04
29.34
29.21
28.8
28.3
27.66
26.7
25.11
22.62
19.21
15.15
10.97
7.27
4.48
2.68
1.51
0.36
-1.33
-3.94
-7.4
-11.36
-15.34
-18.97
-22.15
-25.03
-27.93
-31.23
-35.26
-40.2
-46.04
-52.39
-58.5
-63.27
-65.49
-64.21
-59.07
-50.47
-39.49
-27.57
-16.06
-5.96
2.34
8.9
14.07
18.21
21.54
24.15
26.02
27.22
27.98
28.61
29.38
30.4
31.6
32.73
33.56
33.95
33.96
33.72
33.36
32.87
32.16
31.08
29.47
27.38
24.91
22.27
19.63
17.08
14.58
12.07
9.48
6.75
3.88
0.8
-2.55
-6.21
-10.14
-14.17
-18.07
-21.7
-25.12
-28.54
-32.34
-36.81
-42.16
-48.37
-55.19
-62.03
-67.93
-71.63
-71.9
-67.96
-59.9
-48.7
-35.97
-23.38
-12.14
-2.75
4.91
11.22
16.55
21.1
24.95
28.1
30.66
32.7
34.38
35.76
36.89
37.79
38.47
38.97
39.32
39.59
39.81
39.91
39.75
39.13
37.84
35.8
33.07
29.91
26.61
23.49
20.75
18.48
16.57
14.76
12.68
9.94
6.34
1.89
-3.03
-7.85
-12.03
-15.27
-17.66
-19.69
-22.0
-25.23
-29.78
-35.73
-42.73
-50.01
-56.43
-60.66
-61.5
-58.21
-50.86
-40.36
-28.21
-16.08
-5.27
3.56
10.46
15.89
20.4
24.29
27.59
30.16
31.89
32.83
33.25
33.47
33.74
34.16
34.73
35.34
35.92
36.45
36.91
37.26
37.4
37.18
36.4
34.84
32.33
28.82
24.53
19.97
15.73
12.35
9.96
8.26
6.59
4.34
1.16
-2.82
-7.17
-11.36
-15.08
-18.31
-21.29
-24.34
-27.75
-31.77
-36.56
-42.19
-48.43
-54.73
-60.04
-63.07
-62.59
-57.95
-49.35
-37.87
-25.18
-12.96
-2.43
5.9
12.24
17.11
21.01
24.19
26.64
28.29
29.2
29.7
30.22
31.13
32.48
34.07
35.53
36.53
36.93
36.85
36.49
36.06
35.67
35.26
34.68
33.71
32.13
29.8
26.73
23.08
19.17
15.4
12.06
9.24
6.76
4.3
1.54
-1.64
-5.14
-8.69
-11.99
-14.98
-17.71
-20.44
-23.48
-27.1
-31.47
-36.64
-42.49
-48.6
-54.2
-58.24
-59.58
-57.44
-51.66
-42.88
-32.35
-21.56
-11.71
-3.45
3.12
8.3
12.48
15.93
18.75
20.94
22.49
23.48
24.14
24.72
25.51
26.61
27.98
29.39
30.58
31.36
31.71
31.77
31.67
31.4
30.8
29.51
27.28
24.1
20.25
16.28
12.72
9.96
8.06
6.73
5.48
3.82
1.4
-1.76
-5.37
-8.93
-11.97
-14.29
-16.07
-17.8
-20.09
-23.45
-28.06
-33.71
-39.78
-45.28
-49.1
-50.18
-47.82
-41.98
-33.32
-23.13
-12.86
-3.68
3.76
9.49
13.91
17.49
20.46
22.77
24.27
24.87
24.67
23.98
23.15
22.47
22.02
21.85
21.93
22.24
22.72
23.22
23.55
23.45
22.79
21.53
19.78
17.65
15.26
12.69
10.03
7.48
5.21
3.37
1.91
0.59
-0.91
-2.87
-5.43
-8.55
-12.01
-15.51
-18.73
-21.43
-23.52
-25.14
-26.66
-28.57
-31.35
-35.25
-40.22
-45.81
-51.19
-55.34
-57.2
-55.95
-51.3
-43.57
-33.71
-23.07
-13.02
-4.58
1.86
6.49
9.9
12.79
15.63
18.55
21.39
23.82
25.62
26.69
27.21
27.38
27.41
27.38
27.33
27.22
27.02
26.75
26.38
25.9
25.19
24.12
22.56
20.48
17.98
15.31
12.79
10.64
8.89
7.42
5.94
4.28
2.33
0.2
-2.0
-4.25
-6.64
-9.31
-12.31
-15.55
-18.75
-21.7
-24.31
-26.66
-29.02
-31.6
-34.66
-38.34
-42.7
-47.5
-52.15
-55.69
-56.94
-55.0
-49.6
-41.38
-31.66
-22.02
-13.63
-6.94
-1.71
2.68
6.69
10.42
13.6
15.87
17.1
17.46
17.41
17.37
17.64
18.23
19.03
19.9
20.78
21.65
22.49
23.25
23.78
23.93
23.59
22.7
21.32
19.49
17.31
14.91
12.42
10.02
7.83
5.89
4.16
2.51
0.75
-1.26
-3.65
-6.45
-9.57
-12.81
-15.9
-18.65
-21.0
-23.15
-25.42
-28.26
-31.98
-36.74
-42.36
-48.35
-53.87
-57.82
-59.12
-57.0
-51.37
-42.91
-32.94
-22.95
-14.12
-6.97
-1.39
3.14
7.15
10.93
14.47
17.61
20.18
22.11
23.46
24.31
24.83
25.16
25.47
25.89
26.45
27.14
27.81
28.29
28.43
28.12
27.37
26.24
24.78
23.1
21.29
19.4
17.49
15.56
13.56
11.42
9.09
6.59
4.02
1.52
-0.84
-3.08
-5.35
-7.86
-10.81
-14.26
-18.11
-22.12
-26.04
-29.74
-33.28
-36.91
-41.07
-46.14
-52.28
-59.2
-66.0
-71.44
-74.14
-73.14
-68.14
-59.71
-49.05
-37.64
-26.8
-17.4
-9.66
-3.31
2.19
7.39
12.53
17.54
22.09
25.81
28.52
30.33
31.57
32.58
33.63
34.76
35.88
36.85
37.62
38.15
38.39
38.22
37.52
36.19
34.29
31.97
29.47
26.98
24.61
22.34
20.1
17.78
15.36
12.81
10.23
7.7
5.28
2.95
0.62
-1.89
-4.79
-8.19
-12.05
-16.18
-20.31
-24.2
-27.8
-31.33
-35.24
-39.99
-45.89
-52.87
-60.31
-67.18
-72.12
-73.85
-71.52
-64.98
-54.91
-42.65
-29.81
-17.82
-7.53
0.84
7.56
13.05
17.62
21.38
24.31
26.43
27.88
28.92
29.88
30.95
32.23
33.67
35.16
36.53
37.6
38.22
38.34
38.0
37.38
36.62
35.72
34.53
32.73
30.18
26.94
23.37
19.91
16.87
14.3
11.89
9.3
6.26
2.73
-1.17
-5.22
-9.28
-13.24
-17.06
-20.76
-24.46
-28.45
-33.13
-38.92
-45.92
-53.79
-61.58
-67.9
-71.29
-70.63
-65.49
-56.33
-44.36
-31.19
-18.36
-7.0
2.46
10.17
16.66
22.44
27.81
32.78
37.11
40.56
42.94
44.24
44.58
44.22
43.51
42.85
42.57
42.8
43.44
44.13
44.44
44.03
42.87
41.16
39.2
37.2
35.14
32.86
30.21
27.25
24.21
21.4
19.01
16.97
14.94
12.49
9.27
5.19
0.42
-4.75
-10.01
-15.15
-20.08
-24.83
-29.48
-34.24
-39.33
-45.02
-51.61
-59.24
-67.65
-76.12
-83.38
-87.88
-88.25
-83.74
-74.58
-61.96
-47.68
-33.53
-20.79
-9.89
-0.58
7.68
15.33
22.42
28.64
33.57
37.02
39.11
40.27
41.06
41.87
42.86
44.0
45.16
46.23
47.22
48.08
48.78
49.14
48.96
48.07
46.41
44.1
41.38
38.56
35.89
33.49
31.28
29.07
26.66
23.92
20.87
17.6
14.22
10.7
6.96
2.88
-1.51
-5.99
-10.25
-14.07
-17.42
-20.54
-23.81
-27.66
-32.38
-38.12
-44.77
-51.88
-58.64
-63.85
-66.1
-64.2
-57.65
-46.86
-33.23
-18.66
-5.0
6.55
15.63
22.59
28.08
32.64
36.49
39.53
41.6
42.64
42.83
42.55
42.24
42.24
42.67
43.47
44.4
45.23
45.78
45.95
45.7
44.94
43.52
41.27
38.1
34.13
29.64
25.1
20.87
17.16
14.02
11.31
8.84
6.38
3.62
0.21
-4.17
-9.63
-15.92
-22.43
-28.45
-33.47
-37.39
-40.65
-44.0
-48.14
-53.48
-59.94
-66.92
-73.39
-78.04
-79.58
-77.06
-70.17
-59.5
-46.38
-32.53
-19.59
-8.62
0.1
6.96
12.61
17.71
22.57
27.16
31.19
34.34
36.43
37.51
37.79
37.63
37.35
37.21
37.35
37.78
38.41
39.12
39.73
40.08
39.91
39.02
37.29
34.76
31.63
28.27
25.03
22.18
19.75
17.6
15.48
13.16
10.53
7.58
4.39
1.02
-2.46
-5.96
-9.41
-12.68
-15.71
-18.51
-21.19
-23.96
-27.12
-31.01
-35.94
-42.01
-48.96
-55.92
-61.57
-64.35
-63.08
-57.37
-47.91
-36.26
-24.33
-13.72
-5.31
0.93
5.58
9.43
13.06
16.72
20.34
23.6
26.17
27.84
28.64
28.83
28.84
28.99
29.43
30.05
30.54
30.67
30.38
29.81
29.18
28.59
27.96
27.01
25.43
23.16
20.33
17.3
14.47
12.13
10.35
8.98
7.69
6.1
3.9
0.99
-2.53
-6.38
-10.23
-13.84
-17.12
-20.12
-22.96
-25.85
-29.07
-32.87
-37.5
-42.88
-48.47
-53.29
-56.03
-55.6
-51.5
-44.06
-34.33
-23.73
-13.54
-4.58
2.86
8.82
13.49
17.01
19.43
20.78
21.22
21.02
20.6
20.35
20.55
21.27
22.27
23.18
23.66
23.5
22.79
21.79
20.79
19.86
18.97
17.8
16.1
13.8
10.98
7.94
4.98
2.3
-0.01
-2.0
-3.75
-5.35
-6.94
-8.63
-10.58
-12.88
-15.49
-18.28
-21.02
-23.6
-26.04
-28.54
-31.4
-34.9
-39.19
-44.28
-49.94
-55.7
-60.74
-63.97
-64.3
-61.05
-54.22
-44.63
-33.69
-22.87
-13.26
-5.3
1.16
6.57
11.33
15.59
19.27
22.21
24.3
