0
-25.68
-28.23
-30.68
-33.58
-37.49
-42.86
-49.74
-57.58
-65.18
-70.92
-73.21
-71.07
-64.47
-54.42
-42.52
-30.49
-19.61
-10.52
-3.26
2.54
7.35
11.62
15.67
19.72
23.84
27.92
31.72
34.9
37.15
38.33
38.5
37.97
37.19
36.57
36.38
36.67
37.24
37.75
37.89
37.43
36.31
34.65
32.64
30.48
28.39
26.46
24.73
23.07
21.3
19.18
16.58
13.52
10.2
6.9
3.79
0.85
-2.12
-5.41
-9.2
-13.48
-18.1
-22.78
-27.27
-31.36
-34.95
-38.16
-41.28
-44.88
-49.53
-55.57
-62.7
-69.82
-75.25
-77.28
-74.76
-67.66
-56.97
-44.41
-31.77
-20.42
-11.02
-3.6
2.19
6.86
10.95
14.85
18.84
22.99
27.11
30.88
33.89
35.8
36.5
36.15
35.14
33.99
33.21
33.09
33.64
34.62
35.64
36.33
36.45
35.93
34.83
33.24
31.23
28.86
26.24
23.46
20.66
17.89
15.16
12.4
9.51
6.41
3.06
-0.54
-4.43
-8.6
-12.95
-17.3
-21.47
-25.27
-28.73
-32.05
-35.59
-39.76
-44.89
-51.04
-57.86
-64.49
-69.65
-71.96
-70.33
-64.37
-54.68
-42.6
-29.87
-18.03
-8.01
-0.06
6.12
11.02
15.05
18.48
21.42
23.92
25.99
27.61
28.7
29.2
29.13
28.62
27.89
27.21
26.81
26.76
27.07
27.66
28.39
29.04
29.32
28.84
27.32
24.68
21.11
17.13
13.28
10.0
7.37
5.17
3.0
0.5
-2.49
-5.96
-9.74
-13.62
-17.39
-20.91
-24.15
-27.22
-30.47
-34.31
-39.16
-45.15
-51.99
-58.94
-64.89
-68.65
-69.19
-66.02
-59.27
-49.71
-38.57
-27.18
-16.61
-7.51
0.02
6.16
11.25
15.6
19.45
23.0
26.4
29.68
32.67
35.05
36.47
36.76
36.12
35.01
34.04
33.65
33.95
34.79
35.8
36.69
37.25
37.39
37.11
36.36
35.13
33.43
31.28
28.77
26.01
23.08
20.03
16.84
13.52
10.11
6.64
3.16
-0.35
-4.0
-7.93
-12.3
-17.12
-22.23
-27.35
-32.12
-36.34
-40.03
-43.51
-47.34
-52.16
-58.39
-65.96
-74.13
-81.5
-86.3
-86.95
-82.65
-73.69
-61.42
-47.77
-34.54
-22.97
-13.45
-5.71
0.78
6.5
11.82
16.96
22.08
27.31
32.63
37.77
42.29
45.68
47.68
48.34
48.09
47.53
47.23
47.5
48.33
49.44
50.37
50.66
49.99
48.2
45.44
42.02
38.35
34.84
31.67
28.77
25.93
22.79
19.2
15.21
11.12
7.32
4.11
1.48
-0.81
-3.16
-5.9
-9.19
-13.01
-17.18
-21.56
-26.09
-30.74
-35.52
-40.5
-45.83
-51.77
-58.72
-66.84
-75.86
-84.76
-91.88
-95.41
-93.97
-87.23
-76.08
-62.31
-47.9
-34.47
-22.87
-13.19
-5.08
1.94
8.25
14.18
19.9
25.53
31.04
36.22
40.76
44.33
46.74
48.09
48.7
49.0
49.39
50.13
51.2
52.42
53.46
53.92
53.51
52.09
49.75
46.72
43.32
39.82
36.38
33.0
29.58
25.98
22.13
18.05
13.9
9.88
6.1
2.53
-0.96
-4.59
-8.5
-12.73
-17.17
-21.67
-26.11
-30.43
-34.62
-38.76
-43.07
-47.91
-53.81
-61.15
-69.9
-79.22
-87.51
-92.74
-93.16
-88.02
-77.81
-64.13
-49.03
-34.31
-21.12
-9.89
-0.57
7.12
13.43
18.63
23.01
26.8
30.13
32.97
35.2
36.73
37.61
38.01
38.18
38.3
38.48
38.76
39.2
39.88
40.83
41.89
42.76
43.05
42.44
40.84
38.34
35.18
31.59
27.75
23.71
19.51
15.12
10.48
5.53
0.24
-5.33
-11.01
-16.54
-21.69
-26.35
-30.6
-34.69
-39.05
-44.15
-50.4
-57.9
-66.27
-74.45
-80.82
-83.61
-81.55
-74.34
-62.87
-48.92
-34.52
-21.31
-10.13
-1.01
6.51
13.02
18.98
24.57
29.79
34.46
38.34
41.19
42.88
43.48
43.23
42.54
41.82
41.38
41.32
41.66
42.29
43.1
43.92
44.56
44.74
44.23
42.87
40.63
37.69
34.26
30.65
27.12
23.79
20.7
17.61
14.2
10.09
5.01
-1.03
-7.72
-14.58
-21.13
-27.11
-32.54
-37.7
-43.04
-49.03
-56.15
-64.67
-74.46
-84.69
-93.83
-99.9
-101.12
-96.58
-86.61
-72.7
-56.93
-41.26
-27.01
-14.71
-4.33
4.47
12.08
18.92
25.33
31.54
37.59
43.22
48.03
51.57
53.69
54.57
54.66
54.52
54.55
54.92
55.6
56.4
57.1
57.54
57.57
57.1
56.03
54.24
51.67
48.28
44.18
39.62
34.92
30.32
25.92
21.65
17.28
12.63
7.61
2.31
-3.13
-8.55
-13.88
-19.06
-24.09
-28.98
-33.76
-38.66
-44.07
-50.53
-58.45
-67.79
-77.81
-86.99
-93.42
-95.31
-91.64
-82.51
-69.15
-53.41
-37.25
-22.15
-9.02
1.82
10.4
16.95
21.93
25.99
29.9
34.24
39.14
44.2
48.64
51.75
53.21
53.32
52.79
52.37
52.55
53.31
54.31
55.06
55.2
54.59
53.24
51.27
48.8
45.91
42.67
39.17
35.47
31.69
27.89
24.13
20.47
16.93
13.5
10.09
6.51
2.52
-2.04
-7.17
-12.71
-18.32
-23.74
-28.82
-33.67
-38.55
-43.79
-49.75
-56.66
-64.59
-73.19
-81.58
-88.31
-91.65
-90.24
-83.55
-72.29
-58.18
-43.37
-29.64
-17.91
-8.21
0.01
7.37
14.24
20.7
26.61
31.85
36.34
40.03
42.86
44.71
45.52
45.33
44.4
43.1
41.88
41.09
40.91
41.29
41.99
42.69
43.01
42.68
41.53
39.56
36.86
33.66
30.22
26.82
23.65
20.77
18.05
15.2
11.85
7.76
2.88
-2.55
-8.13
-13.42
-18.17
-22.38
-26.3
-30.37
-35.1
-40.98
-48.24
-56.63
-65.29
-72.71
-77.16
-77.2
-72.29
-62.96
-50.7
-37.35
-24.51
-13.09
-3.35
4.87
11.85
17.77
22.73
26.77
29.96
32.34
33.91
34.66
34.66
34.12
33.39
32.85
32.78
33.3
34.35
35.75
37.32
38.84
40.05
40.66
40.39
39.04
36.56
33.15
29.11
24.82
20.58
16.51
12.54
8.48
4.1
-0.8
-6.2
-11.91
-17.6
-22.93
-27.66
-31.78
-35.53
-39.35
-43.79
-49.36
-56.29
-64.37
-72.79
-80.22
-85.08
-86.02
-82.29
-74.12
-62.59
-49.3
-35.85
-23.43
-12.65
-3.58
4.01
10.5
16.28
21.72
27.04
32.28
37.23
41.49
44.62
46.41
46.95
46.64
46.02
45.55
45.49
45.87
46.52
47.21
47.7
47.74
47.11
45.7
43.47
40.5
36.93
32.89
28.49
23.85
19.14
14.58
10.32
6.37
2.61
-1.21
-5.27
-9.59
-14.04
-18.38
-22.44
-26.17
-29.67
-33.16
-36.85
-41.01
-45.91
-51.79
-58.72
-66.34
-73.77
-79.59
-82.31
-80.76
-74.61
-64.53
-51.93
-38.55
-25.89
-14.9
-5.82
1.58
7.8
13.33
18.51
23.51
28.29
32.72
36.58
39.67
41.81
42.94
43.09
42.42
41.26
40.07
39.29
39.32
40.24
41.81
43.56
44.88
45.3
44.6
42.87
40.48
37.86
35.33
32.94
30.58
27.96
24.85
21.2
17.16
13.03
9.1
5.52
2.24
-0.91
-4.14
-7.62
-11.39
-15.43
-19.67
-24.02
-28.34
-32.53
-36.49
-40.29
-44.18
-48.6
-54.01
-60.69
-68.45
-76.44
-83.16
-86.89
-86.22
-80.58
-70.5
-57.46
-43.37
-29.99
-18.42
-9.02
-1.58
4.4
9.44
13.92
18.15
22.3
26.4
30.3
33.69
36.21
37.61
37.87
37.28
36.29
35.41
35.02
35.33
36.35
37.9
39.59
40.98
41.56
41.0
39.28
36.7
33.82
31.14
28.92
27.06
25.19
22.9
19.97
16.48
12.73
9.05
5.64
2.47
-0.68
-4.09
-7.96
-12.33
-17.03
-21.78
-26.25
-30.26
-33.81
-37.12
-40.65
-44.95
-50.5
-57.43
-65.41
-73.45
-80.07
-83.61
-82.81
-77.17
-67.29
-54.67
-41.22
-28.69
-18.13
-9.79
-3.25
2.17
7.11
11.92
16.72
21.32
25.45
28.82
31.24
32.76
33.57
33.96
34.2
34.43
34.68
34.92
35.19
35.57
36.13
36.79
37.28
37.2
36.15
33.97
30.71
26.71
22.39
18.14
14.22
10.65
7.28
3.83
0.07
-4.21
-8.96
-14.05
-19.19
-24.06
-28.47
-32.32
-35.73
-39.03
-42.73
-47.39
-53.36
-60.57
-68.25
-75.09
-79.46
-79.93
-75.78
-67.29
-55.64
-42.52
-29.63
-18.14
-8.55
-0.76
5.68
11.26
16.35
21.14
25.73
30.15
34.3
37.99
40.92
42.83
43.6
43.42
42.74
42.1
41.96
42.5
43.6
44.87
45.88
46.24
45.72
44.25
41.97
39.16
36.15
33.28
30.68
28.29
25.82
22.98
19.62
15.84
11.96
8.27
4.89
1.71
-1.65
-5.54
-10.18
-15.51
-21.28
-27.1
-32.69
-37.9
-42.78
-47.54
-52.46
-57.91
-64.2
-71.48
-79.5
-87.5
-94.13
-97.79
-97.09
-91.33
-80.88
-67.14
-52.04
-37.46
-24.68
-14.15
-5.65
1.37
7.57
13.45
19.33
25.36
31.47
37.36
42.51
46.43
48.76
49.5
48.99
47.83
46.64
45.94
45.99
46.82
48.23
49.86
51.28
52.03
51.81
50.52
48.31
45.54
42.6
39.86
37.45
35.28
33.04
30.36
26.96
22.78
18.02
13.08
8.35
4.07
0.22
-3.39
-7.08
-11.06
-15.45
-20.15
-24.95
-29.62
-34.01
-38.16
-42.25
-46.61
-51.71
-57.95
-65.57
-74.4
-83.57
-91.64
-96.76
-97.22
-92.14
-81.78
-67.6
-51.73
-36.3
-22.75
-11.58
-2.5
5.11
11.87
18.1
23.97
29.53
34.77
39.64
43.93
47.37
49.68
50.75
50.75
50.06
49.17
48.55
48.5
49.11
50.22
51.53
52.59
53.01
52.54
51.13
48.95
46.29
43.43
40.55
37.68
34.74
31.58
28.08
24.15
19.84
15.41
11.18
7.42
4.25
1.46
-1.43
-4.91
-9.3
-14.56
-20.29
-25.9
-30.89
-34.99
-38.31
-41.25
-44.42
-48.51
-54.06
-61.31
-69.86
-78.64
-85.95
-89.91
-89.03
-82.81
-71.91
-57.97
-43.08
-29.07
-17.1
-7.51
0.01
6.09
11.35
16.25
21.0
25.6
29.92
33.73
36.78
38.91
40.08
40.44
40.29
39.95
39.73
39.8
40.2
40.82
41.46
41.94
42.1
41.83
41.03
39.64
37.6
34.93
31.75
28.33
24.94
21.78
18.85
15.94
12.7
8.81
4.18
-1.05
-6.56
-12.0
-17.14
-21.97
-26.62
-31.3
-36.28
-41.8
-48.1
-55.27
-63.07
-70.72
-76.92
-80.17
-79.22
-73.64
-63.96
-51.55
-38.11
-25.15
-13.58
-3.69
4.61
11.61
17.59
22.76
27.26
31.2
34.59
37.39
39.48
40.76
41.24
41.04
40.43
39.74
39.29
39.33
39.96
41.09
42.4
43.47
43.87
43.31
41.77
39.5
36.84
34.1
31.39
28.56
25.35
21.6
17.35
12.87
8.57
4.71
1.31
-1.9
-5.35
-9.3
-13.79
-18.57
-23.31
-27.76
-31.92
-35.99
-40.32
-45.3
-51.25
-58.33
-66.41
-74.91
-82.72
-88.29
-90.07
-87.01
-79.01
-67.06
-52.91
-38.54
-25.54
-14.71
-6.07
0.9
6.93
12.62
18.28
23.97
29.47
34.5
38.73
41.91
43.9
44.72
44.63
43.99
43.31
43.04
43.48
44.63
46.21
47.69
48.52
48.29
46.9
44.58
41.71
38.69
35.73
32.84
29.89
26.69
23.15
19.28
15.14
10.88
6.68
2.65
-1.12
-4.66
-8.11
-11.63
-15.31
-19.12
-22.88
-26.47
-29.91
-33.41
-37.29
-41.9
-47.51
-54.18
-61.67
-69.35
-76.12
-80.56
-81.24
-77.29
-68.78
-56.82
-43.24
-29.96
-18.37
-9.02
-1.7
4.23
9.41
14.3
19.12
23.89
28.51
32.81
36.51
39.39
41.28
42.21
42.35
41.95
41.26
40.51
39.87
39.47
39.36
39.49
39.66
39.57
38.88
37.4
35.09
32.17
28.92
25.63
22.51
19.59
16.86
14.24
11.63
8.9
5.89
2.46
-1.53
-6.07
-11.01
-16.04
-20.82
-25.05
-28.63
-31.63
-34.4
-37.39
-41.13
-46.01
-52.0
-58.53
-64.42
-68.12
-68.24
-64.04
-55.79
-44.67
-32.41
-20.68
-10.58
-2.51
3.73
8.63
12.65
16.14
19.29
22.19
24.78
26.95
28.54
29.41
29.57
29.19
28.57
28.04
27.83
28.05
28.69
29.64
30.75
31.73
32.24
31.89
30.42
27.84
24.49
20.91
17.61
14.88
12.62
10.49
8.01
4.92
1.21
-2.84
-6.88
-10.56
-13.75
-16.5
-19.05
-21.72
-24.94
-29.14
-34.61
-41.38
-48.96
-56.3
-62.0
-64.67
-63.39
-58.09
-49.54
-39.1
-28.27
-18.27
-9.77
-2.91
2.54
7.04
11.04
14.93
18.89
22.87
26.58
29.63
31.68
32.58
32.47
31.76
30.96
30.51
30.67
31.45
32.67
34.04
35.28
36.1
36.3
35.69
34.21
31.89
28.89
25.48
21.96
18.61
15.54
12.77
10.16
7.5
4.57
1.19
-2.72
-7.1
-11.75
-16.38
-20.7
-24.56
-27.96
-31.11
-34.33
-38.03
-42.6
-48.32
-55.15
-62.6
-69.58
-74.67
-76.48
-74.15
-67.65
-57.88
-46.24
-34.31
-23.35
-14.1
-6.72
-0.94
3.78
8.05
12.35
16.93
21.7
26.32
30.34
33.44
35.49
36.6
36.97
36.85
36.48
36.02
35.68
35.59
35.78
36.17
36.56
36.69
36.34
35.38
33.84
31.83
29.54
27.11
24.6
22.01
19.25
16.29
13.14
9.97
6.96
4.21
1.65
-0.99
-3.98
-7.51
-11.51
-15.69
-19.69
-23.25
-26.35
-29.15
-31.99
-35.32
-39.58
-45.11
-51.89
-59.41
-66.5
-71.61
-73.26
-70.57
-63.67
-53.56
-41.82
-30.01
-19.29
-10.16
-2.76
3.13
7.79
11.55
14.83
17.98
21.24
24.55
27.59
29.91
31.19
31.38
30.76
29.83
29.09
28.87
29.25
30.09
31.14
32.13
32.82
33.02
32.61
31.59
30.02
28.03
25.76
23.33
20.78
18.09
15.24
12.19
8.9
5.38
1.62
-2.34
-6.48
-10.69
-14.9
-18.99
-22.88
-26.55
-30.02
-33.44
-37.05
-41.15
-45.94
-51.36
-56.87
-61.47
-63.91
-63.09
-58.51
-50.45
-39.99
-28.58
-17.65
-8.14
-0.38
5.83
10.91
15.24
19.06
22.38
25.13
27.23
28.66
29.46
29.72
29.55
29.11
28.56
28.1
27.92
28.12
28.7
29.53
30.39
31.1
31.46
31.32
30.51
28.96
26.65
23.72
20.44
17.18
14.16
11.45
8.86
6.06
2.74
-1.25
-5.86
-10.85
-15.88
-20.61
-24.77
-28.29
-31.28
-34.07
-37.1
-40.88
-45.81
-52.04
-59.29
-66.7
-72.92
-76.37
-75.75
-70.51
-61.16
-49.16
-36.43
-24.69
-14.94
-7.3
-1.3
3.73
8.3
12.67
16.92
21.07
25.1
28.91
32.29
34.95
36.61
37.24
37.02
36.32
35.62
35.27
35.44
36.1
37.02
37.87
38.32
38.13
37.2
35.63
33.6
31.3
28.88
26.43
23.96
21.45
18.88
16.19
13.38
10.45
7.44
4.39
1.29
-1.98
-5.56
-9.58
-13.98
-18.52
-22.92
-26.94
-30.63
-34.28
-38.38
-43.45
-49.83
-57.56
-66.21
-74.83
-81.99
-86.12
-85.91
-80.88
-71.55
-59.32
-46.07
-33.42
-22.36
-13.14
-5.44
1.28
7.5
13.5
19.39
25.09
30.43
35.08
38.74
41.13
42.15
41.95
40.85
39.39
38.11
37.5
37.82
39.03
40.79
42.53
43.65
43.73
42.68
40.75
38.37
35.98
33.87
32.12
30.65
29.24
27.63
25.61
23.0
19.82
16.24
12.54
9.02
5.83
2.88
-0.1
-3.46
-7.43
-12.01
-16.94
-21.87
-26.43
-30.49
-34.16
-37.75
-41.7
-46.49
-52.47
-59.76
-67.98
-76.16
-82.84
-86.39
-85.55
-79.93
-70.18
-57.79
-44.5
-31.84
-20.68
-11.24
-3.31
3.49
9.51
15.01
20.16
25.01
29.48
33.36
36.35
38.23
38.96
38.75
38.0
37.21
36.82
37.1
38.07
39.5
41.0
42.16
42.67
42.4
41.41
39.87
37.97
35.87
33.69
31.51
29.37
27.18
24.79
22.02
18.81
15.27
11.64
8.18
4.91
1.69
-1.81
-5.77
-10.21
-14.92
-19.6
-24.01
-28.14
-32.16
-36.41
-41.24
-46.95
-53.55
-60.6
-67.15
-71.89
-73.48
-71.04
-64.49
-54.63
-42.82
-30.57
-19.1
-9.09
-0.69
6.27
12.11
17.1
21.45
25.24
28.47
31.09
33.05
34.36
35.06
35.27
35.14
34.92
34.87
35.3
36.34
37.92
39.67
41.04
41.53
40.88
39.18
36.76
34.07
31.39
28.76
26.06
23.12
19.9
16.53
13.26
10.27
7.62
5.15
2.62
-0.27
-3.66
-7.55
-11.78
-16.09
-20.32
-24.4
-28.39
-32.45
-36.78
-41.58
-47.07
-53.43
-60.61
-68.17
-75.12
-80.07
-81.55
-78.59
-71.14
-60.17
-47.31
-34.34
-22.59
-12.69
-4.58
2.15
7.98
13.29
18.3
23.09
27.66
31.88
35.56
38.48
40.48
41.61
42.08
42.21
42.32
42.62
43.21
44.09
45.13
46.14
46.91
47.21
46.9
45.95
44.4
42.38
40.03
37.47
34.77
31.94
28.91
25.6
21.89
17.82
13.5
9.23
5.26
1.74
-1.44
-4.54
-7.86
-11.57
-15.65
-19.91
-24.1
-28.05
-31.72
-35.23
-38.78
-42.69
-47.34
-53.07
-60.01
-67.88
-75.83
-82.48
-86.26
-85.89
-80.83
-71.52
-59.19
-45.51
-32.02
-19.83
-9.42
-0.8
6.33
12.32
17.54
22.34
26.95
31.47
35.79
39.66
42.71
44.61
45.17
44.49
42.93
41.05
39.44
38.58
38.65
39.49
40.7
41.75
42.19
41.77
40.5
38.57
36.31
34.05
32.02
30.26
28.64
26.88
24.67
21.81
18.26
14.18
9.87
5.63
1.66
-1.98
-5.41
-8.85
-12.48
-16.39
-20.53
-24.68
-28.6
-32.14
-35.35
-38.52
-42.08
-46.53
-52.22
-59.15
-66.83
-74.25
-79.97
-82.57
-80.96
-74.85
-64.87
-52.47
-39.41
-27.24
-16.89
-8.56
-1.9
3.66
8.59
13.22
17.61
21.7
25.34
28.31
30.46
31.73
32.26
32.35
32.35
32.57
33.09
33.84
34.71
35.64
36.61
37.59
38.36
38.52
37.67
35.58
32.39
28.54
24.56
20.9
17.7
14.84
12.05
9.01
5.48
1.37
-3.25
-8.11
-12.91
-17.35
-21.3
-24.79
-28.04
-31.31
-34.93
-39.29
-44.79
-51.67
-59.66
-67.87
-74.7
-78.32
-77.35
-71.4
-61.33
-48.87
-35.99
-24.22
-14.28
-6.18
0.5
6.27
11.54
16.5
21.25
25.75
29.87
33.35
35.92
37.41
37.83
37.4
36.51
35.58
35.01
35.01
35.6
36.61
37.74
38.59
38.86
38.41
37.27
35.63
33.68
31.58
29.33
26.89
24.19
21.21
18.04
14.79
11.52
8.18
4.61
0.63
-3.89
-8.92
-14.23
-19.52
-24.55
-29.23
-33.68
-38.2
-43.15
-48.85
-55.54
-63.33
-72.07
-81.2
-89.67
-96.0
-98.62
-96.41
-89.12
-77.62
-63.6
-49.05
-35.59
-24.02
-14.37
-6.11
1.39
8.58
15.58
22.32
28.64
34.38
39.34
43.32
46.13
47.75
48.35
48.32
48.16
48.34
49.08
50.38
51.97
53.5
54.57
54.87
54.28
52.89
50.93
48.7
46.44
44.16
41.66
38.67
34.96
30.55
25.67
20.66
15.77
11.1
6.53
1.91
-2.9
-7.89
-13.03
-18.22
-23.46
-28.68
-33.82
-38.76
-43.43
-47.9
-52.54
-57.92
-64.6
-72.78
-81.98
-90.91
-97.74
-100.63
-98.32
-90.62
-78.44
-63.5
-47.73
-32.74
-19.45
-8.16
1.3
9.25
16.05
22.0
27.42
32.57
37.58
42.32
46.47
49.6
51.41
51.91
51.52
50.84
50.53
50.96
52.21
53.97
55.8
57.21
57.82
57.5
56.35
54.58
52.46
50.19
47.77
45.12
42.04
38.4
34.21
29.58
24.71
19.72
14.62
9.32
3.73
-2.18
-8.34
-14.53
-20.51
-26.02
-30.98
-35.4
-39.54
-43.88
-49.04
-55.56
-63.62
-72.82
-82.01
-89.53
-93.55
-92.7
-86.47
-75.39
-60.91
-44.87
-29.04
-14.66
-2.35
7.79
15.99
22.54
27.76
31.93
35.33
38.24
40.84
43.16
45.07
46.32
46.8
46.57
45.94
45.35
45.22
45.79
47.05
48.71
50.33
51.36
51.33
49.87
46.91
42.65
37.57
32.29
27.32
22.93
19.02
15.22
11.08
6.34
0.99
-4.69
-10.35
-15.7
-20.65
-25.36
-30.12
-35.33
-41.37
-48.54
-56.77
-65.53
-73.65
-79.53
-81.53
-78.52
-70.32
-57.85
-42.84
-27.22
-12.62
-0.05
10.08
17.8
23.39
27.29
30.02
32.11
34.0
35.85
37.61
39.07
40.06
40.58
40.82
41.07
41.53
42.24
43.12
44.05
44.9
45.58
45.97
45.86
45.06
43.36
40.7
37.16
32.96
28.45
23.96
19.69
15.7
11.88
8.01
3.86
-0.7
-5.66
-10.89
-16.18
-21.31
-26.1
-30.54
-34.79
-39.17
-44.21
-50.41
-58.07
-67.08
-76.73
-85.72
-92.39
-95.15
-92.97
-85.71
-74.24
-60.1
-45.14
-30.92
-18.43
-7.99
0.57
7.75
14.1
20.08
25.98
31.85
37.49
42.54
46.59
49.33
50.72
50.96
50.48
49.76
49.16
48.89
48.96
49.24
49.51
49.49
48.94
47.7
45.7
43.02
39.82
36.35
32.81
29.4
26.19
23.17
20.25
17.3
14.1
10.41
6.01
0.84
-4.99
-11.13
-17.12
-22.59
-27.38
-31.6
-35.6
-39.86
-44.82
-50.84
-58.08
-66.26
-74.61
-81.76
-86.02
-85.92
-80.7
-70.76
-57.5
-42.89
-28.82
-16.49
-6.31
2.02
9.07
15.42
21.42
27.14
32.48
37.2
41.0
43.64
44.99
45.13
44.28
42.84
41.24
39.88
39.02
38.84
39.29
40.17
41.15
41.83
41.87
41.12
39.61
37.55
35.13
32.53
29.8
26.93
23.94
20.86
17.73
14.54
11.23
7.63
3.64
-0.75
-5.45
-10.26
-15.0
-19.51
-23.75
-27.79
-31.82
-36.16
-41.25
-47.45
-54.85
-63.0
-70.77
-76.56
-78.8
-76.39
-69.29
-58.48
-45.75
-32.97
-21.62
-12.35
-5.02
0.97
6.27
11.38
16.42
21.35
25.97
30.12
33.62
36.32
38.07
38.78
38.5
37.42
35.95
34.54
33.58
33.32
33.73
34.57
35.42
35.77
35.12
33.16
29.87
25.53
20.76
16.25
12.57
9.9
7.98
6.23
3.95
0.72
-3.49
-8.28
-13.07
-17.34
-20.89
-23.86
-26.66
-29.87
-33.99
-39.28
-45.61
-52.42
-58.72
-63.28
-64.98
-63.05
-57.39
-48.62
-37.88
-26.49
-15.63
-6.1
1.79
8.12
13.21
17.42
21.07
24.27
27.01
29.15
30.57
31.19
31.05
30.34
29.3
28.2
27.26
26.58
26.2
26.09
26.2
26.5
26.91
27.28
27.33
26.78
25.4
23.15
20.27
17.16
14.26
11.83
9.76
7.71
5.18
1.82
-2.43
-7.33
-12.41
-17.23
-21.57
-25.46
-29.17
-33.05
-37.46
-42.65
-48.7
-55.45
-62.36
-68.48
-72.52
-73.24
-69.83
-62.35
-51.73
-39.57
-27.54
-16.88
-8.13
-1.15
4.59
9.59
14.19
18.5
22.47
26.02
29.02
31.33
32.78
33.29
32.9
31.92
30.85
30.19
30.21
30.9
31.97
32.99
33.64
33.74
33.3
32.37
30.98
29.14
26.83
24.11
21.1
17.96
14.88
11.95
9.2
6.56
3.93
1.17
-1.8
-5.02
-8.42
-11.88
-15.31
-18.64
-21.88
-25.13
-28.55
-32.38
-36.92
-42.42
-48.94
-56.14
-63.16
-68.72
-71.42
-70.21
-64.84
-55.99
-45.06
-33.68
-23.22
-14.35
-7.08
-1.01
4.38
9.41
14.19
18.59
22.46
25.67
28.17
30.0
31.23
31.95
32.22
32.09
31.67
31.07
30.48
30.08
29.97
30.08
30.17
29.87
28.88
27.06
24.48
21.43
18.22
15.09
12.19
9.55
7.09
4.68
2.16
-0.62
-3.74
-7.13
-10.58
-13.86
-16.79
-19.34
-21.66
-24.01
-26.68
-29.98
-34.19
-39.53
-45.97
-53.01
-59.61
-64.37
-65.94
-63.53
-57.26
-48.13
-37.65
-27.27
-17.97
-10.09
-3.48
2.2
7.23
11.73
15.63
18.82
21.21
22.78
23.66
24.03
24.08
23.95
23.69
23.36
23.03
22.85
22.95
23.38
23.99
24.5
24.6
24.01
22.64
20.6
18.12
15.53
13.12
11.01
9.13
7.21
4.85
1.72
-2.22
-6.75
-11.45
-15.91
-20.01
-23.96
-28.23
-33.38
-39.79
-47.4
-55.62
-63.37
-69.24
-71.92
-70.56
-65.12
-56.37
-45.69
-34.61
-24.32
-15.47
-8.08
-1.84
3.7
8.84
13.69
18.18
22.14
25.42
27.96
29.8
31.12
32.1
32.87
33.44
33.8
33.89
33.77
33.6
33.61
33.92
34.5
35.06
35.17
34.4
32.52
29.52
25.71
21.47
17.27
13.39
9.93
6.78
3.69
0.37
-3.33
-7.43
-11.75
-16.07
-20.16
-23.95
-27.5
-31.09
-35.05
-39.79
-45.56
-52.45
-60.14
-67.86
-74.36
-78.25
-78.37
-74.24
-66.29
-55.67
-43.89
-32.32
-21.84
-12.8
-5.18
1.29
6.93
12.1
17.12
22.22
27.45
32.52
36.97
40.34
42.42
43.31
43.38
43.08
42.77
42.68
42.92
43.52
44.39
45.33
46.0
46.02
45.1
43.2
40.55
37.53
34.47
31.5
28.55
25.43
22.04
18.51
15.05
11.87
8.97
6.1
2.89
-1.0
-5.65
-10.88
-16.32
-21.56
-26.34
-30.65
-34.76
-39.15
-44.38
-50.9
-58.76
-67.42
-75.69
-81.95
-84.6
-82.58
-75.74
-64.92
-51.7
-37.82
-24.78
-13.49
-4.21
3.27
9.36
14.56
19.3
23.9
28.54
33.14
37.37
40.78
42.98
43.85
43.62
42.86
42.18
42.02
42.45
43.24
43.98
44.34
44.22
43.67
42.83
41.7
40.15
38.03
35.25
31.97
28.47
25.06
21.92
19.03
16.21
13.22
9.87
6.01
1.6
-3.3
-8.5
-13.7
-18.55
-22.81
-26.47
-29.84
-33.5
-38.06
-44.02
-51.44
-59.9
-68.38
-75.42
-79.38
-78.93
-73.56
-63.8
-51.12
-37.47
-24.59
-13.53
-4.54
2.76
8.91
14.32
19.12
23.29
26.78
29.62
31.93
33.8
35.22
36.16
36.55
36.44
36.05
35.69
35.72
36.37
37.61
39.12
40.34
40.71
39.85
37.72
34.6
30.94
27.15
23.46
19.88
16.28
12.46
8.3
3.74
-1.21
-6.38
-11.56
-16.46
-20.89
-24.85
-28.61
-32.68
-37.68
-44.04
-51.78
-60.36
-68.63
-75.07
-78.19
-76.91
-70.97
-61.05
-48.56
-35.18
-22.42
-11.2
-1.75
6.19
13.06
19.18
24.68
29.52
33.63
37.0
39.66
41.61
42.81
43.17
42.71
41.59
40.15
38.82
37.93
37.59
37.69
37.98
38.19
38.08
37.52
36.42
34.76
32.56
29.9
26.92
23.8
20.65
17.52
14.28
10.69
6.52
1.6
-4.04
-10.2
-16.49
-22.53
-28.08
-33.02
-37.46
-41.69
-46.1
-51.1
-57.04
-63.96
-71.44
-78.41
-83.36
-84.74
-81.49
-73.55
-61.91
-48.32
-34.68
-22.46
-12.36
-4.37
2.02
7.42
12.37
17.23
22.22
27.39
32.61
37.59
41.95
45.27
47.34
48.14
47.95
47.22
46.47
46.13
46.41
47.25
48.33
49.19
49.38
48.63
46.93
44.5
41.67
38.67
35.58
32.26
28.55
24.38
19.89
15.36
11.12
7.38
4.1
1.04
-2.12
-5.65
-9.65
-14.0
-18.52
-23.0
-27.3
-31.43
-35.57
-40.05
-45.29
-51.72
-59.52
-68.37
-77.31
-84.79
-89.03
-88.64
-83.09
-72.97
-59.85
-45.67
-32.16
-20.43
-10.77
-2.89
3.74
9.68
15.27
20.7
26.0
31.09
35.8
39.89
43.07
45.1
45.85
45.46
44.29
42.93
41.99
41.86
42.64
44.01
45.44
46.35
46.32
45.26
43.34
40.95
38.41
35.95
33.54
30.98
28.04
24.59
20.68
16.59
12.59
8.89
5.41
1.9
-1.97
-6.34
-11.09
-15.9
-20.4
-24.41
-27.96
-31.33
-34.85
-38.87
-43.7
-49.58
-56.59
-64.46
-72.34
-78.8
-82.15
-80.98
-74.77
-64.14
-50.72
-36.55
-23.42
-12.37
-3.63
3.15
8.55
13.13
17.23
21.02
24.48
27.51
29.93
31.6
32.47
32.67
32.41
31.99
31.72
31.83
32.42
33.5
34.91
36.37
37.54
38.12
37.92
36.88
35.07
32.63
29.7
26.46
23.11
19.89
16.9
14.11
11.29
8.15
4.41
0.01
-4.89
-10.01
-15.02
-19.68
-23.96
-27.96
-31.94
-36.27
-41.37
-47.54
-54.78
-62.55
-69.75
-74.9
-76.54
-73.79
-66.66
-56.08
-43.59
-30.83
-19.04
-8.83
-0.25
6.99
13.25
18.74
23.57
27.72
31.2
34.01
36.14
37.56
38.25
38.27
37.81
37.18
36.7
36.59
36.88
37.49
38.2
38.82
39.2
39.19
38.64
37.42
35.49
32.88
29.75
26.27
22.63
18.94
15.33
11.89
8.64
5.56
2.48
-0.82
-4.52
-8.65
-13.1
-17.63
-22.0
-26.11
-29.93
-33.56
-37.14
-40.92
-45.32
-50.78
-57.59
-65.54
-73.73
-80.64
-84.52
-84.01
-78.66
-69.13
-56.92
-43.88
-31.59
-21.0
-12.35
-5.38
0.44
5.64
10.64
15.61
20.57
25.32
29.62
33.18
35.84
37.6
38.58
39.03
39.24
39.51
40.04
40.96
42.19
43.54
44.64
45.13
44.78
43.56
41.61
39.19
36.51
33.7
30.73
27.58
24.26
20.84
17.41
14.06
10.77
7.45
3.99
0.26
-3.8
-8.21
-12.82
-17.44
-21.74
-25.5
-28.67
-31.44
-34.31
-37.89
-42.78
-49.3
-57.36
-66.31
-74.91
-81.52
-84.5
-82.72
-76.03
-65.33
-52.37
-39.16
-27.31
-17.58
-9.9
-3.63
1.95
7.43
13.01
18.63
24.02
28.9
33.0
36.17
38.4
39.75
40.38
40.49
40.28
40.0
39.85
39.97
40.38
40.84
41.07
40.73
39.66
37.91
35.7
33.21
30.57
27.76
24.8
21.74
18.71
15.8
12.91
9.8
6.14
1.78
-3.13
-8.21
-12.97
-17.13
-20.69
-23.98
-27.47
-31.66
-36.91
-43.46
-51.22
-59.69
-67.89
-74.37
-77.58
-76.41
-70.53
-60.66
-48.28
-35.23
-23.02
-12.5
-3.82
3.33
9.45
14.9
19.79
24.08
27.61
30.28
32.08
33.15
33.67
33.85
33.8
33.59
33.32
33.06
32.95
33.05
33.32
33.54
33.41
32.62
31.02
28.61
25.58
22.25
18.92
15.86
13.13
10.58
7.83
4.45
0.18
-4.91
-10.4
-15.68
-20.26
-23.98
-27.13
-30.31
-34.23
-39.41
-46.06
-53.92
-62.21
-69.68
-74.8
-76.13
-72.8
-64.88
-53.48
-40.36
-27.37
-15.9
-6.49
1.02
7.2
12.65
17.67
22.28
26.31
29.62
32.14
33.89
34.96
35.47
35.56
35.39
35.13
34.94
34.96
35.3
35.95
36.87
37.87
38.67
38.91
38.28
36.6
33.89
30.4
26.56
22.81
19.48
16.64
14.13
11.56
8.57
4.87
0.46
-4.5
-9.67
-14.73
-19.52
-24.04
-28.51
-33.24
-38.62
-45.01
-52.53
-60.94
-69.44
-76.71
-81.17
-81.52
-77.19
-68.61
-57.07
-44.31
-31.85
-20.64
-10.99
-2.74
4.44
10.8
16.51
21.67
26.42
30.84
34.92
38.48
41.3
43.17
44.08
44.23
44.01
43.77
43.83
44.29
45.12
46.16
47.17
47.86
48.0
47.48
46.29
44.52
42.31
39.68
36.69
33.37
29.82
26.23
22.78
19.52
16.29
12.82
8.79
4.0
-1.53
-7.6
-13.89
-20.09
-25.96
-31.4
-36.43
-41.25
-46.19
-51.71
-58.22
-65.83
-74.19
-82.26
-88.56
-91.5
-89.89
-83.4
-72.72
-59.33
-45.09
-31.59
-19.76
-9.82
-1.43
5.95
12.82
19.47
25.96
32.19
37.95
42.92
46.8
49.33
50.44
50.3
49.29
47.95
46.75
46.01
45.79
46.02
46.44
46.79
46.83
46.35
45.23
43.43
40.98
38.02
34.74
31.28
27.75
24.17
20.53
16.79
12.96
9.01
4.94
0.74
-3.59
-7.97
-12.26
-16.36
-20.22
-23.91
-27.62
-31.63
-36.28
-41.89
-48.7
-56.58
-64.93
-72.54
-77.79
-79.2
-75.94
-68.18
-57.09
-44.41
-31.78
-20.3
-10.34
-1.75
5.8
12.52
18.48
23.65
28.0
31.52
34.23
36.08
37.02
37.12
36.56
35.63
34.67
33.91
33.43
33.26
33.36
33.66
34.04
34.29
34.1
33.15
31.28
28.59
25.39
22.11
19.11
16.52
14.23
11.94
9.28
6.01
2.07
-2.39
-7.09
-11.73
-16.16
-20.39
-24.62
-29.09
-34.09
-39.87
-46.51
-53.82
-61.14
-67.34
-70.95
-70.72
-66.08
-57.48
-46.27
-34.28
-23.05
-13.45
-5.49
1.33
7.59
13.62
19.4
24.68
29.17
32.63
35.02
36.41
36.99
37.08
36.94
36.78
36.72
36.8
37.04
37.4
37.83
38.17
38.21
37.73
36.61
34.9
32.75
30.36
27.79
25.0
21.9
18.43
14.67
10.77
6.9
3.13
-0.55
-4.2
-7.88
-11.6
-15.33
-19.04
-22.69
-26.23
-29.7
-33.16
-36.75
-40.74
-45.44
-51.1
-57.73
-64.91
-71.72
-76.85
-78.86
-76.78
-70.41
-60.52
-48.58
-36.33
-25.14
-15.75
-8.18
-2.0
