0
-60.17
-68.25
-74.76
-77.97
-76.42
-69.42
-57.36
-41.6
-24.09
-6.79
8.8
21.86
32.11
39.56
44.35
46.67
46.85
45.43
43.17
40.9
39.27
38.55
38.58
38.94
39.22
39.18
38.96
38.85
39.08
39.65
40.24
40.29
39.22
36.74
32.92
28.17
23.09
18.13
13.51
9.15
4.8
0.22
-4.65
-9.7
-14.73
-19.51
-23.91
-27.92
-31.63
-35.26
-39.19
-43.88
-49.76
-56.92
-64.86
-72.41
-77.92
-79.7
-76.61
-68.41
-55.85
-40.45
-24.02
-8.22
5.7
17.1
25.74
31.71
35.17
36.36
35.58
33.27
29.99
26.39
23.07
20.43
18.65
17.69
17.39
17.64
18.29
19.21
20.19
20.94
21.13
20.49
18.88
16.32
12.93
8.96
4.62
0.1
-4.47
-9.0
-13.44
-17.69
-21.7
-25.4
-28.88
-32.34
-36.11
-40.56
-45.89
-51.91
-58.03
-63.24
-66.32
-66.14
-61.99
-53.81
-42.22
-28.44
-13.92
-0.03
12.18
22.13
29.57
34.49
36.95
37.1
35.26
31.94
27.9
23.91
20.63
18.42
17.28
17.02
17.3
17.82
18.39
18.9
19.32
19.61
19.67
19.33
18.3
16.31
13.19
9.03
4.15
-1.0
-6.05
-10.84
-15.49
-20.26
-25.47
-31.35
-38.04
-45.52
-53.45
-61.16
-67.58
-71.42
-71.53
-67.19
-58.43
-46.04
-31.35
-15.87
-1.0
12.18
22.95
30.95
36.07
38.41
38.27
36.1
32.5
28.16
23.79
19.95
17.03
15.18
14.31
14.23
14.73
15.6
16.66
17.69
18.45
18.62
17.92
16.11
13.09
8.94
3.92
-1.55
-6.99
-12.04
-16.6
-20.84
-25.22
-30.23
-36.29
-43.53
-51.57
-59.52
-66.03
-69.61
-68.97
-63.42
-53.15
-39.13
-22.96
-6.35
9.18
22.55
33.15
40.76
45.44
47.47
47.29
45.45
42.54
39.09
35.49
32.05
28.96
26.3
24.14
22.53
21.5
21.08
21.25
21.82
22.43
22.53
21.6
19.26
15.44
10.43
4.73
-1.09
-6.66
-11.83
-16.74
-21.71
-27.14
-33.45
-40.87
-49.25
-57.96
-65.86
-71.5
-73.53
-71.01
-63.77
-52.4
-38.1
-22.38
-6.72
7.57
19.58
28.75
34.89
38.11
38.73
37.24
34.16
30.03
25.39
20.74
16.55
13.14
10.71
9.28
8.7
8.73
9.06
9.36
9.25
8.46
6.78
4.15
0.71
-3.24
-7.36
-11.4
-15.27
-19.17
-23.44
-28.52
-34.7
-41.98
-49.87
-57.44
-63.4
-66.34
-65.11
-59.12
-48.58
-34.47
-18.34
-1.94
13.17
25.88
35.58
42.1
45.51
46.09
44.24
40.57
35.81
30.71
25.96
22.0
19.02
17.05
15.96
15.63
15.84
16.35
16.81
16.85
16.17
14.58
12.05
8.68
4.63
0.11
-4.76
-9.89
-15.34
-21.3
-28.06
-35.76
-44.28
-52.96
-60.57
-65.58
-66.49
-62.3
-52.9
-39.09
-22.4
-4.7
12.25
27.1
38.94
47.31
52.12
53.6
52.3
49.05
44.77
40.31
36.27
32.94
30.39
28.58
27.44
26.96
27.12
27.78
28.65
29.34
29.4
28.46
26.3
22.9
18.43
13.24
7.7
2.08
-3.53
-9.29
-15.56
-22.73
-30.98
-40.08
-49.14
-56.74
-61.22
-61.1
-55.62
-45.01
-30.47
-13.8
3.09
18.64
31.8
41.98
48.92
52.57
53.11
51.02
47.05
42.11
37.08
32.62
29.09
26.6
25.02
24.16
23.83
23.86
24.07
24.24
24.07
23.25
21.46
18.5
14.43
9.5
4.12
-1.3
-6.5
-11.48
-16.46
-21.81
-27.94
-35.13
-43.37
-52.19
-60.62
-67.28
-70.62
-69.42
-63.16
-52.19
-37.68
-21.36
-5.01
9.83
22.15
31.4
37.44
40.36
40.45
38.17
34.15
29.17
24.03
19.46
15.92
13.62
12.45
12.17
12.48
13.08
13.74
14.21
14.24
13.61
12.15
9.84
6.8
3.27
-0.54
-4.52
-8.79
-13.67
-19.51
-26.59
-34.81
-43.62
-51.99
-58.55
-61.92
-61.06
-55.54
-45.68
-32.49
-17.42
-2.04
12.26
24.43
33.82
40.15
43.44
43.98
42.27
38.95
34.73
30.24
25.98
22.33
19.5
17.59
16.6
16.44
16.9
17.67
18.36
18.52
17.74
15.73
12.42
8.0
2.93
-2.24
-7.07
-11.4
-15.46
-19.77
-24.89
-31.28
-39.0
-47.64
-56.22
-63.35
-67.43
-67.02
-61.28
-50.26
-34.96
-17.13
1.21
18.18
32.49
43.44
50.91
55.1
56.42
55.39
52.66
49.01
45.19
41.8
39.2
37.4
36.19
35.24
34.31
33.3
32.26
31.22
30.13
28.77
26.83
24.04
20.35
15.86
10.84
5.54
0.07
-5.63
-11.79
-18.69
-26.56
-35.33
-44.57
-53.35
-60.35
-64.17
-63.67
-58.4
-48.73
-35.8
-21.14
-6.31
7.47
19.33
28.75
35.41
39.12
39.9
37.99
33.92
28.5
22.62
17.14
12.71
9.65
8.02
7.61
8.05
8.89
9.67
10.01
9.58
8.2
5.83
2.52
-1.54
-6.1
-10.92
-15.79
-20.66
-25.66
-31.18
-37.6
-45.07
-53.19
-60.82
-66.35
-68.14
-65.16
-57.36
-45.68
-31.74
-17.23
-3.59
8.25
17.76
24.64
28.79
30.22
29.22
26.32
22.25
17.82
13.71
10.43
8.24
7.12
6.89
7.23
7.81
8.36
8.67
8.6
7.96
6.56
4.18
0.72
-3.86
-9.52
-16.26
-24.1
-33.05
-42.88
-52.97
-62.26
-69.33
-72.8
-71.67
-65.62
-55.15
-41.41
-25.97
-10.48
3.69
15.62
24.83
31.26
35.08
36.55
35.97
33.7
30.2
26.08
21.96
18.45
15.93
14.52
14.04
14.11
14.24
14.02
13.23
11.82
9.89
7.54
4.75
1.43
-2.54
-7.26
-12.72
-18.89
-25.76
-33.3
-41.25
-48.97
-55.29
-58.72
-57.9
-52.06
-41.4
-27.02
-10.63
5.93
21.17
34.11
44.28
51.54
55.91
57.47
56.34
52.91
47.81
41.94
36.36
31.93
29.1
27.84
27.66
27.9
27.99
27.53
26.35
24.41
21.75
18.48
14.75
10.78
6.72
2.56
-1.92
-7.17
-13.66
-21.64
-30.94
-40.76
-49.77
-56.27
-58.74
-56.23
-48.72
-37.12
-23.01
-8.11
6.01
18.25
27.9
34.56
38.1
38.58
36.35
32.03
26.42
20.4
14.8
10.25
7.16
5.56
5.12
5.28
5.38
4.97
3.87
2.2
0.2
-2.01
-4.44
-7.26
-10.69
-14.88
-19.92
-25.92
-32.94
-40.79
-48.93
-56.33
-61.56
-63.17
-60.1
-52.04
-39.63
-24.24
-7.73
8.06
21.72
32.47
40.09
44.74
46.67
46.16
43.55
39.3
34.13
28.85
24.19
20.58
18.1
16.54
15.55
14.82
14.11
13.24
12.05
10.42
8.25
5.53
2.19
-1.86
-6.76
-12.69
-19.78
-28.04
-37.31
-47.04
-56.25
-63.56
-67.34
-66.22
-59.52
-47.57
-31.69
-13.81
4.05
20.23
33.7
43.98
51.03
54.99
56.12
54.78
51.47
46.84
41.66
36.73
32.73
30.1
28.92
28.93
29.65
30.52
31.0
30.74
29.44
26.97
23.33
18.63
13.13
7.18
1.12
-4.91
-11.06
-17.74
-25.39
-34.16
-43.64
-52.67
-59.55
-62.48
-60.08
-51.9
-38.64
-21.98
-4.07
13.0
27.64
38.98
46.7
50.88
51.83
49.98
45.93
40.48
34.55
29.02
24.55
21.45
19.67
18.87
18.55
18.23
17.58
16.44
14.8
12.75
10.35
7.65
4.62
1.24
-2.47
-6.56
-11.15
-16.54
-23.02
-30.75
-39.46
-48.34
-56.11
-61.25
-62.4
-58.78
-50.39
-38.08
-23.35
-7.92
6.59
19.0
28.67
35.34
39.07
40.01
38.44
34.83
29.82
24.24
18.85
14.28
10.88
8.71
7.62
7.27
7.24
7.06
6.37
5.0
2.99
0.51
-2.31
-5.47
-9.16
-13.64
-19.14
-25.75
-33.43
-41.92
-50.68
-58.78
-64.89
-67.53
-65.52
-58.42
-46.79
-32.08
-16.17
-0.81
12.68
23.59
31.62
36.72
38.95
38.53
35.83
31.5
26.3
21.11
16.68
13.56
11.94
11.69
12.37
13.36
14.09
14.16
13.34
11.62
9.04
5.73
1.83
-2.42
-6.74
-10.91
-14.93
-19.12
-24.01
-30.07
-37.32
-45.0
-51.6
-55.21
-54.1
-47.41
-35.49
-19.83
-2.57
14.17
28.78
40.41
48.84
54.16
56.53
56.19
53.46
48.87
43.18
37.25
31.78
27.23
23.77
21.33
19.73
18.77
18.25
17.93
17.5
16.6
14.88
12.12
8.33
3.76
-1.21
-6.24
-11.24
-16.38
-22.06
-28.71
-36.55
-45.32
-54.17
-61.72
-66.35
-66.65
-61.81
-51.97
-38.23
-22.4
-6.47
7.87
19.57
28.23
33.89
36.76
37.0
34.78
30.42
24.52
17.89
11.47
5.99
1.89
-0.75
-2.11
-2.44
-2.01
-1.08
0.08
1.14
1.75
1.57
0.38
-1.91
-5.18
-9.22
-13.85
-18.97
-24.67
-31.13
-38.4
-46.08
-53.25
-58.51
-60.42
-57.92
-50.77
-39.64
-25.93
-11.31
2.7
14.97
24.82
31.96
36.29
37.83
36.7
33.27
28.15
22.21
16.37
11.48
8.03
6.13
5.49
5.58
5.83
5.75
5.04
3.61
1.52
-1.03
-3.85
-6.79
-9.86
-13.23
-17.23
-22.21
-28.52
-36.25
-45.05
-54.01
-61.65
-66.21
-66.11
-60.47
-49.48
-34.38
-17.13
0.2
15.86
28.74
38.32
44.58
47.67
47.98
46.0
42.35
37.75
32.93
28.51
24.97
22.55
21.27
20.9
21.1
21.44
21.51
21.03
19.87
17.97
15.38
12.21
8.61
4.72
0.58
-3.95
-9.19
-15.54
-23.3
-32.44
-42.31
-51.69
-58.93
-62.39
-60.86
-53.96
-42.32
-27.33
-10.86
5.34
19.85
31.8
40.74
46.49
49.12
48.85
46.16
41.74
36.37
30.85
25.79
21.58
18.46
16.45
15.44
15.17
15.26
15.28
14.86
13.78
12.0
9.59
6.66
3.3
-0.48
-4.72
-9.53
-15.12
-21.69
-29.35
-37.86
-46.51
-54.11
-59.19
-60.44
-57.03
-48.98
-37.13
-22.92
-8.04
5.92
17.77
26.77
32.59
35.22
34.88
31.98
27.15
21.17
14.9
9.16
4.6
1.58
0.12
-0.06
0.6
1.51
2.2
2.36
1.92
1.0
-0.22
-1.67
-3.5
-6.07
-9.84
-15.15
-22.05
-30.15
-38.58
-46.09
-51.24
-52.73
-49.75
-42.2
-30.76
-16.73
-1.68
12.93
25.91
36.37
43.72
47.53
47.73
44.59
38.9
31.78
24.49
18.07
13.15
9.83
7.82
6.65
5.81
4.92
3.82
2.49
1.02
-0.52
-2.1
-3.88
-6.13
-9.21
-13.48
-19.22
-26.5
-35.02
-43.94
-51.88
-57.12
-58.04
-53.62
-43.85
-29.77
-13.15
4.02
19.98
33.55
44.12
51.49
55.71
56.93
55.5
51.86
46.71
40.86
35.13
30.21
26.45
23.82
22.02
20.63
19.29
17.8
16.11
14.22
12.07
9.57
6.61
3.07
-1.15
-6.24
-12.45
-20.01
-28.82
-38.25
-47.09
-53.79
-56.84
-55.27
-48.88
-38.27
-24.63
-9.42
5.86
19.96
31.85
40.84
46.47
48.57
47.3
43.17
37.01
29.96
23.14
17.48
13.48
11.14
10.03
9.53
9.07
8.27
7.03
5.45
3.7
1.85
-0.25
-2.92
-6.54
-11.44
-17.75
-25.29
-33.57
-41.83
-49.13
-54.37
-56.55
-54.91
-49.21
-39.81
-27.68
-14.1
-0.41
12.18
22.76
30.62
35.29
36.62
34.84
30.6
24.89
18.82
13.32
8.99
6.04
4.32
3.52
3.23
3.1
2.85
2.31
1.39
0.04
-1.88
-4.58
-8.35
-13.45
-19.98
-27.72
-36.09
-44.15
-50.71
-54.48
-54.41
-49.96
-41.25
-29.15
-15.02
-0.4
13.34
25.17
34.36
40.46
43.23
42.66
39.12
33.34
26.4
19.45
13.5
9.16
6.51
5.21
4.66
4.24
3.57
2.57
1.38
0.2
-0.98
-2.42
-4.58
-8.01
-13.1
-19.98
-28.37
-37.54
-46.26
-52.94
-55.93
-54.0
-46.75
-34.78
-19.56
-2.95
13.31
27.89
39.93
48.96
54.68
56.99
56.03
52.29
46.57
39.87
33.17
27.24
22.56
19.23
17.04
15.61
14.48
13.33
12.02
10.54
8.91
7.07
4.78
1.71
-2.46
-7.99
-14.98
-23.32
-32.61
-42.04
-50.4
-56.23
-58.15
-55.26
-47.45
-35.45
-20.65
-4.7
10.84
24.69
35.9
43.79
47.95
48.26
45.04
39.11
31.71
24.23
17.86
13.24
10.38
8.75
7.65
6.55
5.23
3.77
2.34
1.02
-0.31
-1.92
-4.15
-7.3
-11.61
-17.27
-24.33
-32.57
-41.31
-49.39
-55.34
-57.75
-55.63
-48.72
-37.57
-23.37
-7.68
7.84
21.66
32.56
39.73
42.84
42.07
38.13
32.04
25.01
18.19
12.5
8.42
6.02
4.96
4.63
4.43
3.89
2.85
1.42
-0.12
-1.6
-3.08
-4.96
-7.92
-12.64
-19.54
-28.4
-38.26
-47.48
-54.15
-56.56
-53.68
-45.45
-32.68
-16.86
0.28
17.09
32.15
44.36
52.92
57.37
57.65
54.2
47.94
40.16
32.26
25.42
20.35
17.2
15.62
14.91
14.4
13.59
12.22
10.29
7.91
5.17
2.07
-1.53
-5.91
-11.37
-18.23
-26.53
-35.97
-45.69
-54.31
-60.07
-61.32
-56.95
-46.79
-31.75
-13.62
5.36
23.13
38.13
49.56
57.14
60.97
61.31
58.51
53.1
45.93
38.06
30.64
24.58
20.31
17.77
16.45
15.65
14.8
13.57
11.88
9.83
7.55
5.13
2.51
-0.44
-4.05
-8.66
-14.67
-22.31
-31.46
-41.39
-50.72
-57.61
-60.18
-57.1
-48.06
-33.96
-16.62
1.69
18.86
33.33
44.21
51.16
54.27
53.84
50.39
44.6
37.32
29.45
21.84
15.18
9.87
6.02
3.48
1.9
0.81
-0.28
-1.67
-3.5
-5.68
-8.06
-10.56
-13.27
-16.53
-20.81
-26.56
-33.98
-42.81
-52.24
-60.87
-66.98
-68.93
-65.65
-56.99
-43.8
-27.66
-10.5
5.94
20.3
31.74
39.75
44.11
44.83
42.27
37.14
30.44
23.32
16.75
11.38
7.48
4.98
3.6
2.96
2.76
2.7
2.56
2.19
1.49
0.41
-1.09
-3.12
-5.99
-10.18
-16.18
-24.15
-33.59
-43.24
-51.22
-55.56
-54.77
-48.37
-36.92
-21.88
-5.13
11.51
26.59
39.04
48.23
53.82
55.68
54.0
49.28
42.33
34.26
26.23
19.28
14.04
10.69
8.94
8.28
8.11
7.94
7.46
6.46
4.89
2.76
0.15
-2.86
-6.3
-10.38
-15.47
-21.93
-29.86
-38.77
-47.59
-54.73
-58.48
-57.52
-51.25
-40.02
-25.05
-8.05
9.06
24.6
37.35
46.58
52.02
53.72
52.0
47.41
40.76
33.04
25.31
18.47
13.09
9.3
6.88
5.35
4.25
3.22
2.12
0.9
-0.43
-1.93
-3.77
-6.2
-9.5
-13.89
-19.52
-26.41
-34.32
-42.69
-50.57
-56.67
-59.61
-58.24
-52.05
-41.41
-27.51
-12.05
3.19
16.72
27.55
35.14
39.35
40.32
38.38
34.11
28.23
21.56
14.87
8.85
3.95
0.4
-1.84
-3.06
-3.71
-4.28
-5.14
-6.41
-8.03
-9.85
-11.79
-13.95
-16.61
-20.14
-24.89
-31.08
-38.62
-46.98
-55.11
-61.48
-64.46
-62.72
-55.71
-43.84
-28.45
-11.36
5.55
20.75
33.16
42.19
47.63
49.54
48.28
44.43
38.73
32.07
25.29
19.16
14.22
10.75
8.69
7.7
7.22
6.68
5.65
3.94
1.59
-1.19
-4.2
-7.29
-10.5
-14.06
-18.38
-23.96
-31.19
-40.12
-50.25
-60.35
-68.63
-73.09
-72.1
-64.92
-51.98
-34.82
-15.65
3.3
20.23
34.05
44.37
51.26
54.99
55.89
54.34
50.84
46.02
40.57
35.16
30.35
26.53
23.88
22.38
21.84
21.87
22.03
21.92
21.23
19.83
17.68
14.79
11.18
6.86
1.83
-3.9
-10.41
-17.92
-26.56
-36.1
-45.67
-53.75
-58.45
-58.17
-52.15
-40.79
-25.54
-8.4
8.63
23.93
36.46
45.64
51.25
53.37
52.35
48.85
43.7
37.77
31.79
26.33
21.7
18.05
15.44
13.78
12.86
12.38
11.92
11.12
9.7
7.58
4.84
1.68
-1.72
-5.27
-9.08
-13.45
-18.82
-25.57
-33.77
-42.96
-51.99
-59.21
-62.89
-61.71
-55.17
-43.79
-28.91
-12.29
4.27
19.3
31.67
40.7
46.0
47.56
45.75
41.26
35.02
28.02
21.18
15.17
10.39
6.93
4.59
3.02
1.83
0.7
-0.55
-1.95
-3.49
-5.18
-7.04
-9.14
-11.57
-14.55
-18.41
-23.55
-30.13
-37.81
-45.53
-51.65
-54.45
-52.63
-45.85
-34.76
-20.73
-5.44
9.55
23.04
34.13
42.22
46.94
48.15
46.04
41.22
34.66
27.56
21.0
15.71
11.81
8.96
6.52
3.98
1.16
-1.73
-4.29
-6.26
-7.7
-8.97
-10.61
-13.14
-16.96
-22.26
-29.09
-37.15
-45.76
-53.75
-59.59
-61.75
-59.19
-51.64
-39.73
-24.8
-8.49
7.63
22.26
34.49
43.67
49.45
51.68
50.55
46.58
40.57
33.54
26.47
20.18
15.16
11.47
8.85
6.82
4.95
3.02
1.01
-0.92
-2.61
-4.06
-5.49
-7.33
-10.09
-14.32
-20.35
-28.16
-37.22
-46.36
-53.95
-58.22
-57.72
-51.79
-40.79
-25.98
-9.12
7.91
23.52
36.63
46.6
53.16
56.32
56.32
53.6
48.81
42.74
36.22
30.02
24.7
20.52
17.44
15.16
13.3
11.49
9.55
7.51
5.47
3.55
1.69
-0.38
-3.05
-6.74
-11.83
-18.46
-26.47
-35.4
-44.34
-52.03
-57.05
-58.12
-54.5
-46.22
-34.11
-19.54
-4.14
10.62
23.59
33.94
41.19
45.08
45.63
43.19
38.44
32.33
25.86
19.87
14.83
10.86
7.8
5.35
3.24
1.31
-0.48
-2.12
-3.61
-5.01
-6.51
-8.43
-11.16
-15.15
-20.72
-27.9
-36.26
-44.88
-52.42
-57.45
-58.76
-55.64
-48.11
-36.85
-23.02
-8.07
6.56
19.54
29.84
36.75
39.99
39.77
36.75
31.89
26.24
20.71
15.87
11.94
8.86
6.39
4.33
2.55
0.97
-0.46
-1.83
-3.24
-4.84
-6.8
-9.37
-12.92
-17.85
-24.42
-32.43
-41.12
-49.06
-54.57
-56.1
-52.76
-44.62
-32.62
-18.31
-3.34
10.86
23.23
33.07
39.91
43.42
43.53
40.5
35.08
28.39
21.7
16.09
12.16
9.89
8.78
8.17
7.52
6.64
5.66
4.89
4.59
4.69
4.77
4.1
1.79
-2.96
-10.51
-20.61
-32.2
-43.54
-52.54
-57.21
-56.2
-49.16
-36.81
-20.7
-2.82
14.91
30.91
44.15
54.04
60.32
62.98
62.25
58.69
53.19
46.88
40.8
35.68
31.77
28.8
26.28
23.75
21.01
18.07
15.13
12.32
9.66
6.97
3.98
0.33
-4.38
-10.5
-18.17
-27.11
-36.51
-44.97
-50.85
-52.68
-49.62
-41.72
-29.9
-15.62
-0.47
14.15
27.17
37.77
45.37
49.53
50.13
47.44
42.2
35.45
28.31
21.69
16.14
11.73
8.28
5.44
2.91
0.53
-1.75
-3.92
-5.95
-7.95
-10.13
-12.81
-16.37
-21.17
-27.37
-34.73
-42.56
-49.7
-54.78
-56.54
-54.19
-47.62
-37.42
-24.68
-10.71
3.17
15.8
26.24
33.76
37.95
38.72
36.49
32.06
26.47
20.72
15.53
11.15
7.49
4.28
1.33
-1.35
-3.61
-5.3
-6.39
-7.15
-8.0
-9.5
-12.2
-16.54
-22.68
-30.35
-38.77
-46.66
-52.52
-54.99
-53.17
-46.87
-36.58
-23.35
-8.51
6.51
20.35
31.9
40.35
45.28
46.67
44.9
40.67
34.93
28.65
22.66
17.48
13.24
9.76
6.76
4.06
1.7
-0.15
-1.39
-2.09
-2.56
-3.3
-4.85
-7.72
-12.26
-18.58
-26.3
-34.45
-41.51
-45.71
-45.54
-40.29
-30.24
-16.58
-1.05
14.57
28.82
40.67
49.51
55.07
57.32
56.49
53.11
47.94
41.89
35.8
30.28
25.59
21.6
17.97
14.31
10.44
6.5
2.84
-0.19
-2.43
-4.09
-5.72
-8.02
-11.66
-17.07
-24.31
-32.86
-41.7
-49.28
-53.92
-54.17
-49.31
-39.57
-26.06
-10.45
5.5
20.29
32.86
42.52
48.87
51.74
51.22
47.72
42.01
35.09
28.03
21.69
16.5
12.43
9.11
6.06
2.97
-0.16
-3.09
-5.5
-7.3
-8.73
-10.31
-12.67
-16.31
-21.46
-28.0
-35.44
-42.93
-49.35
-53.41
-53.99
-50.41
-42.68
-31.52
-18.17
-4.07
9.43
21.22
30.46
36.58
39.31
38.73
35.39
30.11
23.86
17.45
11.41
5.96
1.16
-3.03
-6.59
-9.48
-11.67
-13.19
-14.12
-14.71
-15.31
-16.46
-18.75
-22.73
-28.6
-36.0
-43.9
-50.75
-54.83
-54.74
-49.84
-40.4
-27.56
-12.94
1.8
15.26
26.52
34.98
40.38
42.63
41.83
38.39
32.98
26.48
19.78
13.57
8.15
3.45
-0.8
-4.83
-8.71
-12.28
-15.3
-17.62
-19.29
-20.67
-22.33
-24.91
-28.93
-34.55
-41.42
-48.6
-54.66
-57.99
-57.17
-51.45
-40.93
-26.59
-9.96
7.17
23.26
37.11
48.01
55.69
60.17
61.66
60.56
57.45
53.04
48.15
43.42
39.29
35.81
32.75
29.77
26.67
23.45
20.32
17.46
14.9
12.4
9.51
5.77
0.75
-5.76
-13.73
-22.73
-31.86
-39.85
-45.19
-46.57
-43.26
-35.33
-23.64
-9.58
5.29
19.49
31.79
41.23
47.21
49.52
48.39
44.45
38.67
32.09
25.68
20.05
15.49
11.9
8.99
6.41
3.99
1.71
-0.35
-2.13
-3.74
-5.52
-7.89
-11.3
-16.04
-22.15
-29.35
-37.02
-44.18
-49.61
-52.09
-50.73
-45.22
-35.93
-23.78
-10.06
3.89
16.79
27.5
35.1
39.0
39.07
35.71
29.84
22.67
15.34
8.74
3.33
-0.84
-3.98
-6.38
-8.27
-9.77
-10.9
-11.71
-12.36
-13.13
-14.41
-16.66
-20.22
-25.21
-31.31
-37.79
-43.45
-46.91
-46.96
-42.87
-34.64
-22.97
-9.13
5.37
19.08
30.78
39.6
45.01
46.86
45.39
41.24
35.32
28.61
22.0
16.03
10.94
6.63
2.91
-0.41
-3.37
-5.91
-7.92
-9.41
-10.56
-11.78
-13.69
-17.0
-22.25
-29.47
-37.97
-46.31
-52.57
-54.95
-52.26
-44.37
-32.13
-17.08
-0.96
14.73
28.86
40.66
49.57
55.16
57.25
56.0
52.02
46.32
40.04
34.14
29.11
25.04
21.65
18.62
15.8
13.2
10.97
9.18
7.73
6.34
4.54
1.81
-2.38
-8.37
-16.15
-25.11
-33.97
-41.03
-44.63
-43.63
-37.78
-27.71
-14.65
-0.03
14.76
28.55
40.29
49.09
54.28
55.59
53.26
48.11
41.29
34.01
27.22
21.43
16.73
12.9
9.6
6.62
3.91
1.5
-0.5
-2.17
-3.71
-5.49
-8.01
-11.74
-17.02
-23.92
-32.06
-40.5
-47.89
-52.66
-53.5
-49.76
-41.63
-30.11
-16.68
-2.96
9.65
20.08
27.65
31.94
32.88
30.74
26.15
20.03
13.41
7.15
1.8
-2.47
-5.78
-8.37
-10.42
-12.0
-13.09
-13.73
-14.06
-14.38
-15.15
-16.86
-19.99
-24.75
-30.96
-37.94
-44.52
-49.24
-50.73
-48.06
-41.04
-30.28
-16.94
-2.52
11.51
23.92
33.77
40.47
43.73
43.66
40.72
35.74
29.72
23.67
18.28
13.79
10.04
6.65
3.25
-0.26
-3.68
-6.65
-8.8
-10.08
-10.87
-11.98
-14.42
-19.0
-25.95
-34.61
-43.51
-50.72
-54.37
-53.27
-47.12
-36.57
-22.86
-7.52
7.94
22.18
34.13
42.95
48.18
49.78
48.16
44.13
38.69
32.82
27.27
22.45
18.41
15.02
12.08
9.47
7.22
5.43
4.17
3.36
2.73
1.83
0.07
-3.12
-8.22
-15.3
-23.84
-32.68
-40.14
-44.42
-44.14
-38.74
-28.69
-15.29
-0.21
14.88
28.67
40.25
49.06
54.76
57.22
56.58
53.22
47.85
41.35
34.67
28.59
23.56
19.65
16.57
13.84
11.06
8.06
4.96
2.11
-0.18
-1.92
-3.49
-5.65
-9.21
-14.8
-22.5
-31.71
-41.19
-49.24
-54.16
-54.59
-49.98
-40.59
-27.54
-12.38
3.19
17.65
29.86
39.01
44.68
46.69
45.24
40.87
34.47
27.14
19.9
13.53
8.36
4.34
1.11
-1.73
-4.4
-6.88
-9.02
-10.68
-11.89
-13.0
-14.52
-17.08
-21.15
-26.96
-34.3
-42.44
-50.13
-55.78
-57.83
-55.16
-47.52
-35.61
-20.86
-5.04
10.22
23.64
34.29
41.54
45.06
44.87
41.52
36.03
29.65
23.46
18.11
13.74
10.12
6.92
3.94
1.13
-1.44
-3.69
-5.65
-7.38
-9.08
-11.1
-13.92
-18.1
-24.02
-31.67
-40.42
-48.98
-55.66
-58.74
-56.97
-49.97
-38.35
-23.55
-7.39
8.36
22.33
33.58
41.52
45.82
46.35
43.4
37.68
30.43
23.04
16.65
11.88
8.65
6.4
4.48
2.38
-0.06
-2.7
-5.25
-7.48
-9.33
-11.04
-13.04
-16.0
-20.53
-27.03
-35.38
-44.8
-53.81
-60.5
-62.99
-59.96
-51.13
-37.35
-20.45
-2.54
14.39
28.98
40.53
48.81
53.8
55.58
54.37
50.65
45.28
39.25
33.56
28.86
25.37
22.89
21.01
19.27
17.4
15.31
13.1
10.94
8.9
6.89
4.59
1.58
-2.64
-8.46
-16.05
-25.24
-35.33
-45.11
-52.95
-57.07
-56.09
-49.44
-37.63
-22.11
-4.82
12.3
27.71
40.39
49.71
55.33
57.18
55.54
51.12
44.98
38.31
32.09
26.96
23.08
20.24
18.04
16.08
14.11
12.1
10.16
8.51
7.26
6.32
5.38
3.94
1.51
-2.31
-7.81
-15.0
-23.55
-32.59
-40.75
-46.34
-47.82
-44.35
-36.07
-24.12
-10.17
4.03
17.09
28.07
36.39
41.62
43.49
42.02
37.62
31.19
23.86
16.75
10.62
5.79
2.13
-0.7
-3.07
-5.16
-6.94
-8.32
-9.21
-9.75
-10.25
-11.22
-13.22
-16.68
-21.8
-28.45
-36.07
-43.69
-50.02
-53.7
-53.57
-49.08
-40.43
-28.52
-14.72
-0.54
12.75
24.19
33.19
39.35
42.45
42.45
39.53
34.14
26.96
18.78
10.35
2.26
-5.12
-11.62
-17.15
-21.67
-25.11
-27.4
-28.59
-28.94
-28.93
-29.24
-30.65
-33.77
-38.9
-45.73
-53.31
-60.1
-64.38
-64.61
-59.96
-50.55
-37.37
-21.92
-5.84
9.47
22.94
33.8
41.48
45.7
46.46
44.18
39.67
33.94
27.94
22.36
17.51
13.36
9.68
6.19
2.77
-0.54
-3.53
-5.97
-7.8
-9.24
-10.83
-13.29
-17.33
-23.34
-31.19
-40.12
-48.74
-55.35
-58.26
-56.25
-48.94
-36.87
-21.43
-4.42
12.39
27.59
40.21
49.73
55.89
58.63
58.12
54.84
49.56
43.26
36.92
31.27
26.62
22.93
19.85
17.0
14.14
11.25
8.5
6.14
4.25
2.67
0.99
-1.43
-5.23
-10.85
-18.29
-27.0
-35.79
-43.06
-47.15
-46.7
-41.13
-30.74
-16.68
-0.6
15.76
30.89
43.69
53.44
59.74
62.51
61.91
58.49
53.11
46.77
40.42
34.69
29.81
25.63
21.82
18.08
14.34
10.74
7.55
5.01
3.15
1.75
0.42
-1.4
-4.26
-8.61
-14.66
-22.27
-30.78
-39.05
-45.6
-48.93
-47.97
-42.4
-32.72
-20.12
-6.11
7.81
20.38
30.66
37.97
41.93
42.41
39.71
34.51
27.78
20.59
13.78
7.86
2.93
-1.16
-4.65
-7.68
-10.22
-12.21
-13.56
-14.37
-14.93
-15.69
-17.17
-19.82
-23.91
-29.4
-35.92
-42.69
-48.59
-52.36
-52.85
-49.29
-41.58
-30.34
-16.78
-2.47
11.0
22.26
30.39
34.97
36.11
34.31
30.39
25.27
19.75
14.41
9.52
5.1
1.06
-2.68
-6.11
-9.14
-11.64
-13.55
-14.96
-16.15
-17.58
-19.79
-23.32
-28.53
-35.38
-43.31
-51.18
-57.52
-60.76
-59.7
-53.81
-43.37
-29.4
-13.37
3.05
18.31
31.11
40.43
45.62
46.43
43.1
36.43
27.68
18.31
9.61
2.35
-3.24
-7.48
-10.82
-13.62
-16.01
-17.94
-19.37
-20.39
-21.31
-22.63
-24.93
-28.73
-34.26
-41.29
-48.94
-55.76
-60.03
-60.23
-55.49
-45.82
-32.06
-15.59
2.0
19.19
34.56
46.98
55.6
60.03
60.46
57.54
52.29
45.76
38.87
32.28
26.35
21.21
16.82
13.05
9.76
6.91
4.56
2.77
1.51
0.47
-0.93
-3.47
-7.91
-14.67
-23.57
-33.68
-43.39
-50.69
-53.71
-51.2
-42.89
-29.55
-12.77
5.56
23.59
39.84
53.21
63.01
68.8
70.51
68.45
63.36
56.33
48.58
41.22
34.97
30.06
26.26
23.09
20.09
17.03
14.01
11.33
9.24
7.75
6.5
4.94
2.4
-1.65
-7.52
-15.1
-23.84
-32.64
-40.05
-44.48
-44.71
-40.21
-31.35
-19.27
-5.53
8.29
20.86
31.2
38.61
42.71
43.39
40.93
35.96
29.42
22.28
15.38
9.27
4.17
0.03
-3.31
-6.04
-8.28
-10.12
-11.61
-12.86
-14.08
-15.62
-17.9
-21.34
-26.19
-32.45
-39.7
-47.0
-53.05
-56.4
-55.89
-50.95
-41.84
-29.52
-15.36
-0.82
12.8
24.41
33.12
38.3
39.69
37.53
32.6
26.08
19.14
12.63
6.94
2.08
-2.15
-5.93
-9.28
-12.2
-14.6
-16.52
-18.08
-19.5
-21.16
-23.52
-27.17
-32.49
-39.47
-47.42
-54.95
-60.3
-61.82
-58.45
-50.06
-37.45
-22.03
-5.46
10.67
25.06
36.69
44.8
49.0
49.29
46.17
40.55
33.59
26.37
19.68
13.88
8.96
4.73
0.97
-2.44
-5.49
-8.11
-10.26
-12.03
-13.67
-15.64
-18.6
-23.23
-29.94
-38.52
-47.93
-56.37
-61.72
-62.18
-56.85
-45.99
-30.88
-13.33
4.85
22.19
37.65
50.49
60.07
65.9
67.71
65.73
60.74
53.97
46.75
40.14
34.63
30.11
26.13
22.25
18.28
14.39
10.93
8.16
6.08
4.33
2.34
-0.55
-4.93
-11.18
-19.43
-29.29
-39.79
-49.39
-56.22
-58.58
-55.45
-46.84
-33.76
-17.92
-1.19
14.81
28.91
40.36
48.64
53.38
54.36
51.72
46.02
38.28
29.72
21.47
14.24
8.19
3.1
-1.44
-5.71
-9.8
-13.63
-17.09
-20.23
-23.26
-26.55
-30.49
-35.53
-42.08
-50.45
-60.61
-72.02
-83.49
-93.33
-99.75
-101.31
-97.33
-87.97
-74.1
-56.96
-37.9
-18.19
0.96
18.46
33.36
45.0
53.19
58.24
60.85
61.86
61.99
61.64
60.84
59.47
57.39
54.62
51.35
47.83
44.3
40.77
37.07
32.84
27.66
21.04
12.69
2.51
-9.07
-21.03
-31.8
-39.54
-42.63
-40.21
-32.4
-20.24
-5.35
10.54
25.91
39.61
50.75
58.66
62.86
63.15
59.81
53.61
45.74
37.5
29.97
23.67
18.59
14.32
10.4
6.61
3.05
-0.01
-2.32
-3.98
-5.39
-7.2
-10.04
-14.39
-20.47
-28.17
-37.07
-46.28
-54.39
-59.67
-60.45
-55.64
-45.09
-29.78
-11.44
7.91
26.47
42.89
56.28
66.05
71.84
73.54
71.41
66.17
58.94
51.02
43.57
37.36
32.57
28.91
25.85
22.86
19.63
16.2
12.82
9.79
7.2
4.9
2.44
-0.75
-5.19
-11.24
-18.99
-28.15
-37.94
-47.06
-53.79
-56.47
-53.9
-45.87
-33.17
-17.33
-0.21
16.51
31.56
43.99
53.11
58.44
59.77
57.33
51.89
44.52
36.46
28.72
21.98
16.5
12.23
8.91
6.25
3.99
1.98
0.15
-1.51
-3.09
-4.83
-7.09
-10.3
-14.8
-20.8
-28.23
-36.64
-45.17
-52.61
-57.57
-58.84
-55.74
-48.26
-37.13
-23.55
-8.86
5.61
18.64
29.15
36.23
39.36
38.53
34.33
27.9
20.52
13.29
6.93
1.73
-2.37
-5.57
-8.11
-10.16
-11.88
-13.35
-14.61
-15.72
-16.81
-18.19
-20.34
-23.84
-29.06
-35.89
-43.6
-50.79
-55.75
-56.93
-53.43
-45.25
-33.24
-18.81
-3.48
11.45
24.97
36.26
44.62
49.38
50.16
47.08
40.91
32.9
24.45
16.62
9.95
4.41
-0.34
-4.63
-8.57
-12.09
-15.07
-17.48
-19.53
-21.6
-24.24
-28.04
-33.47
-40.73
-49.48
-58.71
-66.82
-71.91
-72.32
-67.11
-56.34
-41.09
-23.07
-4.19
13.86
29.83
42.88
52.46
58.23
60.11
58.31
53.51
46.74
39.25
32.11
26.07
21.36
17.84
15.17
13.07
11.34
9.9
8.65
7.46
6.05
4.06
1.02
-3.53
-9.94
-18.19
-27.66
-37.1
-44.76
-48.88
-48.17
-42.19
-31.44
-17.14
-0.85
15.85
31.55
45.13
55.77
62.95
66.45
66.41
63.26
57.7
50.62
42.96
35.58
29.14
23.95
19.94
16.8
14.07
11.46
8.86
6.35
4.05
1.91
-0.32
-3.07
-6.88
-12.22
-19.28
-27.84
-37.15
-45.97
-52.83
-56.34
-55.53
-50.09
-40.43
-27.52
-12.65
2.75
17.39
30.08
39.86
46.03
48.2
46.48
41.45
34.15
25.84
17.75
10.77
5.28
1.16
-2.0
-4.61
-6.91
-8.9
-10.54
-11.84
-13.03
-14.44
-16.51
-19.62
-24.12
-30.15
-37.61
-45.91
-53.98
-60.33
-63.42
-62.11
-56.02
-45.6
-31.95
-16.49
-0.66
14.25
27.19
37.25
43.8
46.51
45.48
41.37
35.21
28.23
21.55
15.9
11.55
8.3
5.74
3.45
1.2
-0.99
-2.99
-4.73
-6.33
-8.13
-10.62
-14.34
-19.72
-26.93
-35.66
-45.04
-53.64
-59.7
-61.61
-58.39
