0
-32.01
-15.75
0.78
15.75
27.85
36.43
41.42
43.1
41.9
38.34
32.98
26.58
20.0
14.1
9.58
6.82
5.78
6.09
7.15
8.3
8.98
8.86
7.81
6.02
3.75
1.29
-1.22
-3.88
-6.99
-10.96
-16.14
-22.84
-31.05
-40.4
-49.95
-58.25
-63.5
-64.05
-58.97
-48.35
-33.41
-16.13
1.33
17.2
30.26
39.95
46.14
49.01
48.96
46.53
42.44
37.39
32.02
26.83
22.23
18.54
16.04
14.88
14.97
15.94
17.25
18.29
18.62
18.0
16.39
13.93
10.75
7.04
2.97
-1.36
-5.91
-10.81
-16.41
-23.03
-30.86
-39.53
-48.04
-54.81
-58.09
-56.57
-49.8
-38.45
-24.09
-8.75
5.66
17.8
26.96
32.98
36.0
36.24
33.96
29.53
23.52
16.78
10.27
4.96
1.47
0.0
0.28
1.72
3.63
5.38
6.53
6.81
6.08
4.34
1.71
-1.59
-5.31
-9.24
-13.35
-17.8
-22.97
-29.19
-36.53
-44.56
-52.2
-57.92
-60.1
-57.53
-49.79
-37.52
-22.24
-5.91
9.5
22.5
32.17
38.2
40.67
39.92
36.46
30.98
24.3
17.33
10.93
5.83
2.45
0.86
0.77
1.58
2.56
3.01
2.49
0.96
-1.29
-3.84
-6.34
-8.76
-11.41
-14.76
-19.27
-25.24
-32.68
-41.34
-50.58
-59.31
-66.02
-69.01
-66.9
-59.07
-46.11
-29.65
-11.94
4.84
19.1
30.06
37.51
41.64
42.74
41.15
37.35
32.06
26.21
20.71
16.33
13.48
12.2
12.27
13.26
14.74
16.26
17.48
18.09
17.86
16.61
14.27
10.88
6.68
1.96
-2.94
-7.89
-12.98
-18.57
-25.12
-32.77
-41.08
-48.86
-54.38
-55.83
-51.97
-42.58
-28.5
-11.5
6.3
22.9
36.83
47.22
53.77
56.64
56.27
53.3
48.49
42.68
36.7
31.24
26.81
23.62
21.61
20.52
20.06
19.98
20.13
20.33
20.35
19.83
18.43
15.99
12.58
8.5
4.06
-0.51
-5.21
-10.16
-15.58
-21.68
-28.66
-36.58
-45.19
-53.75
-60.89
-64.92
-64.27
-58.14
-46.83
-31.76
-15.02
1.3
15.54
26.71
34.43
38.71
39.77
38.0
33.99
28.46
22.23
16.08
10.65
6.32
3.29
1.6
1.15
1.71
2.97
4.5
5.84
6.56
6.41
5.31
3.38
0.85
-2.09
-5.34
-8.92
-13.01
-17.86
-23.68
-30.54
-38.09
-45.51
-51.52
-54.64
-53.63
-47.89
-37.69
-24.15
-8.88
6.41
20.21
31.45
39.48
44.02
45.15
43.31
39.22
33.75
27.79
22.1
17.18
13.32
10.66
9.2
8.83
9.32
10.33
11.42
12.13
11.97
10.62
7.98
4.22
-0.24
-4.93
-9.5
-13.88
-18.31
-23.26
-29.25
-36.61
-45.25
-54.54
-63.21
-69.56
-71.86
-68.81
-60.08
-46.42
-29.51
-11.46
5.76
20.7
32.54
40.91
45.79
47.33
45.91
42.17
37.01
31.44
26.35
22.37
19.76
18.43
18.13
18.54
19.42
20.62
22.0
23.38
24.44
24.74
23.82
21.39
17.4
12.21
6.42
0.69
-4.49
-8.97
-13.02
-17.17
-22.05
-28.15
-35.58
-43.92
-52.14
-58.65
-61.71
-59.91
-52.63
-40.32
-24.43
-6.96
10.04
25.0
37.04
45.88
51.58
54.3
54.25
51.71
47.21
41.51
35.63
30.54
26.94
25.07
24.64
25.1
25.84
26.48
26.9
27.17
27.34
27.28
26.7
25.2
22.46
18.41
13.26
7.42
1.42
-4.28
-9.42
-13.97
-18.13
-22.24
-26.69
-31.85
-37.89
-44.71
-51.74
-57.91
-61.85
-62.19
-57.99
-49.14
-36.44
-21.4
-5.83
8.6
20.71
29.8
35.64
38.33
38.17
35.61
31.25
25.79
19.95
14.45
9.91
6.75
5.17
5.03
5.98
7.51
9.09
10.31
10.9
10.7
9.6
7.54
4.55
0.8
-3.41
-7.73
-11.91
-15.92
-19.9
-24.19
-29.15
-35.01
-41.64
-48.5
-54.52
-58.32
-58.57
-54.4
-45.76
-33.47
-18.97
-3.9
10.3
22.67
32.63
39.86
44.18
45.5
43.93
39.83
33.86
26.9
19.84
13.49
8.4
4.87
2.88
2.19
2.39
3.05
3.76
4.16
4.0
3.05
1.21
-1.51
-4.95
-8.85
-12.98
-17.23
-21.74
-26.8
-32.8
-39.97
-48.16
-56.72
-64.43
-69.72
-71.02
-67.24
-58.15
-44.55
-28.08
-10.8
5.34
18.91
29.15
35.9
39.37
39.98
38.26
34.82
30.36
25.59
21.15
17.51
14.9
13.36
12.78
12.99
13.79
14.98
16.31
17.5
18.24
18.2
17.16
14.98
11.67
7.44
2.65
-2.3
-7.17
-11.99
-17.12
-23.12
-30.36
-38.73
-47.33
-54.62
-58.81
-58.44
-52.85
-42.44
-28.48
-12.77
2.87
16.93
28.43
36.93
42.4
45.06
45.2
43.2
39.5
34.66
29.39
24.45
20.49
17.88
16.63
16.5
17.18
18.37
19.86
21.38
22.54
22.83
21.79
19.18
15.11
10.01
4.47
-1.0
-6.1
-10.77
-15.24
-19.93
-25.34
-31.86
-39.43
-47.33
-54.22
-58.39
-58.3
-53.15
-43.1
-29.32
-13.63
1.97
15.74
26.45
33.46
36.69
36.47
33.41
28.28
21.91
15.12
8.73
3.42
-0.31
-2.26
-2.57
-1.59
0.17
2.22
4.14
5.63
6.45
6.47
5.66
4.05
1.8
-0.97
-4.18
-7.88
-12.24
-17.48
-23.73
-30.97
-38.84
-46.52
-52.79
-56.21
-55.5
-49.92
-39.64
-25.73
-9.93
5.85
20.0
31.47
39.79
44.9
46.96
46.27
43.26
38.59
33.1
27.65
22.97
19.46
17.23
16.14
15.99
16.57
17.71
19.18
20.63
21.6
21.64
20.41
17.84
14.18
9.87
5.44
1.25
-2.64
-6.51
-10.94
-16.54
-23.52
-31.37
-38.75
-43.73
-44.39
-39.43
-28.72
-13.32
4.86
23.72
41.46
56.92
69.59
79.48
86.9
92.16
95.43
96.53
94.95
90.07
81.55
69.66
55.39
40.26
25.85
13.33
3.28
-4.36
-10.04
-14.38
-18.03
-21.58
-25.51
-30.09
-35.33
-40.99
-46.62
-51.81
-56.31
-60.16
-63.71
-67.51
-72.12
-77.79
-84.19
-90.22
-94.25
-94.51
-89.67
-79.41
-64.52
-46.75
-28.21
-10.86
3.9
15.27
23.01
27.25
28.35
26.76
23.15
18.24
12.87
7.82
3.74
1.06
-0.04
0.35
1.94
4.38
7.23
10.07
12.49
14.09
14.52
13.61
11.4
8.17
4.32
0.24
-3.81
-7.78
-11.86
-16.41
-21.73
-27.96
-34.75
-41.28
-46.26
-48.27
-46.17
-39.5
-28.72
-15.08
-0.31
13.89
26.21
35.85
42.51
46.2
47.1
45.52
41.9
36.81
30.97
25.15
20.06
16.21
13.9
13.11
13.63
15.02
16.7
18.01
18.35
17.32
14.78
10.91
6.1
0.85
-4.41
-9.38
-14.0
-18.43
-23.04
-28.35
-34.85
-42.74
-51.61
-60.31
-67.11
-70.12
-67.94
-60.19
-47.62
-31.9
-15.02
1.18
15.38
26.86
35.33
40.74
43.21
42.99
40.6
36.73
32.25
27.95
24.39
21.82
20.21
19.41
19.24
19.66
20.67
22.14
23.8
25.13
25.49
24.39
21.65
17.49
12.43
7.1
1.99
-2.66
-6.98
-11.33
-16.27
-22.27
-29.53
-37.79
-46.18
-53.27
-57.4
-57.13
-51.71
-41.33
-27.17
-11.0
5.25
20.0
32.18
41.3
47.3
50.35
50.75
48.94
45.47
41.01
36.26
31.8
28.04
25.17
23.2
22.09
21.79
22.21
23.19
24.42
25.48
25.84
25.04
22.79
19.03
14.03
8.25
2.26
-3.44
-8.58
-13.22
-17.77
-22.82
-28.9
-36.19
-44.24
-51.99
-57.96
-60.61
-58.89
-52.51
-42.06
-28.79
-14.31
-0.16
12.4
22.52
29.71
33.78
34.83
33.18
29.4
24.18
18.3
12.5
7.45
3.66
1.47
0.91
1.78
3.6
5.75
7.61
8.76
9.01
8.39
7.04
5.1
2.61
-0.49
-4.31
-8.94
-14.37
-20.6
-27.5
-34.76
-41.8
-47.7
-51.29
-51.44
-47.4
-39.16
-27.53
-13.93
-0.03
12.66
23.11
30.86
35.83
38.21
38.2
36.07
32.14
26.9
21.02
15.25
10.36
6.9
5.13
4.89
5.71
6.94
7.89
8.1
7.31
5.53
2.93
-0.29
-3.96
-7.95
-12.23
-16.89
-22.07
-28.05
-35.04
-42.99
-51.34
-58.99
-64.45
-66.11
-62.9
-54.52
-41.7
-25.95
-9.19
6.72
20.39
31.05
38.44
42.69
44.1
43.07
40.13
35.93
31.22
26.72
23.02
20.46
19.12
18.88
19.55
20.87
22.51
24.09
25.2
25.45
24.61
22.65
19.69
15.95
11.65
6.93
1.84
-3.65
-9.66
-16.29
-23.61
-31.42
-39.1
-45.59
-49.46
-49.37
-44.46
-34.82
-21.51
-6.26
8.94
22.5
33.39
41.23
46.04
48.03
47.48
44.8
40.55
35.47
30.37
25.91
22.51
20.25
19.01
18.56
18.68
19.19
19.87
20.39
20.43
19.63
17.81
14.9
11.07
6.62
1.87
-2.87
-7.46
-11.98
-16.69
-22.02
-28.36
-35.85
-44.15
-52.36
-59.11
-62.81
-62.15
-56.51
-46.22
-32.51
-17.2
-2.18
11.04
21.57
29.09
33.69
35.57
34.99
32.3
28.01
22.83
17.61
13.08
9.74
7.73
6.95
7.2
8.23
9.78
11.47
12.85
13.43
12.83
10.94
7.93
4.17
-0.01
-4.43
-9.12
-14.23
-19.98
-26.46
-33.6
-40.96
-47.73
-52.74
-54.64
-52.35
-45.41
-34.26
-20.2
-5.04
9.41
21.72
31.03
37.04
39.82
39.68
37.14
32.84
27.52
21.93
16.72
12.36
9.13
7.12
6.28
6.42
7.28
8.43
9.45
9.89
9.4
7.77
5.06
1.49
-2.57
-6.77
-10.92
-15.04
-19.37
-24.3
-30.15
-37.03
-44.62
-52.14
-58.34
-61.78
-61.15
-55.69
-45.48
-31.49
-15.35
1.02
15.93
28.17
37.14
42.72
45.1
44.7
42.06
37.86
32.92
28.02
23.83
20.78
18.97
18.29
18.5
19.37
20.75
22.47
24.37
26.1
27.18
27.15
25.66
22.66
18.39
13.34
8.02
2.88
-1.89
-6.34
-10.77
-15.65
-21.44
-28.31
-35.94
-43.36
-49.13
-51.64
-49.73
-43.03
-32.14
-18.49
-3.82
10.21
22.31
31.72
38.11
41.43
41.9
39.91
36.05
31.09
25.85
21.09
17.32
14.77
13.36
12.78
12.65
12.72
12.89
13.22
13.75
14.39
14.77
14.41
12.85
9.9
5.75
0.84
-4.23
-9.04
-13.43
-17.57
-21.83
-26.61
-32.18
-38.55
-45.3
-51.57
-56.18
-57.85
-55.62
-49.13
-38.88
-26.03
-12.14
1.24
12.9
22.02
28.2
31.36
31.64
29.46
25.4
20.21
14.65
9.4
5.02
1.85
0.09
-0.27
0.57
2.21
4.12
5.82
6.92
7.21
6.56
4.96
2.41
-0.94
-4.85
-8.96
-13.0
-16.89
-20.88
-25.44
-30.99
-37.57
-44.65
-51.13
-55.58
-56.68
-53.55
-46.09
-34.94
-21.38
-7.03
6.55
18.11
26.82
32.35
34.73
34.27
31.52
27.18
22.03
16.84
12.2
8.43
5.65
3.8
2.81
2.64
3.24
4.37
5.64
6.49
6.41
5.09
2.57
-0.84
-4.67
-8.53
-12.16
-15.53
-18.76
-22.12
-26.03
-30.89
-37.01
-44.23
-51.85
-58.51
-62.53
-62.34
-57.13
-47.04
-33.26
-17.57
-1.86
12.36
24.16
33.11
39.14
42.36
42.96
41.26
37.76
33.13
28.14
23.52
19.84
17.39
16.14
15.89
16.32
17.19
18.35
19.69
21.05
22.11
22.43
21.58
19.32
15.76
11.33
6.58
2.05
-2.0
-5.58
-8.94
-12.49
-16.67
-21.84
-28.15
-35.41
-42.91
-49.52
-53.8
-54.42
-50.54
-42.12
-29.98
-15.61
-0.72
13.15
24.92
34.0
40.15
43.32
43.6
41.29
36.96
31.49
25.91
21.14
17.75
15.79
14.95
14.74
14.73
14.73
14.77
14.96
15.37
15.8
15.93
15.32
13.63
10.77
6.93
2.55
-1.9
-6.06
-9.84
-13.44
-17.28
-21.86
-27.55
-34.42
-42.08
-49.66
-55.9
-59.45
-59.2
-54.67
-46.09
-34.35
-20.77
-6.72
6.54
18.03
27.05
33.17
36.19
36.25
33.81
29.56
24.37
19.1
14.39
10.65
8.04
6.47
5.8
5.86
6.52
7.7
9.19
10.66
11.63
11.66
10.46
8.07
4.84
1.25
-2.29
-5.65
-9.02
-12.76
-17.3
-22.91
-29.66
-37.26
-45.01
-51.77
-56.14
-56.76
-52.78
-44.2
-31.98
-17.71
-3.18
10.11
21.19
29.58
35.13
37.83
37.86
35.59
31.69
27.0
22.34
18.3
15.11
12.77
11.13
10.12
9.71
9.89
10.51
11.27
11.78
11.65
10.63
8.66
5.8
2.16
-2.06
-6.66
-11.44
-16.25
-21.06
-25.99
-31.36
-37.49
-44.52
-52.18
-59.62
-65.47
-68.12
-66.22
-59.14
-47.3
-32.07
-15.39
0.81
15.11
26.71
35.37
41.07
43.87
43.9
41.51
37.39
32.47
27.72
23.84
21.15
19.56
18.82
18.66
18.96
19.66
20.72
21.99
23.22
24.02
24.01
22.85
20.43
16.83
12.4
7.63
2.94
-1.45
-5.63
-9.89
-14.67
-20.33
-27.06
-34.64
-42.41
-49.27
-53.78
-54.58
-50.81
-42.46
-30.38
-16.08
-1.25
12.69
24.75
34.42
41.46
45.71
47.13
45.9
42.5
37.75
32.58
27.8
23.87
20.89
18.71
17.16
16.21
15.96
16.48
17.66
19.05
20.07
20.12
18.85
16.2
12.4
7.82
2.89
-2.05
-6.74
-11.13
-15.36
-19.77
-24.84
-30.96
-38.25
-46.27
-54.06
-60.23
-63.31
-62.17
-56.35
-46.26
-33.03
-18.25
-3.57
9.61
20.37
28.25
33.13
35.14
34.58
31.91
27.67
22.5
17.06
11.91
7.54
4.31
2.4
1.84
2.45
3.88
5.66
7.29
8.41
8.75
8.21
6.78
4.52
1.48
-2.22
-6.43
-11.01
-15.94
-21.3
-27.27
-33.86
-40.71
-46.95
-51.27
-52.35
-49.22
-41.71
-30.52
-17.01
-2.86
10.43
21.71
30.34
36.05
38.87
38.97
36.69
32.55
27.21
21.41
15.9
11.29
7.93
5.95
5.2
5.39
6.16
7.09
7.81
7.93
7.19
5.41
2.63
-0.94
-4.95
-9.08
-13.13
-17.17
-21.55
-26.8
-33.36
-41.33
-50.19
-58.78
-65.48
-68.64
-67.01
-60.14
-48.55
-33.52
-16.85
-0.42
14.21
25.96
34.31
39.25
41.1
40.41
37.82
34.05
29.75
25.54
21.9
19.09
17.21
16.23
16.03
16.47
17.45
18.76
20.12
21.11
21.27
20.22
17.8
14.04
9.23
3.79
-1.82
-7.23
-12.3
-17.18
-22.26
-28.07
-34.94
-42.69
-50.45
-56.76
-59.9
-58.39
-51.65
-40.06
-24.94
-8.18
8.35
23.13
35.17
44.03
49.65
52.15
51.81
49.08
44.61
39.27
33.96
29.51
26.47
24.98
24.78
25.38
26.26
27.06
27.66
28.11
28.43
28.48
27.91
26.28
23.24
18.75
13.07
6.74
0.33
-5.71
-11.2
-16.23
-21.11
-26.27
-32.14
-38.97
-46.64
-54.49
-61.33
-65.71
-66.23
-62.04
-53.13
-40.29
-24.92
-8.63
7.07
21.01
32.35
40.6
45.51
47.15
45.88
42.3
37.22
31.53
26.02
21.34
17.91
15.91
15.33
15.96
17.5
19.6
21.84
23.76
24.87
24.76
23.18
20.09
15.79
10.71
5.38
0.24
-4.45
-8.68
-12.64
-16.78
-21.59
-27.46
-34.41
-42.01
-49.29
-54.95
-57.7
-56.59
-51.23
-41.94
-29.62
-15.57
-1.21
12.2
23.68
32.63
38.71
41.84
42.09
39.79
35.53
30.22
24.9
20.44
17.41
15.86
15.49
15.82
16.44
17.17
17.96
18.81
19.65
20.25
20.26
19.27
16.93
13.15
8.14
2.38
-3.43
-8.75
-13.33
-17.3
-21.09
-25.22
-30.11
-36.03
-42.99
-50.74
-58.6
-65.39
-69.6
-69.68
-64.66
-54.55
-40.43
-24.14
-7.73
7.14
19.44
28.79
35.23
38.98
40.33
39.65
37.39
34.1
30.41
26.92
24.13
22.39
21.84
22.39
23.81
25.76
27.86
29.78
31.28
32.16
32.3
31.61
30.02
27.49
23.99
19.6
14.51
9.02
3.45
-1.91
-6.85
-11.36
-15.54
-19.61
-23.87
-28.7
-34.44
-41.25
-48.92
-56.72
-63.44
-67.63
-67.99
-63.71
-54.74
-41.83
-26.37
-10.11
5.24
18.37
28.61
35.9
40.61
43.2
44.06
43.44
41.58
38.87
35.89
33.23
31.35
30.37
30.15
30.48
31.22
32.32
33.78
35.39
36.81
37.53
37.18
35.54
32.7
28.94
24.61
20.03
15.36
10.64
5.84
0.93
-4.05
-8.87
-13.31
-17.27
-20.82
-24.31
-28.23
-33.04
-38.94
-45.8
-53.06
-59.77
-64.74
-66.71
-64.67
-58.13
-47.38
-33.49
-18.09
-2.95
10.45
21.22
29.04
34.02
36.49
36.74
35.08
31.87
27.58
22.85
18.43
14.99
12.95
12.43
13.24
14.92
16.96
18.88
20.32
21.05
20.99
20.12
18.51
16.19
13.18
9.51
5.24
0.54
-4.31
-8.94
-13.08
-16.6
-19.67
-22.65
-25.92
-29.78
-34.31
-39.41
-44.79
-50.01
-54.37
-57.04
-57.07
-53.68
-46.61
-36.18
-23.4
-9.64
3.67
15.37
24.73
31.47
35.57
37.24
36.72
34.29
30.33
25.41
20.25
15.65
12.28
10.52
10.29
11.16
12.52
13.83
14.75
15.18
15.15
14.66
13.73
12.3
10.29
7.65
4.31
0.31
-4.24
-9.08
-13.91
-18.47
-22.71
-26.77
-30.99
-35.74
-41.29
-47.67
-54.58
-61.41
-67.15
-70.66
-70.76
-66.65
-58.2
-46.06
-31.53
-16.22
-1.63
11.13
21.45
29.11
34.11
36.58
36.77
35.09
32.11
28.52
24.95
21.87
19.58
18.24
17.92
18.62
20.2
22.32
24.55
26.37
27.42
27.59
26.93
25.57
23.59
20.94
17.59
13.55
9.0
4.2
-0.55
-5.06
-9.28
-13.25
-17.12
-21.11
-25.51
-30.59
-36.53
-43.2
-50.04
-56.07
-59.99
-60.55
-56.87
-48.79
-36.89
-22.46
-7.08
7.68
20.61
30.97
38.45
43.09
45.08
44.75
42.52
38.94
34.65
30.3
26.49
23.67
22.1
21.82
22.69
24.35
26.36
28.2
29.43
29.8
29.25
27.85
25.79
23.21
20.17
16.71
12.83
8.61
4.16
-0.38
-4.92
-9.4
-13.84
-18.25
-22.69
-27.27
-32.15
-37.57
-43.64
-50.19
-56.66
-62.06
-65.2
-64.98
-60.77
-52.59
-41.12
-27.6
-13.47
-0.06
11.64
21.08
28.09
32.67
34.9
34.84
32.64
28.69
23.69
18.59
14.29
11.42
10.11
10.09
10.85
11.95
13.12
14.3
15.45
16.46
17.08
16.98
15.9
13.77
10.72
7.01
2.97
-1.12
-5.09
-8.91
-12.64
-16.47
-20.63
-25.35
-30.77
-36.86
-43.26
-49.27
-53.87
-55.97
-54.67
-49.51
-40.67
-28.96
-15.59
-1.96
10.67
21.37
29.59
35.09
37.86
38.06
36.03
32.29
27.55
22.6
18.19
14.88
12.91
12.22
12.53
13.47
14.68
15.85
16.82
17.45
17.63
17.19
15.94
13.71
10.43
6.21
1.38
-3.68
-8.61
-13.26
-17.72
-22.21
-26.99
-32.27
-38.15
-44.6
-51.36
-57.91
-63.32
-66.49
-66.31
-62.03
-53.54
-41.43
-26.93
-11.54
3.26
16.33
26.9
34.61
39.46
41.65
41.59
39.73
36.55
32.55
28.29
24.38
21.4
19.78
19.67
20.87
22.91
25.23
27.3
28.78
29.49
29.33
28.26
26.26
23.46
20.07
16.36
12.51
8.55
4.37
-0.11
-4.9
-9.84
-14.71
-19.42
-24.06
-28.85
-34.11
-40.03
-46.6
-53.53
-60.12
-65.36
-68.05
-67.08
-61.8
-52.25
-39.29
-24.26
-8.75
5.82
18.43
28.47
35.7
40.16
42.11
41.92
40.11
37.22
33.78
30.34
27.42
25.46
24.76
25.35
26.98
29.2
31.51
33.5
34.95
35.77
35.94
35.42
34.13
32.05
29.24
25.86
22.12
18.17
14.07
9.74
5.18
0.46
-4.24
-8.74
-12.95
-16.94
-20.96
-25.34
-30.39
-36.23
-42.77
-49.53
-55.62
-59.85
-60.97
-58.09
-50.91
-39.93
-26.27
-11.38
3.28
16.51
27.41
35.45
40.4
42.39
41.82
39.32
35.62
31.39
27.23
23.61
20.89
19.34
19.01
19.73
21.18
22.95
24.7
26.15
27.09
27.36
26.81
25.4
23.2
20.38
17.14
13.62
9.85
5.76
1.35
-3.33
-8.09
-12.73
-17.1
-21.16
-25.04
-28.96
-33.24
-38.19
-43.95
-50.34
-56.73
-62.01
-64.9
-64.29
-59.63
-51.17
-39.78
-26.75
-13.42
-0.92
9.87
18.38
24.28
27.52
28.26
26.93
24.07
20.31
16.25
12.48
9.5
7.68
7.19
7.94
9.58
11.65
13.72
15.48
16.82
17.65
17.9
17.4
15.97
13.48
10.02
5.84
1.3
-3.19
-7.39
-11.28
-15.06
-19.06
-23.66
-29.15
-35.58
-42.66
-49.69
-55.65
-59.34
-59.67
-55.99
-48.31
-37.33
-24.27
-10.58
2.42
13.74
22.82
29.38
33.38
34.9
34.18
31.62
27.83
23.55
19.5
16.24
14.06
12.97
12.75
13.1
13.74
14.45
15.17
15.86
16.47
16.8
16.59
15.49
13.27
9.85
5.42
0.39
-4.77
-9.64
-14.05
-18.11
-22.11
-26.46
-31.52
-37.46
-44.23
-51.4
-58.21
-63.54
-66.13
-64.88
-59.21
-49.29
-36.11
-21.19
-6.15
7.65
19.35
28.56
35.14
39.11
40.58
39.82
37.39
34.03
30.55
27.59
25.52
24.41
24.15
24.57
25.5
26.74
28.09
29.31
30.23
30.69
30.61
29.89
28.36
25.81
22.14
17.39
11.88
6.09
0.5
-4.58
-9.07
-13.15
-17.12
-21.36
-26.22
-31.95
-38.51
-45.53
-52.16
-57.19
-59.33
-57.62
-51.68
-41.9
-29.35
-15.44
-1.58
11.03
21.61
29.68
35.07
37.8
38.08
36.33
33.15
29.24
25.33
21.96
19.49
18.05
17.55
17.82
18.66
19.87
21.24
22.54
23.48
23.78
23.17
21.49
18.7
14.96
10.5
5.62
0.63
-4.21
-8.75
-12.99
-17.02
-21.06
-25.41
-30.33
-35.95
-42.15
-48.35
-53.63
-56.85
-56.96
-53.33
-45.96
-35.51
-23.09
-9.97
2.67
13.87
22.9
29.26
32.68
33.2
31.21
27.44
22.86
18.4
14.78
12.33
11.02
10.59
10.74
11.25
12.0
12.92
13.88
14.6
14.72
13.91
12.01
9.08
5.44
1.47
-2.51
-6.39
-10.34
-14.69
-19.84
-26.07
-33.38
-41.46
-49.56
-56.65
-61.52
-63.09
-60.65
-54.06
-43.9
-31.29
-17.63
-4.29
7.67
17.65
25.33
30.62
33.49
34.07
32.68
29.89
26.4
22.9
19.92
17.67
16.27
15.71
16.01
17.16
19.0
21.16
23.12
24.37
24.46
23.23
20.68
16.97
12.38
7.33
2.27
-2.34
-6.32
-9.8
-13.33
-17.6
-23.17
-30.08
-37.75
-44.99
-50.32
-52.32
-50.07
-43.37
-32.79
-19.52
-5.12
8.9
21.33
31.45
38.96
43.88
46.38
46.67
45.08
42.04
38.17
34.12
30.53
27.81
26.08
25.24
25.03
25.22
25.61
26.11
26.6
26.89
26.67
25.54
23.22
19.58
14.8
9.29
3.57
-1.9
-6.91
-11.48
-15.93
-20.65
-26.03
-32.22
-39.11
-46.14
-52.41
-56.76
-58.09
-55.6
-49.12
-39.19
-26.9
-13.69
-0.93
10.26
19.21
25.61
29.39
30.65
29.64
26.76
22.61
17.94
13.48
9.82
7.26
5.83
5.42
5.84
6.86
8.21
9.53
10.4
10.51
9.7
8.06
5.82
3.21
0.38
-2.71
-6.12
-10.0
-14.45
-19.56
-25.37
-31.75
-38.23
-43.96
-47.81
-48.66
-45.75
-38.97
-28.9
-16.67
-3.71
8.55
18.96
26.78
31.76
34.07
34.17
32.6
29.86
26.28
22.17
17.91
13.97
10.87
9.03
8.55
9.21
10.51
11.88
12.79
12.91
12.08
10.3
7.67
4.37
0.63
-3.38
-7.53
-11.82
-16.39
-21.52
-27.49
-34.44
-42.2
-50.13
-57.08
-61.62
-62.34
-58.34
-49.54
-36.8
-21.66
-5.92
8.79
21.31
31.06
37.85
41.77
43.05
42.08
39.45
35.94
32.37
29.46
27.58
26.79
26.85
27.5
28.56
29.99
31.81
33.94
36.1
37.77
38.44
37.7
35.51
32.16
28.23
24.3
20.77
17.66
14.65
11.19
6.81
1.29
-5.08
-11.54
-16.98
-20.26
-20.45
-17.04
-10.0
0.24
12.95
27.29
42.46
57.86
73.07
87.57
100.42
110.02
114.23
110.97
98.99
78.6
51.82
21.91
-7.67
-34.07
-55.74
-72.25
-83.92
-91.31
-94.9
-95.19
-92.84
-88.8
-84.2
-80.08
-77.06
-75.24
-74.14
-73.12
-71.58
-69.32
-66.59
-63.97
-62.21
-61.88
-63.24
-66.07
-69.62
-72.74
-74.08
-72.37
-66.77
-57.13
-44.04
-28.7
-12.58
2.86
16.47
27.44
35.33
40.02
41.74
41.02
38.66
35.59
32.66
30.4
29.04
28.46
28.42
28.7
29.2
29.91
30.73
31.44
31.68
30.98
29.01
25.69
21.23
16.07
10.71
5.45
0.38
-4.69
-10.08
-16.12
-22.98
-30.61
-38.57
-46.08
-52.1
-55.51
-55.38
-51.26
-43.31
-32.32
-19.53
-6.36
5.79
15.83
22.98
26.87
27.5
25.19
20.59
14.59
8.34
3.03
-0.25
-0.84
1.3
5.55
10.87
16.16
20.67
24.05
26.3
27.47
27.51
26.16
23.27
18.85
13.29
7.19
1.14
-4.43
-9.41
-13.93
-18.26
-22.65
-27.24
-31.86
-35.94
-38.51
-38.39
-34.57
-26.58
-14.81
-0.42
14.97
29.68
42.45
52.57
59.76
64.07
65.66
64.78
61.83
57.37
52.12
46.78
41.9
37.76
34.39
31.7
29.61
28.07
27.11
26.7
26.64
26.56
25.96
24.41
21.67
17.77
12.97
7.64
2.15
-3.21
-8.26
-13.0
-17.57
-22.3
-27.63
-33.93
-41.2
-48.9
-55.91
-60.74
-62.0
-58.85
-51.29
-40.11
-26.64
-12.41
1.18
13.03
22.32
28.57
31.65
31.77
29.51
25.68
21.15
16.61
12.55
9.23
6.78
5.27
4.7
5.0
5.97
7.28
8.54
9.4
9.62
9.05
7.62
5.37
2.39
-1.13
-4.94
-8.84
-12.78
-16.91
-21.5
-26.8
-32.74
-38.87
-44.26
-47.72
-48.16
-44.86
-37.8
-27.65
-15.6
-3.04
8.74
18.78
26.52
31.7
34.29
34.41
32.3
28.4
23.33
17.8
12.5
8.02
4.71
2.7
1.93
2.14
2.94
3.81
4.25
3.86
2.47
0.2
-2.67
-5.79
-8.99
-12.3
-15.97
-20.36
-25.71
-32.11
-39.28
-46.62
-53.18
-57.85
-59.5
-57.33
-51.07
-41.1
-28.45
-14.53
-0.86
11.27
20.98
27.84
31.85
33.32
32.72
30.61
27.49
23.77
19.81
15.89
12.35
9.55
7.82
7.34
8.01
9.41
10.93
11.9
11.9
10.81
8.8
6.23
3.42
0.53
-2.49
-5.85
-9.84
-14.75
-20.69
-27.55
-34.82
-41.6
-46.66
-48.71
-46.71
-40.25
-29.71
-16.19
-1.3
13.25
25.99
35.96
42.82
46.68
48.0
47.31
45.13
41.88
37.92
33.64
29.41
25.63
22.56
20.36
19.02
18.41
18.37
18.66
18.95
18.84
17.91
15.85
12.61
8.46
3.84
-0.78
-5.15
-9.33
-13.57
-18.27
-23.74
-30.05
-36.91
-43.63
-49.13
-52.15
-51.6
-46.89
-38.2
-26.49
-13.24
-0.08
11.65
21.04
27.62
31.31
32.22
30.64
27.01
21.92
16.06
10.14
4.81
0.54
-2.36
-3.8
-3.94
-3.11
-1.76
-0.35
0.71
1.16
0.86
-0.24
-2.08
-4.57
-7.57
-10.96
-14.66
-18.71
-23.28
-28.48
-34.24
-40.04
-44.91
-47.56
-46.82
-42.01
-33.3
-21.63
-8.49
4.54
16.14
25.45
32.11
36.04
37.36
36.28
33.09
28.24
22.35
16.15
10.42
5.82
2.74
1.2
0.87
1.22
1.65
1.67
1.03
-0.33
-2.33
-4.82
-7.71
-10.98
-14.72
-19.16
-24.57
-31.13
-38.74
-46.88
-54.58
-60.52
-63.34
-62.0
-56.02
-45.67
-31.95
-16.39
-0.75
13.31
24.56
32.36
36.72
38.11
37.2
34.61
30.83
26.19
21.05
15.85
11.14
7.43
5.1
4.21
4.51
5.5
6.56
7.13
6.81
5.47
3.21
0.35
-2.76
-5.79
-8.59
-11.18
-13.75
-16.62
-20.11
-24.34
-29.08
-33.57
-36.57
-36.63
-32.53
-23.79
-10.93
4.59
20.78
35.65
47.76
56.36
61.36
63.07
61.98
58.59
53.48
47.27
40.66
34.29
28.7
24.17
20.79
18.47
17.03
16.24
15.86
15.56
15.01
13.87
11.92
9.08
5.47
1.27
-3.24
-7.83
-12.36
-16.85
-21.55
-26.89
-33.24
-40.63
-48.52
-55.65
-60.4
-61.18
-57.1
-48.19
-35.48
-20.62
-5.42
8.56
20.21
28.9
34.37
36.66
36.04
32.97
28.08
22.12
15.89
10.15
5.56
2.53
1.21
1.42
2.74
4.58
6.34
7.54
7.89
7.32
5.93
3.9
1.44
-1.39
-4.62
-8.41
-12.99
-18.53
-25.03
-32.21
-39.41
-45.63
-49.71
-50.53
-47.34
-40.03
-29.11
-15.74
-1.44
12.19
23.82
32.56
38.05
40.39
39.95
37.23
32.75
27.09
20.93
15.03
10.1
6.68
4.91
4.6
5.24
6.29
7.22
7.65
7.31
6.03
3.76
0.63
-3.09
-7.05
-10.98
-14.85
-18.89
-23.5
-29.16
-36.07
-44.03
-52.19
-59.19
-63.36
-63.24
-57.98
-47.7
-33.5
-17.13
-0.51
14.67
27.3
36.79
42.97
45.99
46.14
43.92
39.98
35.07
29.91
25.14
21.19
18.32
16.58
15.93
16.19
17.08
18.27
19.39
20.07
19.97
18.84
16.54
13.12
8.84
4.07
-0.69
-5.08
-8.98
-12.66
-16.68
-21.67
-27.99
-35.4
-42.92
-48.97
-51.74
-49.82
-42.66
-30.8
-15.69
0.67
16.35
29.91
40.51
47.93
52.31
53.92
53.1
50.25
45.9
40.72
35.47
30.81
27.17
24.71
23.27
22.58
22.36
22.43
22.67
22.99
23.18
22.96
21.98
19.97
16.87
12.82
8.16
3.3
-1.42
-5.84
-9.98
-14.11
-18.64
-24.02
-30.48
-37.91
-45.63
-52.44
-56.86
-57.46
-53.38
-44.62
-32.05
-17.24
-2.08
11.71
22.81
30.5
34.59
35.27
32.98
28.38
22.22
15.38
8.71
2.96
-1.41
-4.21
-5.52
-5.54
-4.57
-2.86
-0.67
1.67
3.74
5.1
5.35
4.31
2.06
-1.09
-4.76
-8.66
-12.74
-17.17
-22.26
-28.25
-35.1
-42.33
-48.96
-53.68
-55.14
-52.4
-45.18
-34.12
-20.57
-6.29
7.04
18.19
26.51
31.86
34.44
34.61
32.74
29.29
24.79
19.8
14.84
10.35
6.58
3.68
1.72
0.66
0.39
0.66
1.08
1.21
0.7
-0.67
-2.93
-5.98
-9.66
-13.77
-18.11
-22.55
-27.11
-32.0
-37.55
-43.99
-51.14
-58.19
-63.75
-66.22
-64.32
-57.49
-46.14
-31.45
-15.05
1.38
16.38
28.89
38.25
44.21
46.95
46.9
44.7
41.05
36.64
32.02
27.69
23.99
21.18
19.41
18.73
19.06
20.21
21.78
23.28
24.14
23.84
22.09
18.94
14.64
9.66
4.42
-0.8
-5.89
-10.94
-16.21
-22.06
-28.82
-36.64
-45.24
-53.76
-60.78
-64.62
-63.88
-57.93
-47.14
-32.84
-16.87
-1.05
13.15
24.85
33.63
39.37
42.15
42.16
39.79
35.63
30.4
24.88
19.76
15.54
12.5
10.73
10.12
10.46
11.42
12.58
13.52
13.82
13.22
11.54
8.82
5.23
1.06
-3.39
-7.94
-12.56
-17.44
-22.84
-29.05
-36.1
-43.67
-50.99
-56.91
-60.11
-59.43
-54.21
-44.55
-31.31
-15.98
-0.31
14.11
26.13
35.16
41.04
43.92
44.02
41.7
37.46
32.02
26.23
20.92
16.67
13.73
12.07
11.45
11.59
12.17
12.81
13.1
12.69
11.32
8.98
5.81
2.07
-2.03
-6.35
-10.84
-15.56
-20.67
-26.5
-33.37
-41.42
-50.26
-58.81
-65.4
-68.24
-65.97
-58.19
-45.55
-29.6
-12.25
4.66
19.75
32.13
41.38
47.45
50.38
50.45
48.04
43.79
38.5
33.03
28.2
24.53
22.19
21.02
20.74
21.1
21.91
23.04
24.28
25.22
25.39
24.4
22.11
18.71
14.63
10.32
6.01
1.7
-2.87
-8.04
-14.15
-21.37
-29.55
-38.15
-46.17
-52.19
-54.72
-52.59
-45.36
-33.5
-18.35
-1.71
14.62
29.23
41.2
50.06
55.67
58.03
57.37
54.19
49.22
43.36
37.47
32.25
28.07
25.05
23.13
22.18
21.99
22.37
23.07
23.79
24.22
24.02
22.86
20.53
16.98
12.39
7.09
1.57
-3.81
-8.89
-13.81
-18.97
-24.84
-31.79
-39.8
-48.28
-56.1
-61.75
-63.79
-61.25
-53.99
-42.73
-28.85
-14.0
0.29
12.86
22.96
30.17
34.39
35.71
34.45
31.12
26.31
20.68
14.86
9.42
4.9
1.7
0.0
-0.21
0.76
2.45
4.3
5.8
6.56
6.36
5.14
3.03
0.22
-3.02
-6.55
-10.36
-14.65
-19.77
-25.94
-33.11
-40.71
-47.63
-52.46
-53.78
-50.64
-42.8
-30.9
-16.28
-0.7
14.1
26.74
36.34
42.54
45.35
45.03
42.05
37.04
30.82
24.32
18.39
