0
-18.55
-21.8
-23.71
-24.18
-23.44
-21.95
-20.27
-18.89
-18.12
-17.99
-18.25
-18.41
-17.91
-16.24
-13.19
-8.93
-3.95
1.06
5.44
8.64
10.4
10.7
9.72
7.74
5.06
1.94
-1.37
-4.61
-7.45
-9.53
-10.55
-10.36
-9.09
-7.08
-4.78
-2.64
-0.92
0.29
0.94
1.04
0.57
-0.44
-1.89
-3.56
-5.2
-6.51
-7.29
-7.54
-7.38
-7.11
-7.11
-7.8
-9.44
-12.06
-15.42
-18.59
-20.59
-20.43
-17.41
-11.34
-2.69
7.49
17.81
26.88
33.63
37.46
38.32
36.56
32.74
27.51
21.5
15.35
9.66
4.92
1.34
-1.09
-2.55
-3.28
-3.4
-2.95
-1.94
-0.51
1.07
2.37
2.98
2.64
1.29
-0.99
-4.0
-7.51
-11.29
-15.16
-19.02
-22.86
-26.77
-30.83
-35.04
-39.11
-42.49
-44.36
-43.83
-40.23
-33.37
-23.69
-12.19
-0.26
10.69
19.52
25.6
28.83
29.52
28.19
25.4
21.69
17.56
13.49
9.9
7.14
5.43
4.84
5.34
6.77
8.85
11.21
13.39
14.93
15.47
14.83
13.04
10.26
6.79
2.93
-1.07
-5.01
-8.77
-12.35
-15.85
-19.47
-23.38
-27.57
-31.73
-35.19
-37.02
-36.27
-32.32
-25.11
-15.32
-4.21
6.76
16.32
23.68
28.58
31.12
31.56
30.11
27.06
22.78
17.85
13.05
9.13
6.61
5.62
5.95
7.08
8.51
9.81
10.78
11.39
11.67
11.63
11.15
10.04
8.11
5.35
1.95
-1.68
-5.09
-7.98
-10.3
-12.3
-14.32
-16.71
-19.63
-23.03
-26.64
-29.98
-32.43
-33.24
-31.77
-27.62
-20.87
-12.05
-2.18
7.64
16.36
23.26
27.97
30.45
30.85
29.45
26.65
22.93
18.87
15.1
12.16
10.4
9.88
10.38
11.53
12.95
14.33
15.53
16.47
17.03
17.07
16.4
14.89
12.54
9.5
6.08
2.56
-0.81
-3.99
-7.09
-10.37
-14.14
-18.56
-23.45
-28.23
-31.98
-33.64
-32.37
-27.84
-20.37
-10.9
-0.72
8.83
16.66
22.16
25.2
26.13
25.59
24.31
22.93
21.83
21.03
20.32
19.32
17.68
15.28
12.24
8.89
5.59
2.62
0.05
-2.26
-4.48
-6.76
-9.14
-11.55
-13.88
-16.09
-18.17
-20.22
-22.34
-24.6
-27.11
-29.92
-33.01
-36.23
-39.2
-41.24
-41.57
-39.44
-34.45
-26.76
-17.11
-6.68
3.29
11.76
18.08
22.08
23.84
23.64
21.81
18.8
15.16
11.55
8.57
6.63
5.8
5.86
6.44
7.22
8.05
8.92
9.84
10.76
11.47
11.67
11.06
9.46
6.83
3.38
-0.47
-4.23
-7.5
-10.11
-12.24
-14.38
-17.09
-20.77
-25.43
-30.53
-35.15
-38.15
-38.47
-35.47
-29.1
-19.98
-9.27
1.6
11.26
18.71
23.49
25.7
25.79
24.36
21.92
18.85
15.33
11.59
7.89
4.63
2.27
1.08
1.06
1.97
3.43
5.09
6.81
8.57
10.4
12.2
13.7
14.54
14.39
13.06
10.62
7.32
3.57
-0.16
-3.46
-6.04
-7.85
-9.05
-10.06
-11.35
-13.33
-16.17
-19.69
-23.37
-26.41
-27.97
-27.3
-23.99
-18.05
-9.99
-0.75
8.47
16.51
22.48
26.0
27.24
26.74
25.16
23.03
20.62
18.09
15.6
13.45
12.06
11.75
12.58
14.21
16.12
17.76
18.77
19.12
18.92
18.31
17.29
15.7
13.36
10.21
6.41
2.3
-1.67
-5.09
-7.8
-9.81
-11.42
-13.0
-14.92
-17.42
-20.51
-23.97
-27.38
-30.14
-31.56
-31.04
-28.17
-22.92
-15.73
-7.4
1.04
8.6
14.57
18.62
20.77
21.21
20.22
18.05
15.0
11.45
7.91
4.92
2.91
2.11
2.47
3.68
5.36
7.11
8.6
9.61
9.93
9.48
8.28
6.47
4.3
1.98
-0.36
-2.75
-5.25
-7.87
-10.48
-12.89
-14.89
-16.47
-17.82
-19.26
-21.1
-23.6
-26.79
-30.48
-34.26
-37.47
-39.3
-38.98
-36.0
-30.29
-22.32
-12.94
-3.17
5.98
13.75
19.62
23.35
24.95
24.68
22.98
20.4
17.47
14.6
12.07
10.03
8.64
8.05
8.34
9.46
11.17
13.06
14.64
15.57
15.64
14.9
13.47
11.53
9.18
6.51
3.57
0.45
-2.75
-5.9
-8.88
-11.57
-13.91
-15.9
-17.62
-19.24
-21.01
-23.14
-25.79
-28.95
-32.39
-35.62
-37.96
-38.62
-36.93
-32.53
-25.54
-16.63
-6.83
2.68
10.89
17.12
21.12
23.01
23.14
21.97
19.94
17.48
14.97
12.76
11.14
10.32
10.33
11.03
12.14
13.35
14.39
15.14
15.59
15.76
15.67
15.24
14.36
12.88
10.77
8.07
4.91
1.52
-1.88
-5.07
-7.85
-10.13
-11.85
-13.1
-13.97
-14.69
-15.46
-16.54
-18.11
-20.3
-22.97
-25.75
-28.04
-29.03
-28.0
-24.53
-18.64
-10.92
-2.28
6.2
13.64
19.47
23.55
25.99
27.0
26.79
25.54
23.41
20.68
17.82
15.35
13.73
13.18
13.6
14.59
15.61
16.21
16.16
15.5
14.46
13.25
11.94
10.37
8.26
5.44
1.97
-1.79
-5.34
-8.27
-10.43
-12.0
-13.37
-15.03
-17.31
-20.31
-23.84
-27.4
-30.26
-31.55
-30.51
-26.71
-20.25
-11.8
-2.38
6.86
14.98
21.34
25.65
27.82
27.94
26.19
22.91
18.55
13.68
8.94
4.88
1.93
0.32
-0.01
0.64
1.82
3.03
3.97
4.52
4.76
4.84
4.88
4.83
4.47
3.56
1.88
-0.58
-3.65
-6.99
-10.24
-13.14
-15.58
-17.68
-19.64
-21.73
-24.17
-27.07
-30.38
-33.86
-37.02
-39.1
-39.29
-36.86
-31.54
-23.65
-14.09
-4.09
5.1
12.57
17.81
20.76
21.61
20.7
18.45
15.28
11.66
8.13
5.19
3.34
2.88
3.89
6.15
9.14
12.22
14.79
16.48
17.25
17.27
16.85
16.17
15.23
13.88
11.92
9.21
5.81
1.88
-2.29
-6.41
-10.24
-13.62
-16.53
-19.07
-21.41
-23.78
-26.42
-29.43
-32.73
-35.91
-38.29
-39.0
-37.26
-32.63
-25.26
-15.87
-5.56
4.44
13.14
19.9
24.45
26.8
27.13
25.75
23.12
19.79
16.41
13.58
11.76
11.13
11.62
12.96
14.77
16.68
18.45
19.95
21.15
22.02
22.49
22.35
21.4
19.51
16.7
13.18
9.24
5.2
1.37
-2.01
-4.81
-7.0
-8.72
-10.25
-11.93
-14.04
-16.7
-19.71
-22.64
-24.83
-25.5
-23.98
-19.86
-13.21
-4.62
4.85
14.02
21.83
27.65
31.23
32.65
32.11
29.85
26.21
21.64
16.8
12.38
9.0
7.01
6.44
7.05
8.44
10.16
11.78
12.97
13.47
13.14
11.93
9.86
7.0
3.51
-0.35
-4.24
-7.78
-10.69
-12.92
-14.68
-16.4
-18.52
-21.34
-24.87
-28.83
-32.67
-35.67
-37.07
-36.21
-32.74
-26.7
-18.61
-9.34
0.1
8.78
16.0
21.36
24.67
25.92
25.22
22.87
19.29
15.1
10.95
7.45
5.08
4.06
4.35
5.68
7.59
9.59
11.25
12.3
12.67
12.4
11.53
10.13
8.2
5.77
2.9
-0.26
-3.52
-6.71
-9.71
-12.48
-15.02
-17.35
-19.54
-21.62
-23.72
-25.98
-28.57
-31.49
-34.48
-36.95
-37.99
-36.74
-32.64
-25.74
-16.7
-6.62
3.25
11.9
18.65
23.22
25.63
26.14
25.14
23.1
20.51
17.79
15.26
13.17
11.68
10.95
11.08
12.03
13.61
15.45
17.16
18.42
19.05
18.98
18.23
16.78
14.65
11.92
8.75
5.35
1.92
-1.38
-4.48
-7.32
-9.87
-12.13
-14.12
-15.93
-17.69
-19.51
-21.6
-24.11
-27.21
-30.89
-34.88
-38.51
-40.85
-40.98
-38.3
-32.75
-24.9
-15.72
-6.25
2.56
10.05
15.84
19.74
21.74
22.01
20.88
18.79
16.29
13.9
12.11
11.27
11.54
12.85
14.89
17.16
19.18
20.57
21.22
21.2
20.75
20.06
19.21
18.18
16.84
15.09
12.92
10.44
7.81
5.22
2.78
0.53
-1.57
-3.55
-5.45
-7.31
-9.22
-11.4
-13.99
-17.0
-20.12
-22.63
-23.68
-22.5
-18.78
-12.79
-5.31
2.65
10.09
16.28
20.78
23.44
24.25
23.3
20.83
17.21
12.99
8.83
5.42
3.25
2.54
3.1
4.49
6.14
7.57
8.51
8.95
9.02
8.87
8.52
7.82
6.55
4.47
1.48
-2.29
-6.49
-10.67
-14.36
-17.31
-19.48
-21.09
-22.55
-24.31
-26.68
-29.74
-33.23
-36.55
-38.84
-39.23
-37.06
-32.09
-24.68
-15.66
-6.15
2.77
10.32
16.05
19.84
21.75
21.9
20.51
17.88
14.46
10.81
7.52
5.07
3.76
3.63
4.54
6.16
8.07
9.81
11.03
11.54
11.35
10.62
9.46
7.9
5.85
3.2
-0.06
-3.75
-7.52
-11.04
-14.08
-16.63
-18.82
-20.86
-22.92
-25.11
-27.45
-29.95
-32.52
-34.92
-36.7
-37.22
-35.82
-32.01
-25.67
-17.25
-7.6
2.12
10.84
17.76
22.52
25.13
25.86
25.01
22.93
19.95
16.5
13.12
10.36
8.71
8.39
9.32
11.16
13.43
15.69
17.57
18.87
19.44
19.22
18.27
16.68
14.65
12.35
9.91
7.37
4.72
1.98
-0.79
-3.44
-5.82
-7.77
-9.27
-10.45
-11.57
-12.95
-14.82
-17.31
-20.26
-23.3
-25.79
-26.99
-26.25
-23.13
-17.59
-10.04
-1.31
7.56
15.54
21.91
26.34
28.87
29.78
29.36
27.81
25.32
22.13
18.67
15.5
13.23
12.26
12.61
13.96
15.73
17.33
18.33
18.56
18.09
17.08
15.68
13.96
11.87
9.33
6.32
2.9
-0.69
-4.12
-7.13
-9.62
-11.72
-13.68
-15.79
-18.23
-21.02
-24.05
-27.07
-29.74
-31.6
-32.1
-30.68
-26.99
-21.04
-13.35
-4.8
3.54
10.69
16.01
19.27
20.57
20.23
18.66
16.23
13.28
10.15
7.21
4.9
3.57
3.47
4.52
6.46
8.8
11.09
12.99
14.32
14.98
14.95
14.2
12.78
10.83
8.59
6.3
4.13
2.1
0.14
-1.81
-3.74
-5.57
-7.21
-8.63
-9.92
-11.25
-12.82
-14.78
-17.14
-19.8
-22.43
-24.52
-25.41
-24.49
-21.38
-16.17
-9.37
-1.83
5.57
12.11
17.37
21.13
23.38
24.09
23.31
21.16
17.88
13.9
9.73
5.85
2.65
0.31
-1.2
-2.1
-2.68
-3.24
-3.95
-4.9
-6.06
-7.37
-8.71
-9.95
-10.94
-11.57
-11.92
-12.21
-12.77
-13.93
-15.79
-18.23
-20.91
-23.41
-25.44
-26.9
-27.9
-28.7
-29.6
-30.84
-32.5
-34.47
-36.39
-37.71
-37.83
-36.23
-32.71
-27.41
-20.82
-13.71
-6.92
-1.21
2.9
5.22
5.92
5.41
4.25
2.96
1.98
1.63
2.14
3.69
6.39
10.25
15.09
20.6
26.38
32.07
37.41
42.28
46.68
50.62
54.11
57.16
59.75
61.87
63.52
64.62
64.97
64.26
62.13
58.28
52.65
45.47
37.21
28.46
19.73
11.29
3.19
-4.7
-12.59
-20.67
-29.01
-37.49
-45.72
-53.11
-58.86
-62.23
-62.79
-60.59
-56.16
-50.37
-44.18
-38.42
-33.61
-29.99
-27.52
-25.98
-24.99
-24.16
-23.14
-21.7
-19.75
-17.27
-14.29
-10.88
-7.13
-3.23
0.53
3.84
6.48
8.38
9.63
10.35
10.67
10.57
9.98
8.84
7.17
5.14
2.97
0.91
-0.88
-2.35
-3.53
-4.51
-5.39
-6.21
-6.96
-7.61
-8.16
-8.73
-9.48
-10.57
-11.99
-13.4
-14.17
-13.54
-10.88
-5.99
0.77
8.61
16.52
23.63
29.42
33.75
36.77
38.72
39.82
40.17
39.83
38.87
37.43
35.74
34.05
32.58
31.44
30.67
30.18
29.79
29.24
28.27
26.66
24.25
21.02
17.06
12.53
7.64
2.61
-2.33
-6.97
-11.16
-14.8
-17.87
-20.49
-22.83
-25.12
-27.65
-30.75
-34.74
-39.81
-45.95
-52.71
-59.27
-64.56
-67.5
-67.33
-63.76
-57.1
-48.06
-37.58
-26.61
-15.96
-6.25
2.12
8.94
14.17
17.9
20.3
21.57
21.88
21.43
20.47
19.35
18.41
17.95
18.1
18.76
19.7
20.57
21.0
20.68
19.3
16.69
12.86
8.05
2.73
-2.49
-7.04
-10.53
-12.87
-14.22
-14.93
-15.38
-15.84
-16.51
-17.39
-18.43
-19.53
-20.66
-21.85
-23.17
-24.54
-25.71
-26.24
-25.52
-23.07
-18.65
-12.4
-4.79
3.46
11.53
18.67
24.25
27.88
29.4
28.89
26.73
23.45
19.71
16.08
13.0
10.75
9.44
9.08
9.62
10.94
12.83
14.96
16.91
18.29
18.79
18.29
16.88
14.78
12.25
9.5
6.66
3.8
0.88
-2.13
-5.31
-8.69
-12.24
-15.85
-19.34
-22.5
-25.2
-27.45
-29.4
-31.3
-33.45
-36.01
-38.96
-41.96
-44.39
-45.42
-44.18
-40.09
-33.07
-23.61
-12.74
-1.74
8.21
16.28
22.12
25.78
27.49
27.54
26.21
23.82
20.81
17.78
15.4
14.16
14.28
15.57
17.57
19.72
21.6
23.02
24.0
24.62
24.85
24.57
23.58
21.8
19.3
16.34
13.25
10.27
7.53
4.98
2.45
-0.19
-3.06
-6.11
-9.2
-12.09
-14.6
-16.62
-18.24
-19.74
-21.5
-23.91
-27.16
-31.14
-35.34
-38.89
-40.76
-40.02
-36.15
-29.19
-19.83
-9.23
1.36
10.82
18.47
24.02
27.49
29.08
29.02
27.63
25.32
22.53
19.78
17.46
15.85
15.03
14.96
15.52
16.56
17.89
19.32
20.61
21.5
21.84
21.51
20.52
18.95
16.87
14.36
11.51
8.39
5.08
1.68
-1.69
-4.95
-8.0
-10.81
-13.35
-15.67
-17.91
-20.26
-22.92
-25.98
-29.33
-32.58
-35.15
-36.37
-35.65
-32.66
-27.41
-20.23
-11.77
-2.85
5.69
13.12
18.96
22.99
25.25
25.94
25.33
23.7
21.34
18.63
16.02
13.97
12.88
12.92
13.99
15.73
17.73
19.62
21.19
22.41
23.22
23.57
23.26
22.08
19.95
16.99
13.54
10.02
6.8
3.97
1.43
-1.09
-3.79
-6.72
-9.72
-12.5
-14.79
-16.4
-17.17
-16.92
-15.32
-12.0
-6.67
0.6
9.25
18.26
26.45
32.73
36.5
37.63
36.41
33.41
29.33
25.19
22.25
21.9
25.02
31.46
39.67
46.99
50.59
48.6
40.85
28.76
14.58
0.32
-12.97
-25.22
-36.76
-47.67
-57.54
-65.68
-71.6
-75.39
-77.7
-79.33
-80.87
-82.4
-83.51
-83.52
-81.76
-77.76
-71.42
-62.94
-52.84
-41.82
-30.61
-19.84
-9.94
-1.15
6.29
12.15
16.14
18.1
18.1
16.58
14.26
11.92
10.22
9.53
9.88
11.12
12.97
15.14
17.36
19.38
20.95
21.81
21.74
20.62
18.48
15.51
12.0
8.28
4.6
1.04
-2.44
-6.0
-9.82
-13.98
-18.41
-22.83
-26.7
-29.34
-30.04
-28.23
-23.67
-16.64
-7.85
1.66
10.75
18.53
24.41
28.2
29.94
29.81
28.01
24.85
20.81
16.51
12.71
10.07
8.94
9.26
10.61
12.41
14.15
15.53
16.51
17.14
17.44
17.32
16.6
15.09
12.74
9.64
6.0
2.15
-1.61
-5.02
-7.96
-10.48
-12.79
-15.24
-18.19
-21.82
-25.97
-30.07
-33.17
-34.23
-32.4
-27.36
-19.49
-9.75
0.57
10.25
18.39
24.56
28.66
30.75
30.95
29.4
26.36
22.32
17.98
14.13
11.44
10.28
10.63
12.15
14.32
16.65
18.77
20.54
21.92
22.92
23.44
23.24
22.07
19.73
16.26
11.98
7.38
2.97
-0.89
-4.12
-6.89
-9.55
-12.49
-15.99
-20.1
-24.52
-28.64
-31.6
-32.53
-30.81
-26.28
-19.27
-10.53
-1.04
8.19
16.27
22.54
26.54
28.06
27.17
24.19
19.69
14.4
9.15
4.67
1.52
-0.04
-0.1
1.02
2.83
4.84
6.68
8.14
9.09
9.44
9.09
7.92
5.87
2.98
-0.57
-4.49
-8.49
-12.27
-15.65
-18.59
-21.19
-23.67
-26.35
-29.48
-33.09
-36.92
-40.36
-42.47
-42.26
-39.0
-32.45
-23.05
-11.84
-0.2
10.53
19.37
25.85
29.89
31.68
31.46
29.45
25.95
21.45
16.63
12.28
9.12
7.54
7.59
8.97
11.17
13.65
15.96
17.77
18.91
19.27
18.85
17.65
15.69
13.01
9.69
5.86
1.72
-2.48
-6.48
-10.11
-13.29
-16.05
-18.52
-20.92
-23.5
-26.5
-29.96
-33.65
-37.0
-39.17
-39.22
-36.41
-30.46
-21.69
-11.01
0.31
10.96
19.84
26.31
30.21
31.68
31.11
28.88
25.45
21.33
17.11
13.46
10.94
9.88
10.28
11.85
14.12
16.63
19.01
21.0
22.39
22.99
22.68
21.44
19.37
16.62
13.35
9.62
5.47
0.93
-3.88
-8.66
-13.04
-16.67
-19.41
-21.31
-22.69
-23.96
-25.51
-27.55
-30.06
-32.78
-35.16
-36.5
-36.03
-33.16
-27.63
-19.61
-9.8
0.77
10.96
19.72
26.36
30.64
32.59
32.52
30.78
27.72
23.77
19.42
15.3
12.08
10.26
10.04
11.23
13.37
15.83
18.11
19.92
21.11
21.68
21.62
20.85
19.29
16.94
13.87
10.34
6.61
2.94
-0.55
-3.83
-6.98
-10.1
-13.27
-16.59
-20.15
-24.02
-28.12
-32.15
-35.53
-37.53
-37.41
-34.73
-29.47
-22.07
-13.34
-4.26
4.26
11.45
16.88
20.33
21.82
21.47
19.51
16.21
11.99
7.42
3.22
0.08
-1.51
-1.46
-0.11
1.96
4.08
5.79
6.86
7.3
7.19
6.59
5.44
3.64
1.1
-2.11
-5.8
-9.66
-13.36
-16.63
-19.4
-21.75
-23.96
-26.33
-29.14
-32.48
-36.22
-39.98
-43.14
-44.92
-44.59
-41.63
-35.99
-28.18
-19.2
-10.24
-2.26
4.22
9.19
12.94
15.76
17.71
18.66
18.5
17.29
15.35
13.18
11.29
10.05
9.64
10.05
11.14
12.71
14.48
16.19
17.61
18.54
18.86
18.49
17.39
15.53
12.97
9.87
6.5
3.14
0.04
-2.71
-5.13
-7.39
-9.75
-12.44
-15.65
-19.37
-23.45
-27.47
-30.82
-32.75
-32.53
-29.66
-24.08
-16.2
-6.9
2.68
11.48
18.71
23.95
27.11
28.34
27.88
26.01
23.1
19.6
16.03
12.84
10.4
8.86
8.24
8.35
8.99
9.95
11.02
12.02
12.78
13.15
12.98
12.15
10.6
8.35
5.51
2.24
-1.28
-4.87
-8.35
-11.54
-14.3
-16.52
-18.19
-19.46
-20.54
-21.76
-23.38
-25.53
-28.17
-31.01
-33.54
-35.02
-34.68
-31.81
-26.11
-17.85
-7.89
2.53
12.14
20.0
25.64
29.05
30.48
30.19
28.44
25.46
21.62
17.49
13.73
10.95
9.49
9.33
10.13
11.39
12.66
13.59
14.02
13.93
13.35
12.29
10.67
8.36
5.33
1.62
-2.49
-6.65
-10.54
-13.93
-16.84
-19.39
-21.77
-24.19
-26.82
-29.8
-33.18
-36.76
-40.06
-42.24
-42.38
-39.72
-34.03
-25.7
-15.66
-5.13
4.72
13.01
19.23
23.2
24.99
24.81
22.97
19.88
16.07
12.15
8.77
6.42
5.39
5.65
6.87
8.58
10.33
11.77
12.77
13.29
13.34
12.87
11.92
10.51
8.74
6.68
4.33
1.64
-1.47
-4.97
-8.65
-12.17
-15.15
-17.4
-19.03
-20.42
-22.09
-24.52
-27.93
-32.14
-36.59
-40.39
-42.51
-42.01
-38.33
-31.49
-22.11
-11.26
-0.24
9.79
17.96
23.87
27.45
28.95
28.71
27.13
24.66
21.74
18.8
16.26
14.41
13.45
13.4
14.2
15.66
17.54
19.54
21.32
22.55
22.98
22.49
21.09
18.91
16.17
13.04
9.66
6.14
2.54
-1.02
-4.41
-7.55
-10.42
-13.04
-15.47
-17.78
-20.06
-22.44
-25.1
-28.23
-31.82
-35.55
-38.66
-40.16
-39.05
-34.72
-27.18
-17.17
-5.9
5.22
14.98
22.61
27.9
31.04
32.41
32.32
30.97
28.49
25.13
21.4
17.95
15.43
14.26
14.45
15.68
17.49
19.45
21.24
22.64
23.42
23.38
22.39
20.46
17.78
14.65
11.34
8.05
4.82
1.65
-1.51
-4.59
-7.48
-10.04
-12.21
-13.99
-15.56
-17.14
-18.99
-21.26
-23.93
-26.69
-29.0
-30.09
-29.2
-25.72
-19.44
-10.75
-0.59
9.73
18.86
25.82
30.17
32.01
31.77
29.94
26.89
22.99
18.59
14.22
10.49
7.93
6.77
6.96
8.18
10.0
12.04
13.96
15.46
16.27
16.14
14.97
12.83
9.96
6.71
3.44
0.37
-2.41
-5.0
-7.56
-10.22
-13.04
-15.93
-18.73
-21.24
-23.39
-25.27
-27.14
-29.31
-32.12
-35.7
-39.89
-44.16
-47.57
-49.0
-47.47
-42.49
-34.26
-23.7
-12.13
-0.98
8.66
16.1
21.17
23.99
24.87
24.2
22.39
19.87
17.08
14.43
12.34
11.09
10.85
11.6
13.17
15.27
17.65
20.06
22.28
24.07
25.13
25.15
23.94
21.5
18.06
14.07
10.03
6.34
3.23
0.67
-1.53
-3.63
-5.86
-8.3
-10.87
-13.36
-15.55
-17.28
-18.6
-19.76
-21.12
-23.12
-26.05
-29.94
-34.43
-38.76
-41.84
-42.57
-40.09
-34.18
-25.34
-14.75
-3.89
5.85
13.54
18.82
21.81
22.9
22.52
21.0
18.63
15.72
12.71
10.12
8.42
7.89
8.56
10.14
12.25
14.51
16.69
18.7
20.45
21.82
22.57
22.41
21.2
18.98
16.04
12.8
9.62
6.64
3.83
1.0
-2.02
-5.29
-8.73
-12.11
-15.17
-17.71
-19.69
-21.26
-22.74
-24.51
-26.86
-29.87
-33.28
-36.51
-38.76
-39.21
-37.25
-32.59
-25.39
-16.26
-6.08
4.14
13.5
21.32
27.25
31.16
33.15
33.36
32.08
29.61
26.35
22.74
19.24
16.29
14.21
13.17
13.09
13.76
14.84
15.98
16.9
17.41
17.41
16.85
15.68
13.87
11.43
8.42
4.96
1.24
-2.53
-6.21
-9.66
-12.85
-15.82
-18.59
-21.19
-23.6
-25.82
-27.99
-30.33
-33.17
-36.73
-40.87
-45.01
-48.19
-49.32
-47.59
-42.75
-35.24
-26.08
-16.55
-7.85
-0.83
4.08
6.84
7.69
6.91
4.78
1.55
-2.53
-7.13
-11.84
-16.25
-19.94
-22.68
-24.39
-25.19
-25.32
-25.12
-24.87
-24.78
-24.85
-24.91
-24.57
-23.38
-20.89
-16.81
-11.03
-3.74
4.65
13.53
22.13
29.6
35.23
38.51
39.33
37.95
34.86
30.64
25.75
20.43
14.75
8.76
2.67
-3.11
-7.91
-11.01
-11.78
-9.88
-5.39
1.21
9.1
17.24
24.63
30.46
34.28
35.97
35.74
33.93
30.94
27.18
23.07
19.05
15.6
13.09
11.75
11.57
12.37
13.82
15.58
17.33
18.77
19.59
19.56
18.54
16.55
13.82
10.71
7.59
4.74
2.23
-0.03
-2.27
-4.72
-7.56
-10.77
-14.17
-17.48
-20.39
-22.75
-24.62
-26.29
-28.16
-30.54
-33.55
-36.92
-40.11
-42.31
-42.68
-40.51
-35.47
-27.71
-17.87
-6.99
3.76
13.36
21.09
26.64
29.93
31.1
30.35
27.99
24.52
20.59
16.93
14.19
12.79
12.84
14.15
16.29
18.8
21.23
23.26
24.71
25.51
25.67
25.19
24.09
22.37
20.12
17.42
14.33
10.84
6.89
2.48
-2.27
-7.02
-11.31
-14.75
-17.14
-18.55
-19.34
-20.01
-21.06
-22.89
-25.59
-28.88
-32.01
-33.94
-33.61
-30.29
-23.9
-15.04
-4.84
5.43
14.64
21.95
26.86
29.22
29.16
27.09
23.66
19.6
15.6
12.17
9.59
8.01
7.45
7.88
9.13
10.93
12.93
14.78
16.16
16.86
16.77
15.84
14.11
11.71
8.87
5.8
2.7
-0.36
-3.37
-6.37
-9.38
-12.38
-15.28
-18.01
-20.46
-22.59
-24.39
-26.02
-27.73
-29.82
-32.47
-35.54
-38.45
-40.3
-40.06
-36.98
-30.82
-21.95
-11.29
-0.06
10.45
19.26
25.71
29.58
31.0
30.34
28.07
24.73
20.87
17.04
13.79
11.55
10.55
10.8
12.06
13.94
16.06
18.03
19.59
20.59
20.92
20.57
19.53
17.82
15.5
12.69
9.58
6.43
3.45
0.75
-1.77
-4.28
-6.95
-9.8
-12.67
-15.34
-17.64
-19.61
-21.47
-23.53
-25.99
-28.93
-32.18
-35.35
-37.82
-38.83
-37.6
-33.68
-27.07
-18.36
-8.57
1.18
9.94
17.15
22.6
26.22
28.08
28.21
26.78
24.11
20.66
17.03
13.86
11.67
10.79
11.26
12.87
15.15
17.6
19.78
21.42
22.36
22.52
21.85
20.37
18.17
15.5
12.69
9.99
7.53
5.23
2.94
0.52
-2.08
-4.85
-7.67
-10.4
-12.9
-15.0
-16.68
-18.04
-19.35
-20.99
-23.24
-26.11
-29.25
-32.01
-33.56
-33.12
-30.19
-24.65
-16.86
-7.62
2.03
10.97
18.34
23.67
26.84
27.97
27.32
25.2
21.97
18.17
14.4
11.3
9.37
8.81
9.53
11.14
13.13
14.95
16.17
16.54
16.06
14.89
13.28
11.39
9.27
6.81
3.87
0.45
-3.3
-7.08
-10.58
-13.58
-16.06
-18.08
-19.77
-21.32
-22.88
-24.59
-26.59
-28.94
-31.63
-34.54
-37.34
-39.55
-40.52
-39.53
-36.06
-29.99
-21.72
-12.15
-2.45
6.25
13.15
17.86
20.44
21.2
20.64
19.24
17.42
15.48
13.62
11.99
10.7
9.88
9.6
9.9
10.71
11.9
13.3
14.72
15.97
16.88
17.24
16.89
15.74
13.83
11.29
8.36
5.29
2.26
-0.62
-3.3
-5.76
-8.05
-10.21
-12.26
-14.21
-16.02
-17.69
-19.33
-21.16
-23.49
-26.54
-30.32
-34.43
-38.14
-40.52
-40.68
-38.06
-32.58
-24.71
-15.36
-5.64
3.39
10.93
16.56
20.23
22.16
22.69
22.14
20.81
19.0
17.0
15.09
13.5
12.42
11.94
12.08
12.79
13.97
15.48
17.08
18.5
19.41
19.56
18.78
17.12
14.74
11.94
9.02
6.21
3.61
1.17
-1.24
-3.75
-6.39
-9.08
-11.61
-13.75
-15.36
-16.48
-17.29
-18.14
-19.42
-21.49
-24.53
-28.37
-32.45
-35.87
-37.58
-36.71
-32.79
-25.98
-16.98
-6.84
3.26
12.27
19.46
24.45
27.23
28.04
27.29
25.43
22.87
19.96
17.06
14.57
12.94
12.53
13.51
15.7
18.63
21.63
24.05
25.48
25.78
25.08
23.66
21.88
20.04
18.35
16.85
15.36
13.55
10.98
7.27
2.27
-3.93
-10.99
-18.46
-25.91
-33.0
-39.58
-45.55
-50.83
-55.23
-58.37
-59.72
-58.71
-54.92
-48.3
-39.24
-28.53
-17.21
-6.3
3.35
11.17
16.81
20.12
21.16
20.18
17.68
14.38
11.03
8.34
6.73
6.31
6.88
8.09
9.55
10.99
12.25
13.25
13.92
14.16
13.88
12.98
11.45
9.29
6.55
3.29
-0.4
-4.3
-8.12
-11.5
-14.17
-16.07
-17.42
-18.61
-20.13
-22.33
-25.37
-29.17
-33.35
-37.28
-40.13
-40.98
-39.12
-34.23
-26.56
-16.89
-6.3
4.08
13.37
21.01
26.76
30.58
32.51
32.69
31.29
28.66
25.24
21.58
18.22
15.57
13.94
13.41
13.91
15.24
17.09
19.11
20.9
22.11
22.47
21.83
20.24
17.85
14.83
11.3
7.37
3.12
-1.27
-5.57
-9.47
-12.79
-15.5
-17.79
-20.01
-22.49
-25.43
-28.86
-32.55
-36.12
-39.04
-40.7
-40.52
-38.01
-32.95
-25.47
-16.14
-5.87
4.29
13.33
20.59
25.71
28.69
29.77
29.29
27.62
25.21
22.56
20.2
18.62
18.18
18.96
20.76
23.16
25.64
27.74
29.17
29.84
29.87
29.51
29.04
28.73
28.65
28.58
28.0
26.22
22.59
16.83
9.2
0.38
-8.74
-17.4
-25.19
-32.09
-38.31
-43.98
-48.95
-52.75
-54.71
-54.17
-50.7
-44.28
-35.27
-24.44
-12.77
-1.34
8.89
17.15
22.98
26.19
26.89
25.42
22.29
18.14
13.67
9.57
6.41
4.55
4.09
4.87
6.51
8.59
10.72
12.63
14.16
15.16
15.49
15.0
13.54
11.07
7.72
3.75
-0.43
-4.43
-7.97
-11.01
-13.82
-16.8
-20.42
-24.91
-30.14
-35.58
-40.37
-43.51
-44.09
-41.53
-35.77
-27.28
-17.02
-6.14
4.26
13.34
20.63
25.92
29.14
30.29
29.44
26.8
22.86
18.37
14.15
10.94
9.2
9.01
10.12
12.06
14.27
16.24
17.65
18.35
18.41
17.9
16.83
15.1
12.58
9.17
4.98
0.28
-4.46
-8.85
-12.63
-15.78
-18.5
-21.14
-24.02
-27.35
-31.06
-34.78
-37.8
-39.26
-38.37
-34.63
-28.04
-19.17
-8.97
1.41
10.92
18.83
24.8
28.79
30.96
31.45
30.41
28.04
24.65
20.73
16.89
13.72
11.67
10.92
11.38
12.75
14.59
16.42
17.84
18.59
18.59
17.89
16.62
14.87
12.67
9.99
6.83
3.29
-0.41
-4.04
-7.39
-10.37
-12.98
-15.32
-17.52
-19.75
-22.24
-25.2
-28.66
-32.32
-35.51
-37.26
-36.63
-32.99
-26.34
-17.33
-7.08
3.14
12.22
19.48
24.65
27.81
29.17
28.98
27.45
24.8
21.37
17.6
14.1
11.44
10.07
10.09
11.3
13.18
15.14
16.66
17.43
17.41
16.67
15.35
13.52
11.15
8.19
4.66
0.73
-3.29
-7.01
-10.15
-12.59
-14.43
-15.93
-17.47
-19.39
-21.94
-25.18
-28.86
-32.39
-34.92
-35.54
-33.53
-28.68
-21.35
-12.38
-2.88
6.07
13.66
19.44
23.27
25.22
25.51
24.43
22.29
19.47
16.38
13.45
11.06
9.46
8.77
8.9
9.66
10.8
12.07
13.19
13.94
14.16
13.75
12.76
11.25
9.28
6.82
3.81
0.21
-3.87
-8.13
-12.17
-15.65
-18.4
-20.5
-22.22
-23.89
-25.85
-28.34
-31.4
-34.85
-38.18
-40.65
-41.33
-39.47
-34.65
-27.02
-17.29
-6.56
3.92
13.08
20.25
25.16
28.0
29.1
28.85
27.55
25.36
22.41
18.88
15.08
11.41
8.25
5.93
4.62
4.35
5.0
6.33
8.0
9.64
10.87
11.4
11.06
9.73
7.44
4.27
0.42
-3.77
-7.96
-11.83
-15.23
-18.18
-20.84
-23.41
-26.08
-28.99
-32.21
-35.76
-39.48
-42.97
-45.56
-46.45
-44.97
-40.75
-33.95
-25.15
-15.23
-5.13
4.33
12.47
18.84
23.25
25.64
26.15
25.06
22.73
19.61
16.2
13.03
10.6
9.28
9.23
10.36
12.35
14.74
17.06
18.94
20.16
20.64
20.44
19.65
18.33
16.47
14.01
10.94
7.41
3.72
0.27
-2.62
-4.86
-6.56
-8.05
-9.69
-11.8
-14.57
-17.99
-21.83
-25.57
-28.45
-29.63
-28.43
-24.56
-18.26
-10.25
-1.49
7.02
14.5
20.39
24.38
26.35
26.35
24.61
21.51
17.58
13.42
9.58
6.54
4.56
3.73
3.92
4.9
6.38
8.13
9.86
11.29
12.1
11.96
10.65
8.13
4.62
0.5
-3.78
-7.82
-11.35
-14.32
-16.81
-19.07
-21.44
-24.26
-27.73
-31.72
-35.73
-38.92
-40.33
-39.15
-35.0
-28.06
-19.03
-8.93
1.09
10.04
17.2
22.26
25.17
26.13
25.42
23.36
20.28
16.6
12.78
9.32
6.64
5.0
4.43
4.74
5.61
6.75
7.92
8.99
9.86
10.38
10.3
9.33
7.25
3.98
-0.27
-5.09
-9.98
-14.51
-18.46
-21.81
-24.75
-27.5
-30.3
-33.33
-36.72
-40.45
-44.25
-47.5
-49.28
-48.6
-44.74
-37.56
-27.58
-15.91
-3.87
7.31
16.77
24.01
28.84
31.27
31.46
29.71
26.53
22.58
18.6
15.26
13.04
12.14
12.45
13.64
15.3
17.0
18.44
19.49
20.11
20.31
20.08
19.34
17.99
15.9
13.04
9.45
5.29
0.83
-3.61
-7.73
-11.32
-14.33
-16.95
-19.51
-22.42
-25.95
-30.14
-34.6
-38.58
-41.11
-41.2
-38.18
-31.82
-22.55
-11.26
0.82
12.42
22.42
30.04
34.85
36.79
36.1
33.27
28.97
23.96
19.02
14.83
11.86
10.34
10.2
11.16
12.81
14.76
16.66
18.26
19.3
19.57
18.84
17.01
14.11
10.32
6.0
1.49
-2.92
-7.06
-10.94
-14.65
-18.42
-22.49
-27.1
-32.22
-37.49
-42.15
-45.13
-45.4
-42.21
-35.44
-25.63
-13.88
-1.53
10.09
19.96
27.42
32.17
34.21
33.77
31.23
27.11
22.1
16.95
12.38
8.93
6.89
6.26
6.78
8.11
9.88
11.77
13.5
14.77
15.19
14.42
12.23
8.59
3.77
-1.76
-7.39
-12.64
-17.22
-21.14
-24.73
-28.46
-32.77
-37.87
-43.48
-48.84
-52.72
-53.82
-51.08
-44.1
-33.33
-19.93
-5.55
8.14
19.83
28.76
34.67
37.69
38.13
36.33
32.76
28.01
22.88
18.21
14.8
13.08
13.05
14.3
16.21
18.18
19.78
20.82
21.27
21.19
20.58
19.33
17.22
14.02
9.65
4.27
-1.67
-7.51
-12.64
-16.74
-19.9
-22.61
-25.54
-29.25
-33.97
-39.4
-44.78
-49.0
-50.78
-49.02
-43.09
-33.12
-20.0
-5.25
9.35
22.18
32.2
38.97
42.66
43.72
42.68
40.05
36.27
31.81
27.27
23.3
20.51
19.32
19.78
21.59
24.16
26.87
29.14
30.6
31.04
30.42
28.79
26.24
22.92
18.92
14.38
9.45
4.32
-0.77
-5.56
-9.77
-13.23
-15.92
-18.03
-19.91
-22.01
-24.73
-28.3
-32.62
-37.19
-41.13
-43.27
-42.49
-38.02
-29.74
-18.25
-4.8
9.03
