0
59.94
55.97
50.91
44.61
37.18
29.01
20.68
12.74
5.58
-0.8
-6.8
-13.11
-20.53
-29.61
-40.23
-51.43
-61.47
-68.17
-69.57
-64.61
-53.47
-37.53
-18.86
0.36
18.52
34.72
48.64
60.29
69.64
76.57
81.04
83.16
83.41
82.53
81.29
80.3
79.79
79.57
79.21
78.26
76.47
73.88
70.79
67.52
64.21
60.71
56.57
51.26
44.44
36.12
26.75
17.03
7.71
-0.72
-8.2
-15.06
-21.9
-29.42
-38.13
-48.17
-59.21
-70.37
-80.24
-87.15
-89.52
-86.28
-77.23
-63.21
-45.86
-27.2
-9.08
7.19
20.97
32.15
40.91
47.41
51.81
54.27
55.1
54.76
53.78
52.67
51.7
50.96
50.33
49.66
48.74
47.48
45.8
43.64
40.98
37.86
34.37
30.6
26.6
22.38
17.89
13.14
8.17
3.12
-1.88
-6.71
-11.3
-15.63
-19.8
-23.94
-28.3
-33.22
-38.96
-45.6
-52.77
-59.61
-64.82
-66.98
-64.93
-58.26
-47.39
-33.6
-18.57
-3.96
8.97
19.56
27.64
33.35
36.92
38.61
38.73
37.7
36.01
34.13
32.44
31.08
30.04
29.19
28.41
27.61
26.72
25.65
24.3
22.57
20.34
17.59
14.37
10.82
7.21
3.77
0.71
-1.96
-4.35
-6.75
-9.37
-12.34
-15.59
-18.97
-22.32
-25.53
-28.7
-31.98
-35.65
-39.97
-45.08
-50.81
-56.6
-61.46
-64.13
-63.5
-58.9
-50.47
-39.11
-26.29
-13.54
-2.16
7.12
14.1
18.92
21.88
23.24
23.21
22.08
20.28
18.37
16.97
16.43
16.81
17.76
18.73
19.24
19.07
18.32
17.25
16.1
14.96
13.66
11.95
9.59
6.5
2.8
-1.19
-5.08
-8.51
-11.28
-13.44
-15.26
-17.15
-19.52
-22.6
-26.45
-30.92
-35.68
-40.17
-43.68
-45.37
-44.43
-40.42
-33.44
-24.15
-13.69
-3.24
6.29
14.43
21.08
26.31
30.24
32.93
34.48
35.1
35.14
35.05
35.19
35.74
36.69
37.8
38.69
38.9
37.98
35.64
31.78
26.59
20.4
13.64
6.7
-0.11
-6.54
-12.33
-17.29
-21.23
-24.19
-26.4
-28.29
-30.4
-33.24
-37.19
-42.42
-48.77
-55.71
-62.26
-67.2
-69.3
-67.74
-62.3
-53.54
-42.59
-30.84
-19.57
-9.74
-1.86
3.91
7.69
9.69
10.2
9.58
8.23
6.66
5.37
4.75
4.97
5.91
7.21
8.39
9.09
9.13
8.53
7.46
6.1
4.57
2.88
0.97
-1.28
-3.93
-6.96
-10.21
-13.46
-16.5
-19.2
-21.67
-24.18
-27.13
-30.87
-35.59
-41.1
-46.93
-52.29
-56.19
-57.69
-56.07
-51.09
-43.03
-32.71
-21.28
-9.94
0.27
8.65
14.83
18.78
20.67
20.83
19.8
18.22
16.74
15.9
15.97
16.87
18.27
19.69
20.66
20.95
20.56
19.67
18.54
17.26
15.8
13.93
11.47
8.35
4.69
0.73
-3.32
-7.41
-11.62
-16.1
-20.98
-26.3
-32.07
-38.23
-44.58
-50.63
-55.45
-57.9
-56.9
-51.92
-43.17
-31.61
-18.59
-5.49
6.6
16.94
25.05
30.67
33.75
34.48
33.38
31.22
28.87
27.04
26.09
25.98
26.37
26.77
26.85
26.47
25.68
24.63
23.32
21.64
19.36
16.32
12.53
8.2
3.64
-0.92
-5.35
-9.65
-13.9
-18.22
-22.76
-27.75
-33.44
-39.86
-46.65
-52.88
-57.18
-58.12
-54.69
-46.7
-34.83
-20.44
-5.2
9.29
21.83
31.57
38.15
41.53
42.06
40.36
37.24
33.6
30.2
27.62
26.12
25.66
25.94
26.53
26.99
27.01
26.41
25.12
23.08
20.22
16.5
11.97
6.88
1.58
-3.51
-8.1
-12.05
-15.51
-18.76
-22.27
-26.56
-32.01
-38.59
-45.74
-52.22
-56.4
-56.75
-52.3
-43.01
-29.79
-14.19
2.03
17.33
30.55
40.95
48.17
52.11
52.99
51.34
47.96
43.87
40.05
37.23
35.72
35.35
35.58
35.75
35.26
33.81
31.35
28.01
23.96
19.32
14.16
8.58
2.76
-2.98
-8.29
-12.96
-16.93
-20.41
-23.75
-27.41
-31.85
-37.35
-43.85
-50.75
-56.94
-60.93
-61.29
-57.08
-48.23
-35.61
-20.76
-5.49
8.56
20.25
28.96
34.53
37.15
37.16
35.06
31.47
27.14
22.8
19.09
16.49
15.14
14.88
15.3
15.95
16.39
16.34
15.65
14.3
12.33
9.82
6.85
3.56
0.04
-3.61
-7.36
-11.24
-15.41
-20.08
-25.39
-31.28
-37.3
-42.51
-45.58
-45.14
-40.23
-30.73
-17.54
-2.35
12.79
26.1
36.4
43.3
46.97
47.87
46.54
43.59
39.65
35.48
31.81
29.18
27.82
27.58
27.95
28.34
28.12
26.87
24.38
20.69
16.0
10.68
5.07
-0.53
-5.92
-11.08
-16.02
-20.88
-25.88
-31.27
-37.3
-43.97
-50.87
-57.07
-61.2
-61.85
-58.03
-49.57
-37.28
-22.71
-7.74
6.03
17.52
26.32
32.44
36.08
37.5
36.93
34.74
31.55
28.09
25.1
23.11
22.27
22.34
22.83
23.16
22.81
21.48
19.04
15.59
11.32
6.48
1.32
-3.96
-9.23
-14.46
-19.71
-25.12
-30.92
-37.25
-44.0
-50.59
-55.95
-58.69
-57.5
-51.69
-41.48
-28.04
-13.14
1.34
13.97
23.93
31.04
35.52
37.7
37.89
36.4
33.63
30.14
26.65
23.87
22.25
21.86
22.27
22.78
22.65
21.43
19.03
15.72
11.9
7.88
3.8
-0.33
-4.57
-8.98
-13.64
-18.7
-24.36
-30.74
-37.59
-44.18
-49.3
-51.58
-49.88
-43.79
-33.74
-20.97
-7.14
6.11
17.48
26.27
32.26
35.62
36.71
35.94
33.74
30.64
27.23
24.14
21.9
20.77
20.62
21.0
21.29
20.9
19.51
17.07
13.72
9.75
5.41
0.91
-3.62
-8.11
-12.53
-16.95
-21.48
-26.33
-31.65
-37.36
-43.03
-47.8
-50.57
-50.22
-46.05
-38.02
-26.85
-13.83
-0.49
11.75
21.89
29.34
33.95
35.87
35.52
33.53
30.64
27.64
25.15
23.55
22.85
22.81
23.0
23.01
22.58
21.64
20.28
18.61
16.67
14.29
11.23
7.27
2.38
-3.15
-8.86
-14.23
-18.97
-23.08
-26.9
-30.93
-35.66
-41.37
-47.91
-54.6
-60.29
-63.51
-62.94
-57.85
-48.42
-35.74
-21.43
-7.18
5.76
16.71
25.48
32.08
36.54
38.87
39.15
37.72
35.22
32.47
30.25
29.06
28.94
29.49
30.05
30.02
29.06
27.18
24.69
21.94
19.11
16.15
12.81
8.88
4.32
-0.72
-5.89
-10.82
-15.24
-19.1
-22.48
-25.68
-29.07
-33.02
-37.77
-43.27
-49.06
-54.23
-57.63
-58.07
-54.72
-47.41
-36.68
-23.7
-9.94
3.27
14.95
24.56
31.93
37.09
40.1
41.11
40.44
38.63
36.38
34.45
33.33
33.12
33.52
33.98
33.9
32.9
30.78
27.69
23.93
19.88
15.92
12.27
8.97
5.83
2.59
-0.97
-4.92
-9.09
-13.23
-17.09
-20.52
-23.58
-26.45
-29.39
-32.7
-36.67
-41.42
-46.83
-52.29
-56.76
-59.0
-57.88
-52.8
-43.93
-32.14
-18.75
-5.14
7.49
18.29
26.74
32.62
35.96
37.07
36.49
34.91
33.02
31.37
30.28
29.82
29.91
30.34
30.88
31.21
31.04
30.15
28.41
25.88
22.78
19.4
15.97
12.64
9.38
6.13
2.79
-0.62
-3.99
-7.22
-10.23
-13.05
-15.76
-18.43
-21.12
-23.87
-26.77
-30.08
-34.1
-39.03
-44.72
-50.51
-55.17
-57.31
-55.73
-49.95
-40.36
-28.06
-14.55
-1.24
10.84
21.08
29.19
35.05
38.65
40.13
39.84
38.36
36.39
34.62
33.51
33.19
33.48
34.01
34.35
34.2
33.45
32.14
30.39
28.28
25.82
22.98
19.82
16.53
13.41
10.7
8.49
6.53
4.42
1.67
-1.98
-6.52
-11.65
-16.95
-22.06
-26.79
-31.17
-35.37
-39.65
-44.26
-49.39
-54.96
-60.61
-65.53
-68.58
-68.59
-64.7
-56.74
-45.4
-32.04
-18.26
-5.45
5.53
14.38
21.18
26.1
29.27
30.82
30.99
30.26
29.27
28.64
28.77
29.69
31.08
32.44
33.34
33.58
33.23
32.5
31.57
30.46
29.01
26.95
24.12
20.58
16.64
12.74
9.22
6.21
3.53
0.83
-2.21
-5.68
-9.41
-13.08
-16.37
-19.13
-21.48
-23.74
-26.27
-29.41
-33.37
-38.23
-43.85
-49.84
-55.5
-59.77
-61.48
-59.67
-53.99
-44.89
-33.52
-21.39
-9.91
0.01
7.99
14.02
18.21
20.63
21.32
20.49
18.57
16.25
14.27
13.22
13.3
14.39
16.0
17.56
18.52
18.57
17.69
16.08
14.12
12.09
10.12
8.11
5.85
3.16
0.07
-3.2
-6.36
-9.14
-11.43
-13.34
-15.03
-16.71
-18.55
-20.71
-23.38
-26.77
-30.99
-35.91
-40.97
-45.21
-47.43
-46.56
-42.03
-34.03
-23.45
-11.64
0.02
10.49
19.18
25.91
30.7
33.63
34.8
34.47
33.05
31.21
29.6
28.78
28.87
29.67
30.71
31.46
31.54
30.77
29.21
26.99
24.33
21.43
18.42
15.31
12.11
8.75
5.2
1.47
-2.37
-6.21
-9.94
-13.5
-16.84
-20.02
-23.17
-26.48
-30.24
-34.73
-40.15
-46.43
-53.05
-59.05
-63.1
-63.89
-60.56
-53.05
-42.17
-29.32
-16.09
-3.74
7.04
16.05
23.3
28.81
32.45
34.15
34.04
32.59
30.57
28.78
27.79
27.78
28.48
29.39
29.98
29.9
29.06
27.59
25.71
23.62
21.38
18.98
16.33
13.33
9.99
6.34
2.47
-1.52
-5.53
-9.45
-13.15
-16.54
-19.6
-22.46
-25.4
-28.8
-33.06
-38.38
-44.61
-51.11
-56.83
-60.46
-60.81
-57.17
-49.55
-38.69
-25.9
-12.56
0.12
11.37
20.77
28.12
33.29
36.27
37.25
36.69
35.34
33.97
33.18
33.16
33.75
34.54
35.15
35.33
35.0
34.16
32.83
31.02
28.73
25.97
22.79
19.3
15.6
11.86
8.2
4.75
1.54
-1.48
-4.42
-7.42
-10.53
-13.79
-17.14
-20.52
-23.96
-27.57
-31.58
-36.29
-41.88
-48.32
-55.12
-61.33
-65.64
-66.76
-63.76
-56.43
-45.36
-31.77
-17.17
-3.01
9.62
20.04
27.96
33.38
36.52
37.75
37.52
36.39
34.94
33.65
32.85
32.67
32.99
33.56
34.09
34.35
34.22
33.68
32.76
31.5
29.89
27.91
25.53
22.76
19.66
16.35
13.04
9.97
7.28
5.0
2.91
0.65
-2.13
-5.61
-9.67
-13.95
-18.02
-21.58
-24.59
-27.31
-30.17
-33.62
-38.05
-43.59
-49.98
-56.58
-62.33
-65.9
-66.08
-62.05
-53.77
-42.04
-28.27
-14.1
-0.93
10.31
19.3
26.09
30.92
33.99
35.42
35.38
34.26
32.6
31.11
30.32
30.41
31.21
32.27
33.14
33.55
33.47
32.95
32.08
30.84
29.11
26.84
24.02
20.75
17.29
13.9
10.86
8.39
6.51
5.06
3.69
1.98
-0.39
-3.48
-7.08
-10.83
-14.41
-17.65
-20.63
-23.6
-26.87
-30.73
-35.37
-40.84
-46.91
-52.96
-57.99
-60.76
-60.14
-55.49
-46.91
-35.24
-21.82
-8.07
4.85
16.15
25.41
32.43
37.13
39.51
39.77
38.33
35.86
33.18
31.03
29.96
30.05
31.04
32.41
33.62
34.31
34.36
33.81
32.73
31.13
28.96
26.15
22.72
18.86
14.88
11.08
7.68
4.74
2.08
-0.54
-3.44
-6.83
-10.71
-14.89
-19.08
-22.94
-26.32
-29.23
-31.9
-34.74
-38.21
-42.75
-48.56
-55.48
-62.75
-69.09
-72.97
-73.06
-68.7
-60.16
-48.51
-35.27
-21.93
-9.58
1.14
9.92
16.65
21.29
23.9
24.69
24.12
22.81
21.42
20.52
20.4
21.13
22.53
24.28
26.08
27.66
28.89
29.65
29.86
29.41
28.14
25.96
22.95
19.34
15.54
11.93
8.75
5.96
3.29
0.41
-2.92
-6.69
-10.66
-14.46
-17.8
-20.6
-23.03
-25.46
-28.36
-32.1
-36.88
-42.66
-48.97
-54.97
-59.47
-61.21
-59.19
-53.09
-43.36
-31.21
-18.11
-5.42
5.95
15.61
23.5
29.62
33.99
36.58
37.59
37.41
36.68
35.99
35.72
35.95
36.46
36.93
37.12
36.88
36.2
35.15
33.76
32.06
30.02
27.54
24.57
21.08
17.18
13.15
9.35
6.16
3.79
2.15
0.88
-0.55
-2.66
-5.72
-9.68
-14.16
-18.67
-22.74
-26.16
-28.98
-31.52
-34.25
-37.6
-41.93
-47.35
-53.63
-60.07
-65.48
-68.42
-67.59
-62.29
-52.72
-40.01
-25.81
-11.75
0.95
11.65
20.21
26.68
31.17
33.83
34.9
34.81
34.14
33.49
33.3
33.78
34.84
36.26
37.69
38.82
39.44
39.44
38.82
37.66
36.04
34.04
31.68
29.01
26.03
22.8
19.36
15.83
12.34
9.05
6.08
3.5
1.21
-0.99
-3.43
-6.3
-9.69
-13.46
-17.33
-21.0
-24.29
-27.16
-29.71
-32.13
-34.69
-37.73
-41.64
-46.66
-52.68
-58.97
-64.27
-67.04
-65.97
-60.48
-50.93
-38.5
-24.75
-11.23
0.99
11.33
19.66
26.07
30.73
33.82
35.48
35.94
35.49
34.6
33.75
33.34
33.59
34.45
35.64
36.76
37.48
37.59
37.08
36.02
34.53
32.73
30.66
28.34
25.78
23.04
20.19
17.32
14.5
11.76
9.14
6.61
4.14
1.7
-0.81
-3.47
-6.36
-9.45
-12.7
-15.98
-19.19
-22.29
-25.26
-28.17
-31.15
-34.45
-38.39
-43.27
-49.1
-55.35
-60.9
-64.29
-64.11
-59.52
-50.6
-38.34
-24.2
-9.78
3.64
15.25
24.68
31.8
36.66
39.39
40.25
39.62
38.09
36.33
35.0
34.54
35.07
36.38
37.96
39.3
39.99
39.89
39.12
37.9
36.43
34.76
32.85
30.6
27.93
24.88
21.59
18.29
15.28
12.73
10.68
8.94
7.16
4.89
1.83
-2.03
-6.45
-11.03
-15.4
-19.36
-22.95
-26.34
-29.75
-33.41
-37.59
-42.59
-48.62
-55.6
-62.93
-69.48
-73.77
-74.4
-70.61
-62.48
-51.0
-37.7
-24.2
-11.8
-1.22
7.31
13.83
18.46
21.25
22.25
21.68
19.98
17.84
16.04
15.19
15.55
16.92
18.87
20.85
22.46
23.56
24.18
24.42
24.34
23.88
22.91
21.24
18.84
15.85
12.62
9.62
7.19
5.41
4.06
2.64
0.64
-2.27
-6.07
-10.41
-14.83
-18.89
-22.36
-25.32
-28.04
-30.95
-34.51
-39.08
-44.78
-51.39
-58.16
-63.93
-67.29
-66.96
-62.18
-53.0
-40.33
-25.68
-10.77
2.91
14.39
23.26
29.56
33.57
35.66
36.22
35.69
34.58
33.5
32.96
33.34
34.66
36.61
38.64
40.15
40.78
40.44
39.31
37.72
35.89
33.89
31.61
28.88
25.62
21.89
17.9
13.92
10.15
6.75
3.74
1.12
-1.19
-3.34
-5.51
-7.97
-10.9
-14.36
-18.23
-22.23
-26.1
-29.63
-32.82
-35.84
-39.02
-42.73
-47.32
-52.91
-59.25
-65.55
-70.52
-72.64
-70.66
-64.05
-53.28
-39.62
-24.76
-10.24
2.84
13.92
22.88
29.71
34.49
37.4
38.68
38.76
38.19
37.49
37.09
37.23
37.91
38.99
40.2
41.25
41.93
42.1
41.71
40.73
39.13
36.94
34.26
31.28
28.23
25.34
22.68
20.25
17.93
15.64
13.31
10.94
8.51
6.0
3.37
0.53
-2.58
-5.98
-9.67
-13.61
-17.68
-21.75
-25.67
-29.36
-32.79
-36.11
-39.62
-43.73
-48.77
-54.79
-61.3
-67.25
-71.12
-71.44
-67.22
-58.4
-45.89
-31.29
-16.39
-2.65
9.03
18.41
25.59
30.88
34.53
36.73
37.74
37.87
37.6
37.41
37.69
38.6
40.0
41.49
42.65
43.15
42.9
42.01
40.69
39.1
37.27
35.13
32.57
29.57
26.23
22.69
19.12
15.66
12.4
9.44
6.88
4.76
2.98
1.3
-0.61
-3.08
-6.21
-9.89
-13.8
-17.58
-21.04
-24.19
-27.29
-30.72
-34.81
-39.79
-45.66
-52.19
-58.78
-64.51
-68.15
-68.52
-64.8
-56.88
-45.5
-32.01
-18.01
-4.94
6.3
15.29
22.05
26.72
29.52
30.66
30.43
29.25
27.61
26.02
24.84
24.23
24.12
24.33
24.6
24.74
24.62
24.17
23.35
22.12
20.42
18.21
15.49
12.29
8.77
5.16
1.73
-1.3
-3.86
-6.13
-8.42
-11.12
-14.39
-18.12
-21.97
-25.5
-28.39
-30.59
-32.31
-33.94
-35.98
-38.87
-42.88
-47.93
-53.5
-58.52
-61.59
-61.38
-57.06
-48.66
-37.08
-23.77
-10.26
2.27
13.13
22.07
29.07
34.18
37.5
39.18
39.48
38.82
37.72
36.67
36.1
36.2
36.96
38.15
39.41
40.41
40.93
40.94
40.47
39.55
38.1
35.96
33.03
29.37
25.23
20.98
16.98
13.42
10.25
7.22
4.0
0.32
-3.91
-8.51
-13.18
-17.53
-21.35
-24.65
-27.74
-31.12
-35.31
-40.65
-47.13
-54.28
-61.16
-66.47
-68.89
-67.35
-61.47
-51.68
-39.18
-25.53
-12.19
-0.2
9.96
18.23
24.73
29.51
32.6
34.09
34.23
33.53
32.6
31.97
31.91
32.4
33.14
33.77
34.05
33.92
33.49
32.87
32.08
30.98
29.37
27.09
24.2
20.95
17.72
14.88
12.59
10.79
9.21
7.53
5.4
2.68
-0.6
-4.25
-7.93
-11.31
-14.19
-16.59
-18.74
-21.14
-24.28
-28.59
-34.23
-40.89
-47.78
-53.68
-57.16
-57.0
-52.55
-44.02
-32.46
-19.42
-6.49
5.12
14.83
22.56
28.54
33.0
36.08
37.88
38.55
38.37
37.74
36.97
36.27
35.65
34.98
34.19
33.26
32.29
31.45
30.78
30.13
29.14
27.36
24.44
20.34
15.35
10.04
5.04
0.81
-2.53
-5.22
-7.65
-10.29
-13.38
-16.96
-20.86
-24.81
-28.58
-32.1
-35.5
-39.1
-43.31
-48.45
-54.58
-61.33
-67.78
-72.72
-74.84
-73.21
-67.54
-58.34
-46.69
-33.94
-21.32
-9.7
0.42
8.84
15.48
20.32
23.41
24.92
25.19
24.7
24.0
23.53
23.62
24.36
25.62
27.1
28.45
29.39
29.76
29.56
28.85
27.68
26.05
23.88
21.15
17.9
14.29
10.49
6.65
2.91
-0.64
-3.9
-6.8
-9.36
-11.75
-14.28
-17.37
-21.33
-26.3
-32.1
-38.21
-43.77
-47.79
-49.31
-47.63
-42.61
-34.65
-24.65
-13.75
-3.05
6.63
14.77
21.11
25.61
28.28
29.32
29.04
27.9
26.42
25.07
24.14
23.72
23.71
23.92
24.18
24.41
24.55
24.59
24.42
23.82
22.55
20.45
17.59
14.28
10.94
7.93
5.38
3.11
0.81
-1.81
-4.81
-8.05
-11.28
-14.32
-17.16
-19.92
-22.79
-25.96
-29.67
-34.11
-39.41
-45.35
-51.28
-56.01
-58.18
-56.66
-51.04
-41.76
-30.04
-17.35
-4.97
6.27
16.03
24.29
31.13
36.53
40.45
42.87
43.96
44.07
43.75
43.47
43.5
43.83
44.18
44.21
43.7
42.62
41.13
39.44
37.63
35.67
33.43
30.73
27.55
23.99
20.32
16.79
13.58
10.68
7.99
5.27
2.36
-0.78
-4.05
-7.28
-10.3
-13.05
-15.53
-17.86
-20.26
-23.05
-26.62
-31.33
-37.32
-44.29
-51.44
-57.54
-61.26
-61.55
-58.03
-51.02
-41.49
-30.74
-20.07
-10.44
-2.38
3.98
8.74
12.05
14.04
14.79
14.45
13.33
11.82
10.37
9.27
8.66
8.48
8.64
9.04
9.59
10.17
10.54
10.44
9.64
8.07
5.86
3.32
0.75
-1.61
-3.68
-5.5
-7.22
-8.95
-10.78
-12.67
-14.57
-16.4
-18.2
-20.1
-22.36
-25.25
-28.98
-33.57
-38.72
-43.89
-48.23
-50.85
-50.87
-47.79
-41.57
-32.72
-22.18
-11.07
-0.44
9.01
16.88
23.09
27.66
30.72
32.46
33.11
33.05
32.66
32.3
32.22
32.55
33.25
34.17
35.13
35.92
36.31
36.1
35.11
33.22
30.37
26.64
22.24
17.52
12.88
8.63
4.92
1.67
-1.38
-4.51
-7.92
-11.58
-15.29
-18.77
-21.82
-24.41
-26.72
-29.15
-32.2
-36.33
-41.73
-48.14
-54.76
-60.3
-63.4
-62.94
-58.46
-50.27
-39.41
-27.3
-15.31
-4.5
4.63
12.01
17.86
22.47
26.06
28.74
30.54
31.56
31.96
32.0
31.92
31.92
32.04
32.26
32.47
32.53
32.33
31.81
30.95
29.8
28.42
26.89
25.2
23.25
20.96
18.31
15.41
12.49
9.79
7.45
5.41
3.45
1.34
-1.08
-3.83
-6.77
-9.71
-12.52
-15.18
-17.8
-20.56
-23.73
-27.55
-32.15
-37.48
-43.18
-48.56
-52.66
-54.45
-53.07
-48.17
-39.97
-29.28
-17.22
-4.94
6.61
16.83
25.33
31.91
36.44
38.9
39.44
38.44
36.51
34.31
32.44
31.3
31.06
31.62
32.72
33.96
34.93
35.32
34.97
33.9
32.24
30.09
27.49
24.45
20.96
17.15
13.23
9.5
6.14
3.18
0.46
-2.31
-5.36
-8.81
-12.6
-16.54
-20.4
-24.0
-27.27
-30.28
-33.27
-36.59
-40.64
-45.73
-51.93
-58.94
-66.05
-72.13
-75.94
-76.43
-73.07
-66.03
-56.09
-44.41
-32.17
-20.38
-9.7
-0.6
6.67
11.99
15.43
17.25
17.92
17.98
17.93
18.13
18.77
19.96
21.66
23.78
26.13
28.42
30.31
31.53
31.87
31.23
29.64
27.2
24.09
20.54
16.76
12.98
9.32
5.83
2.53
-0.6
-3.59
-6.51
-9.43
-12.46
-15.69
-19.16
-22.92
-27.05
-31.67
-36.89
-42.59
-48.27
-53.03
-55.66
-55.08
-50.68
-42.58
-31.65
-19.23
-6.71
4.82
14.78
23.01
29.57
34.55
38.01
39.96
40.52
40.04
38.97
37.87
37.1
36.79
36.83
36.99
37.07
37.01
36.83
36.53
36.03
35.1
33.49
31.04
27.78
23.95
19.9
16.05
12.65
9.78
7.3
4.91
2.26
-0.95
-4.81
-9.19
-13.74
-18.06
-21.82
-24.92
-27.54
-30.14
-33.28
-37.47
-42.97
-49.57
-56.53
-62.64
-66.45
-66.64
-62.4
-53.71
-41.37
-26.77
-11.49
3.03
15.85
26.47
34.81
40.93
45.0
47.2
47.84
47.36
46.34
45.33
44.67
44.44
44.46
44.44
44.16
43.57
42.72
41.7
40.51
39.03
37.07
34.45
31.11
27.15
22.78
18.27
13.95
10.04
6.69
3.84
1.31
-1.16
-3.81
-6.81
-10.19
-13.87
-17.67
-21.4
-24.98
-28.47
-32.09
-36.23
-41.28
-47.42
-54.48
-61.76
-68.12
-72.22
-72.86
-69.32
-61.65
-50.69
-37.82
-24.58
-12.29
-1.82
6.47
12.56
16.61
18.83
19.5
18.97
17.73
16.29
15.04
14.22
13.85
13.88
14.25
14.95
15.94
17.08
18.1
18.64
18.44
17.36
15.46
13.01
10.34
7.79
5.57
3.72
2.1
0.44
-1.53
-4.0
-6.98
-10.33
-13.87
-17.37
-20.78
-24.15
-27.71
-31.79
-36.63
-42.22
-48.06
-53.2
-56.38
-56.38
-52.5
-44.75
-33.88
-21.08
-7.65
5.29
16.97
26.87
34.7
40.31
43.75
45.22
45.16
44.13
42.72
41.41
40.49
39.97
39.7
39.45
38.99
38.26
37.25
35.99
34.4
32.33
29.61
26.16
22.1
17.72
13.36
9.27
5.5
1.97
-1.45
-4.89
-8.34
-11.74
-15.02
-18.12
-21.03
-23.83
-26.65
-29.72
-33.35
-37.91
-43.64
-50.35
-57.32
-63.22
-66.47
-65.7
-60.29
-50.66
-38.09
-24.33
-10.93
1.05
11.22
19.59
26.28
31.36
34.84
36.82
37.62
37.72
37.64
37.74
38.14
38.71
39.22
39.47
39.4
39.03
38.46
37.77
36.95
35.83
34.16
31.73
28.47
24.54
20.39
16.49
13.21
10.62
8.48
6.35
3.84
0.77
-2.72
-6.34
-9.74
-12.79
-15.56
-18.38
-21.65
-25.7
-30.73
-36.7
-43.24
-49.71
-55.15
-58.44
-58.57
-54.88
-47.39
-36.81
-24.37
-11.54
0.42
10.72
19.07
25.5
30.15
33.14
34.54
34.53
33.47
31.87
30.27
29.05
28.37
28.18
28.28
28.51
28.7
28.72
28.43
27.66
26.22
23.94
20.77
16.76
12.16
7.34
2.72
-1.37
-4.88
-8.0
-11.15
-14.72
-18.88
-23.52
-28.32
-32.92
-37.08
-40.74
-44.12
-47.54
-51.35
-55.73
-60.52
-65.11
-68.51
-69.59
-67.4
-61.58
-52.43
-40.89
-28.23
-15.71
-4.28
5.48
13.34
19.28
23.44
26.04
27.38
27.91
28.08
28.4
29.19
30.58
32.44
34.49
36.37
37.76
38.48
38.44
37.63
36.03
33.69
30.7
27.29
23.71
20.19
16.84
13.6
10.31
6.77
2.88
-1.35
-5.76
-10.19
-14.44
-18.44
-22.22
-25.96
-29.94
-34.51
-39.86
-45.86
-52.0
-57.35
-60.77
-61.2
-57.98
-51.02
-40.89
-28.7
-15.8
-3.48
7.31
16.1
22.81
27.63
30.82
32.63
33.33
33.22
32.67
32.1
31.78
31.82
32.13
32.53
32.85
33.0
32.93
32.58
31.82
30.47
28.37
25.45
21.8
17.62
13.24
9.01
5.22
2.02
-0.58
-2.78
-4.8
-6.82
-8.93
-11.12
-13.31
-15.45
-17.54
-19.68
-22.1
-25.14
-29.16
-34.33
-40.37
-46.43
-51.19
-53.27
-51.63
-46.02
-37.04
-25.86
-13.84
-2.19
8.3
17.21
24.39
29.79
33.46
35.51
36.14
35.74
34.76
33.65
32.72
32.12
31.79
31.6
31.49
31.45
31.53
31.66
31.67
31.2
29.92
27.65
24.47
20.7
16.73
12.94
9.59
6.71
4.22
1.87
-0.6
-3.39
-6.58
-10.12
-13.87
-17.65
-21.38
-25.08
-28.85
-32.87
-37.32
-42.35
-47.94
-53.81
-59.23
-63.16
-64.39
-61.98
-55.59
-45.7
-33.48
-20.41
-7.85
3.25
12.38
19.39
24.21
26.86
27.44
26.23
23.76
20.69
17.7
15.29
13.67
12.8
12.48
12.46
12.5
12.39
11.94
10.98
9.37
7.18
4.6
1.95
-0.45
-2.47
-4.15
-5.72
-7.43
-9.4
-11.63
-13.98
-16.26
-18.29
-19.99
-21.43
-22.85
-24.65
-27.32
-31.21
-36.33
-42.16
-47.71
-51.71
-52.99
-50.75
-44.78
-35.48
-23.78
-10.91
1.92
13.63
23.57
31.41
37.14
40.85
42.71
43.0
42.11
40.63
39.17
38.23
37.96
38.18
38.53
38.68
38.48
37.92
37.04
35.75
33.83
31.11
27.58
23.47
19.13
14.93
11.06
7.56
4.27
1.05
-2.22
-5.56
-8.92
-12.25
-15.56
-18.88
-22.31
-25.96
-29.93
-34.36
-39.38
-45.07
-51.3
-57.54
-62.82
-65.85
-65.46
-60.96
-52.51
-41.1
-28.14
-15.05
-2.87
7.86
16.96
24.42
30.22
34.35
36.9
38.09
38.29
37.98
37.58
37.38
37.46
37.75
38.11
38.41
38.58
38.68
38.71
38.61
38.2
37.2
35.42
32.81
29.51
25.85
22.14
18.62
15.37
12.29
9.16
5.73
1.86
-2.44
-6.99
-11.52
-15.78
-19.68
-23.31
-26.93
-30.89
-35.53
-41.03
-47.23
-53.59
-59.09
-62.48
-62.59
-58.74
-51.0
-40.21
-27.71
-14.89
-2.84
7.8
16.76
23.9
29.14
32.41
33.82
33.66
32.49
30.93
29.53
28.58
28.1
27.88
27.6
27.03
26.07
24.74
23.07
21.09
18.74
15.95
12.73
9.2
5.54
1.93
-1.52
-4.83
-8.04
-11.23
-14.41
-17.52
-20.49
-23.23
-25.68
-27.83
-29.76
-31.66
-33.81
-36.55
-40.11
-44.51
-49.33
-53.81
-56.89
-57.53
-54.91
-48.77
-39.52
-28.08
-15.72
-3.66
7.18
16.37
23.78
29.46
33.47
35.84
36.66
36.25
35.18
34.09
33.48
33.53
34.05
34.62
34.81
34.4
33.38
31.88
30.06
27.96
25.57
22.83
19.76
16.51
13.31
10.39
7.87
5.72
3.69
1.5
-1.15
-4.38
-8.14
-12.21
-16.3
-20.18
-23.78
-27.26
-31.02
-35.51
-41.04
-47.49
-54.17
-59.89
-63.27
-63.16
-58.99
-50.99
-39.94
-27.04
-13.47
-0.26
11.84
22.31
30.84
37.3
41.69
44.16
45.01
44.65
43.57
42.3
41.29
40.82
40.91
41.34
41.77
41.85
41.4
40.35
38.8
36.82
34.46
31.66
28.32
24.39
19.97
15.31
10.8
6.76
3.33
0.36
-2.51
-5.66
-9.36
-13.6
-18.14
-22.65
-26.84
-30.6
-34.0
-37.27
-40.78
-44.97
-50.16
-56.35
-63.09
-69.36
-73.82
-75.15
-72.53
-65.9
-55.98
-44.11
-31.73
-20.07
-9.93
-1.66
4.69
9.25
12.16
13.62
13.97
13.61
13.0
12.58
12.61
13.16
14.13
15.35
16.58
17.61
18.27
18.4
17.95
16.96
15.56
13.91
12.09
10.11
7.88
5.34
2.52
-0.39
-3.18
-5.67
-7.8
-9.68
-11.51
-13.53
-16.01
-19.19
-23.28
-28.34
-34.1
-39.9
-44.7
-47.33
-46.78
-42.54
-34.83
-24.5
-12.81
-1.0
9.96
19.5
27.44
33.76
38.44
41.46
42.89
43.0
42.22
41.1
40.09
39.46
39.2
39.12
39.06
38.87
38.51
37.93
37.08
35.78
33.89
31.24
27.78
23.64
19.06
14.38
9.93
5.89
2.24
-1.21
-4.64
-8.18
-11.81
-15.4
-18.84
-22.14
-25.44
-29.01
-33.12
-38.02
-43.76
-50.1
-56.36
-61.47
-64.12
-63.19
-58.15
-49.3
-37.65
-24.64
-11.6
0.52
11.24
20.36
27.79
33.39
37.05
38.79
38.97
38.2
37.24
36.72
36.97
37.88
39.04
39.96
40.34
40.13
39.5
38.65
37.59
36.13
33.96
30.86
26.86
22.29
17.64
13.36
9.68
6.57
3.79
1.04
-1.94
-5.31
-9.06
-13.09
-17.18
-21.16
-24.88
-28.34
-31.68
-35.23
-39.41
-44.57
-50.78
-57.65
-64.24
-69.21
-71.2
-69.19
-62.94
-53.03
-40.65
-27.25
-14.11
-2.17
8.03
16.23
22.34
26.4
28.61
29.29
28.92
28.0
26.92
25.95
25.19
24.59
24.03
23.37
22.45
21.23
19.65
17.69
15.36
12.67
9.67
6.43
3.11
-0.15
-3.19
-5.93
-8.32
-10.44
-12.4
-14.39
-16.6
-19.11
-21.85
-24.59
-27.04
-29.03
-30.67
-32.38
-34.75
-38.19
-42.67
-47.58
-51.77
-53.93
-52.93
-48.19
-39.84
-28.7
-16.0
-3.05
9.07
19.64
28.34
35.1
39.91
42.8
43.89
43.48
42.12
40.48
39.21
38.67
38.88
39.58
40.37
40.93
41.05
40.69
39.81
38.37
36.31
33.55
30.13
26.2
21.99
17.79
13.88
10.33
7.06
3.87
0.51
-3.11
-6.94
-10.81
-14.52
-17.99
-21.25
-24.51
-28.05
-32.19
-37.22
-43.27
-50.09
-56.97
-62.75
-66.09
-65.85
-61.49
-53.21
-41.88
-28.73
-15.07
-1.92
10.01
20.29
28.73
35.28
39.95
42.86
44.26
44.54
44.19
43.69
43.39
43.36
43.46
43.41
42.97
42.1
40.89
39.51
38.0
36.2
33.84
30.68
26.71
22.2
17.6
13.38
9.82
6.92
4.43
1.93
-0.98
-4.5
-8.58
-12.96
-17.24
-21.13
-24.55
-27.68
-30.9
-34.65
-39.35
-45.2
-52.09
-59.46
-66.35
-71.46
-73.46
-71.35
-64.85
-54.47
-41.44
-27.32
-13.63
-1.53
8.34
15.81
21.02
24.26
25.89
26.21
25.54
24.2
22.59
21.06
19.9
19.22
18.93
18.84
18.72
18.44
17.92
17.15
16.14
14.83
13.18
11.19
8.91
6.46
3.89
1.25
-1.47
-4.25
-7.03
-9.66
-12.04
-14.11
-15.97
-17.82
-19.94
-22.63
-26.12
-30.61
-36.08
-42.28
-48.53
-53.76
-56.66
-56.04
-51.2
-42.26
-30.18
-16.41
-2.53
10.27
21.31
30.41
37.65
43.16
46.96
49.08
49.65
49.04
47.79
46.48
45.58
45.21
45.27
45.49
45.59
45.4
44.85
43.91
42.53
40.62
38.08
34.88
31.14
27.06
22.95
19.08
15.61
12.49
9.49
6.3
2.57
-1.85
-6.95
-12.48
-18.13
-23.61
-28.83
-33.93
-39.24
-45.12
-51.71
-58.76
-65.51
-70.81
-73.35
-72.08
-66.5
-56.89
-44.19
-29.79
-15.17
-1.57
10.14
19.54
26.54
31.28
33.99
35.04
34.84
33.86
32.51
31.1
29.76
28.5
27.29
26.12
25.03
24.06
23.11
21.97
20.34
17.96
14.76
10.91
6.8
2.9
-0.43
-3.04
-5.07
-6.86
-8.83
-11.28
-14.34
-17.86
-21.57
-25.15
-28.42
-31.32
-34.01
-36.79
-40.07
-44.25
-49.55
-55.72
-61.92
-66.75
-68.59
-66.13
-58.84
-47.24
-32.7
-17.01
-1.83
11.66
22.79
31.34
37.36
41.04
42.7
42.84
42.08
41.03
40.17
39.72
39.68
39.86
40.0
39.92
39.57
38.99
38.28
37.52
36.65
35.47
33.71
31.15
27.82
23.96
20.06
16.6
13.89
11.9
10.24
8.39
5.86
2.43
-1.8
-6.54
-11.41
-16.16
-20.76
-25.35
-30.26
-35.8
-42.2
-49.41
-56.97
-63.95
-69.09
-71.14
-69.15
-62.85
-52.72
-39.92
-25.88
-12.03
0.54
11.17
19.66
26.05
30.53
33.35
34.78
35.1
34.66
33.84
32.96
32.24
31.69
31.21
30.63
29.81
28.76
27.52
26.11
24.46
22.39
19.71
16.33
12.3
7.89
3.43
-0.79
-4.57
-7.89
-10.89
-13.8
-16.84
-20.12
-23.56
-26.93
-29.92
-32.34
-34.2
-35.8
-37.64
-40.27
-44.03
-48.95
-54.54
-59.86
-63.68
-64.74
-62.12
-55.5
-45.23
-32.29
-17.99
-3.64
9.71
21.32
30.78
37.86
42.47
44.7
44.87
43.55
