0
30.85
31.67
32.45
32.96
33.04
32.63
31.79
30.56
29.02
27.21
25.23
23.18
21.15
19.13
17.0
14.6
11.88
8.9
5.87
3.0
0.39
-2.03
-4.44
-7.04
-9.93
-13.12
-16.46
-19.79
-22.95
-25.84
-28.45
-30.97
-33.72
-37.09
-41.39
-46.59
-52.22
-57.33
-60.74
-61.4
-58.72
-52.76
-44.2
-34.09
-23.5
-13.36
-4.24
3.59
10.08
15.35
19.54
22.82
25.31
27.12
28.35
29.1
29.53
29.83
30.14
30.54
30.99
31.46
31.88
32.22
32.51
32.7
32.68
32.29
31.36
29.83
27.78
25.41
22.95
20.58
18.31
16.06
13.72
11.24
8.67
6.13
3.7
1.42
-0.75
-2.92
-5.22
-7.7
-10.37
-13.15
-15.95
-18.7
-21.4
-24.17
-27.16
-30.57
-34.6
-39.28
-44.38
-49.34
-53.31
-55.34
-54.62
-50.82
-44.17
-35.46
-25.8
-16.23
-7.51
-0.03
6.13
11.03
14.75
17.35
18.88
19.48
19.4
18.95
18.5
18.33
18.54
19.11
19.86
20.6
21.18
21.55
21.71
21.72
21.55
21.14
20.39
19.21
17.62
15.68
13.48
11.07
8.43
5.5
2.29
-1.08
-4.37
-7.34
-9.83
-11.91
-13.85
-15.99
-18.67
-22.06
-26.15
-30.66
-35.04
-38.57
-40.43
-39.93
-36.74
-31.0
-23.32
-14.66
-5.95
2.03
8.81
14.23
18.27
21.04
22.68
23.35
23.28
22.7
21.83
20.89
20.01
19.34
18.98
19.0
19.4
20.08
20.86
21.5
21.79
21.58
20.82
19.52
17.74
15.58
13.1
10.36
7.42
4.32
1.06
-2.35
-5.88
-9.44
-12.91
-16.14
-19.05
-21.71
-24.29
-27.09
-30.41
-34.49
-39.34
-44.64
-49.65
-53.32
-54.55
-52.55
-47.15
-38.92
-29.0
-18.69
-9.08
-0.77
6.14
11.87
16.66
20.63
23.79
26.06
27.44
28.05
28.14
28.01
27.93
28.1
28.53
29.15
29.76
30.19
30.36
30.32
30.16
29.93
29.57
28.93
27.84
26.2
24.07
21.6
18.94
16.18
13.37
10.5
7.63
4.87
2.3
-0.04
-2.26
-4.5
-6.96
-9.71
-12.74
-15.93
-19.15
-22.26
-25.21
-28.1
-31.13
-34.59
-38.72
-43.52
-48.69
-53.57
-57.24
-58.81
-57.63
-53.46
-46.57
-37.62
-27.52
-17.21
-7.52
0.96
7.94
13.43
17.6
20.75
23.15
24.97
26.33
27.3
27.99
28.52
29.03
29.6
30.25
30.96
31.71
32.5
33.3
34.06
34.61
34.78
34.39
33.36
31.76
29.78
27.61
25.44
23.3
21.19
19.01
16.67
14.15
11.5
8.8
6.2
3.79
1.59
-0.45
-2.51
-4.77
-7.42
-10.5
-13.88
-17.34
-20.64
-23.61
-26.26
-28.76
-31.39
-34.52
-38.41
-43.2
-48.7
-54.32
-59.12
-61.94
-61.76
-58.06
-51.02
-41.53
-30.85
-20.25
-10.67
-2.55
4.09
9.39
13.56
16.71
18.96
20.39
21.2
21.6
21.78
21.92
22.12
22.39
22.73
23.14
23.58
24.04
24.5
24.89
25.06
24.87
24.15
22.84
20.97
18.69
16.14
13.47
10.73
7.91
4.99
1.96
-1.13
-4.17
-7.05
-9.76
-12.39
-15.11
-18.18
-21.77
-25.93
-30.52
-35.09
-39.01
-41.49
-41.81
-39.49
-34.52
-27.41
-19.05
-10.47
-2.58
4.09
9.35
13.32
16.21
18.16
19.21
19.4
18.79
17.62
16.26
15.13
14.57
14.65
15.19
15.84
16.26
16.32
16.12
15.9
15.83
15.82
15.56
14.63
12.73
9.83
6.16
2.09
-2.03
-5.94
-9.53
-12.77
-15.73
-18.6
-21.63
-25.19
-29.47
-34.47
-39.78
-44.62
-48.01
-49.03
-47.13
-42.26
-34.94
-26.1
-16.76
-7.82
0.13
6.85
12.32
16.66
20.03
22.5
24.17
25.12
25.53
25.58
25.47
25.33
25.25
25.26
25.39
25.71
26.25
27.01
27.84
28.48
28.59
27.91
26.32
23.91
20.93
17.69
14.45
11.33
8.32
5.28
2.04
-1.51
-5.33
-9.25
-13.02
-16.41
-19.35
-21.94
-24.49
-27.42
-31.1
-35.73
-41.22
-47.05
-52.36
-56.07
-57.17
-55.03
-49.59
-41.43
-31.57
-21.22
-11.38
-2.71
4.6
10.63
15.61
19.7
23.0
25.51
27.28
28.46
29.24
29.8
30.29
30.73
31.1
31.36
31.54
31.71
31.94
32.24
32.54
32.72
32.58
31.93
30.65
28.65
25.98
22.83
19.45
16.13
13.07
10.3
7.66
4.87
1.69
-1.96
-5.95
-9.98
-13.69
-16.88
-19.57
-22.0
-24.55
-27.61
-31.46
-36.2
-41.68
-47.42
-52.6
-56.17
-57.1
-54.73
-49.02
-40.6
-30.61
-20.27
-10.56
-2.02
5.22
11.28
16.26
20.21
23.13
25.09
26.29
27.02
27.56
28.13
28.78
29.49
30.19
30.86
31.54
32.26
33.06
33.89
34.64
35.11
35.09
34.42
33.03
31.0
28.52
25.84
23.19
20.75
18.55
16.5
14.45
12.23
9.79
7.16
4.52
2.04
-0.12
-1.99
-3.73
-5.64
-7.99
-10.93
-14.38
-18.04
-21.57
-24.66
-27.26
-29.56
-31.95
-34.88
-38.69
-43.47
-48.93
-54.44
-59.06
-61.77
-61.72
-58.46
-52.12
-43.39
-33.28
-22.87
-13.05
-4.33
3.1
9.3
14.36
18.39
21.43
23.55
24.85
25.54
25.87
26.11
26.42
26.88
27.46
28.08
28.71
29.37
30.06
30.75
31.3
31.5
31.17
30.22
28.68
26.69
24.42
22.03
19.61
17.21
14.82
12.38
9.86
7.23
4.56
1.99
-0.28
-2.12
-3.57
-4.86
-6.33
-8.29
-10.83
-13.82
-16.92
-19.81
-22.31
-24.39
-26.23
-28.12
-30.4
-33.41
-37.35
-42.11
-47.19
-51.66
-54.36
-54.22
-50.68
-43.87
-34.59
-24.05
-13.5
-3.88
4.32
10.99
16.28
20.44
23.65
26.04
27.7
28.65
28.99
28.84
28.37
27.75
27.12
26.58
26.19
25.98
25.94
26.06
26.26
26.4
26.24
25.56
24.18
22.08
19.42
16.51
13.65
11.06
8.76
6.62
4.44
2.05
-0.68
-3.73
-7.02
-10.37
-13.58
-16.48
-19.05
-21.42
-23.92
-26.97
-30.88
-35.68
-40.93
-45.81
-49.28
-50.35
-48.43
-43.48
-36.02
-26.96
-17.4
-8.26
-0.2
6.48
11.76
15.77
18.67
20.6
21.62
21.85
21.48
20.78
20.11
19.79
19.96
20.6
21.52
22.5
23.38
24.1
24.69
25.14
25.38
25.24
24.56
23.22
21.21
18.62
15.66
12.6
9.67
7.08
4.86
2.91
0.96
-1.29
-4.06
-7.34
-10.91
-14.39
-17.46
-20.05
-22.32
-24.68
-27.51
-31.09
-35.51
-40.63
-46.1
-51.32
-55.46
-57.55
-56.75
-52.59
-45.32
-35.81
-25.35
-15.23
-6.36
0.91
6.65
11.2
14.89
17.93
20.42
22.39
23.86
24.87
25.49
25.83
25.99
26.14
26.44
27.03
27.93
29.09
30.33
31.46
32.25
32.54
32.18
31.15
29.52
27.48
25.28
23.14
21.18
19.38
17.56
15.51
13.06
10.16
6.92
3.58
0.48
-2.15
-4.25
-6.0
-7.76
-9.91
-12.62
-15.81
-19.17
-22.37
-25.23
-27.88
-30.64
-33.9
-37.92
-42.74
-48.03
-53.19
-57.34
-59.54
-58.99
-55.32
-48.71
-39.9
-29.93
-19.85
-10.47
-2.23
4.75
10.48
15.06
18.54
20.99
22.54
23.37
23.7
23.78
23.82
24.01
24.45
25.21
26.26
27.5
28.82
30.07
31.11
31.85
32.23
32.24
31.85
31.06
29.88
28.38
26.62
24.7
22.65
20.47
18.08
15.41
12.44
9.27
6.11
3.16
0.57
-1.68
-3.72
-5.8
-8.14
-10.84
-13.86
-17.04
-20.13
-22.98
-25.62
-28.27
-31.38
-35.32
-40.22
-45.78
-51.2
-55.39
-57.31
-56.24
-52.0
-44.97
-35.94
-25.91
-15.87
-6.67
1.07
7.07
11.34
14.18
16.01
17.17
17.92
18.31
18.37
18.17
17.91
17.78
17.96
18.47
19.2
19.98
20.6
21.0
21.13
20.97
20.48
19.58
18.2
16.37
14.2
11.87
9.54
7.28
5.01
2.56
-0.2
-3.25
-6.42
-9.44
-12.13
-14.46
-16.66
-19.11
-22.22
-26.18
-30.84
-35.65
-39.72
-42.06
-41.88
-38.83
-33.12
-25.46
-16.82
-8.13
-0.08
6.9
12.63
17.06
20.19
22.13
23.05
23.2
22.83
22.17
21.42
20.73
20.21
19.92
19.87
19.97
20.13
20.29
20.46
20.66
20.85
20.85
20.37
19.18
17.2
14.58
11.65
8.72
5.95
3.28
0.53
-2.49
-5.83
-9.4
-13.03
-16.53
-19.79
-22.8
-25.67
-28.65
-32.04
-36.13
-40.99
-46.32
-51.36
-55.02
-56.18
-54.12
-48.72
-40.58
-30.78
-20.51
-10.74
-2.08
5.26
11.29
16.13
19.87
22.62
24.48
25.61
26.16
26.31
26.26
26.2
26.25
26.49
26.92
27.46
28.01
28.5
28.88
29.08
29.03
28.59
27.65
26.14
24.09
21.63
18.92
16.11
13.3
10.54
7.84
5.21
2.59
-0.1
-2.96
-6.07
-9.4
-12.8
-16.08
-19.08
-21.77
-24.32
-27.02
-30.23
-34.26
-39.16
-44.64
-49.94
-53.95
-55.51
-53.8
-48.66
-40.68
-31.01
-20.92
-11.41
-3.04
4.06
9.96
14.75
18.44
21.08
22.82
23.93
24.71
25.41
26.11
26.79
27.36
27.75
27.96
28.07
28.17
28.33
28.63
29.06
29.52
29.81
29.67
28.87
27.28
24.9
21.9
18.53
15.1
11.88
9.06
6.68
4.65
2.73
0.65
-1.84
-4.87
-8.37
-12.07
-15.65
-18.83
-21.52
-23.87
-26.26
-29.13
-32.82
-37.43
-42.63
-47.78
-52.0
-54.39
-54.25
-51.24
-45.48
-37.5
-28.09
-18.16
-8.55
0.14
7.59
13.67
18.43
21.94
24.32
25.73
26.37
26.52
26.48
26.52
26.83
27.43
28.24
29.08
29.76
30.18
30.34
30.28
30.1
29.83
29.41
28.72
27.59
25.92
23.73
21.14
18.36
15.59
12.99
10.57
8.28
6.01
3.64
1.06
-1.75
-4.75
-7.86
-10.94
-13.87
-16.58
-19.08
-21.54
-24.18
-27.34
-31.26
-36.0
-41.31
-46.54
-50.76
-52.94
-52.28
-48.46
-41.79
-33.11
-23.51
-14.03
-5.4
2.04
8.25
13.32
17.34
20.33
22.27
23.22
23.36
22.98
22.42
21.96
21.71
21.69
21.81
22.0
22.23
22.5
22.82
23.12
23.3
23.16
22.54
21.33
19.55
17.3
14.74
12.06
9.36
6.67
3.91
0.99
-2.1
-5.28
-8.37
-11.18
-13.66
-15.92
-18.18
-20.77
-23.93
-27.72
-31.94
-36.16
-39.69
-41.74
-41.63
-38.94
-33.71
-26.42
-17.92
-9.17
-1.01
5.98
11.56
15.72
18.53
20.09
20.52
20.04
18.98
17.75
16.73
16.17
16.08
16.31
16.69
17.11
17.57
18.08
18.6
18.98
18.96
18.32
16.92
14.8
12.12
9.07
5.84
2.55
-0.73
-3.95
-7.06
-10.0
-12.71
-15.16
-17.37
-19.52
-21.9
-24.87
-28.77
-33.62
-39.04
-44.18
-47.94
-49.27
-47.56
-42.84
-35.68
-27.03
-17.82
-8.84
-0.59
6.58
12.46
16.95
20.1
22.14
23.4
24.19
24.73
25.07
25.22
25.17
25.04
24.96
25.09
25.48
26.08
26.75
27.31
27.61
27.55
27.1
26.29
25.11
23.53
21.47
18.89
15.85
12.58
9.38
6.53
4.14
2.03
-0.13
-2.72
-5.91
-9.6
-13.46
-17.08
-20.18
-22.74
-24.99
-27.34
-30.22
-33.95
-38.67
-44.17
-49.88
-54.93
-58.29
-59.03
-56.62
-51.05
-42.87
-33.07
-22.73
-12.83
-4.02
3.4
9.42
14.23
18.09
21.24
23.83
25.96
27.63
28.83
29.59
30.02
30.23
30.38
30.55
30.79
31.07
31.38
31.7
32.01
32.27
32.33
32.01
31.13
29.62
27.55
25.1
22.48
19.85
17.27
14.73
12.2
9.69
7.28
5.05
3.06
1.24
-0.57
-2.61
-5.11
-8.15
-11.65
-15.34
-18.91
-22.09
-24.79
-27.21
-29.72
-32.78
-36.73
-41.65
-47.2
-52.68
-57.13
-59.56
-59.19
-55.67
-49.15
-40.3
-30.09
-19.58
-9.67
-1.0
6.14
11.77
16.08
19.36
21.88
23.85
25.44
26.78
27.9
28.79
29.45
29.88
30.16
30.37
30.62
30.96
31.4
31.86
32.26
32.48
32.39
31.9
30.88
29.31
27.24
24.82
22.3
19.87
17.59
15.37
13.02
10.4
7.53
4.63
2.0
-0.12
-1.72
-3.01
-4.33
-6.04
-8.3
-11.1
-14.24
-17.52
-20.74
-23.84
-26.86
-29.95
-33.34
-37.23
-41.67
-46.45
-51.04
-54.61
-56.31
-55.46
-51.77
-45.47
-37.19
-27.84
-18.36
-9.54
-1.89
4.38
9.28
12.99
15.72
17.68
19.03
19.93
20.51
20.91
21.21
21.46
21.65
21.75
21.8
21.91
22.2
22.72
23.38
23.9
23.96
23.28
21.79
19.66
17.16
14.62
12.22
10.01
7.87
5.65
3.2
0.46
-2.5
-5.51
-8.39
-10.99
-13.32
-15.54
-17.95
-20.86
-24.43
-28.62
-33.11
-37.38
-40.73
-42.5
-42.11
-39.21
-33.82
-26.38
-17.66
-8.62
-0.17
7.03
12.7
16.89
19.84
21.77
22.84
23.12
22.72
21.86
20.9
20.19
19.98
20.34
21.13
22.08
22.97
23.64
24.05
24.2
24.12
23.74
23.0
21.82
20.15
18.02
15.55
12.91
10.29
7.81
5.47
3.14
0.62
-2.23
-5.39
-8.72
-11.99
-15.01
-17.7
-20.14
-22.46
-24.81
-27.32
-30.14
-33.48
-37.53
-42.33
-47.62
-52.7
-56.56
-58.15
-56.71
-52.03
-44.5
-35.04
-24.77
-14.77
-5.86
1.5
7.23
11.54
14.8
17.4
19.62
21.6
23.32
24.76
25.89
26.78
27.52
28.16
28.67
29.05
29.29
29.5
29.78
30.18
30.62
30.92
30.87
30.31
29.19
27.57
25.54
23.21
20.68
18.01
15.29
12.54
9.81
7.1
4.46
1.94
-0.42
-2.68
-4.99
-7.52
-10.37
-13.45
-16.59
-19.57
-22.3
-24.93
-27.75
-31.05
-35.03
-39.65
-44.67
-49.67
-54.09
-57.24
-58.42
-57.05
-52.85
-46.02
-37.2
-27.33
-17.37
-8.12
-0.04
6.75
12.31
16.8
20.35
23.07
25.04
26.35
27.08
27.37
27.36
27.28
27.3
27.58
28.21
29.11
30.13
31.08
31.75
32.0
31.76
31.06
29.95
28.52
26.86
25.06
23.15
21.15
19.01
16.68
14.13
11.44
8.75
6.2
3.89
1.81
-0.16
-2.21
-4.49
-7.06
-9.89
-12.86
-15.86
-18.78
-21.57
-24.3
-27.14
-30.38
-34.27
-38.93
-44.05
-48.96
-52.68
-54.25
-53.08
-49.05
-42.56
-34.32
-25.15
-15.81
-6.92
1.03
7.67
12.81
16.4
18.57
19.58
19.74
19.43
18.98
18.65
18.59
18.81
19.21
19.62
19.98
20.32
20.75
21.32
21.93
22.3
22.12
21.16
19.45
17.24
14.89
12.63
10.51
8.35
5.91
3.04
-0.22
-3.65
-6.92
-9.78
-12.14
-14.1
-15.91
-17.94
-20.52
-23.84
-27.92
-32.42
-36.72
-39.98
-41.31
-40.05
-36.0
-29.47
-21.22
-12.29
-3.61
4.11
10.55
15.64
19.46
22.13
23.7
24.26
23.94
23.05
21.94
20.98
20.49
20.56
21.14
22.02
22.97
23.79
24.38
24.7
24.72
24.45
23.84
22.84
21.41
19.57
17.37
14.91
12.33
9.76
7.33
5.04
2.83
0.53
-2.04
-4.95
-8.16
-11.45
-14.59
-17.44
-19.98
-22.34
-24.73
-27.39
-30.52
-34.26
-38.69
-43.71
-48.93
-53.7
-57.12
-58.27
-56.46
-51.5
-43.76
-34.08
-23.56
-13.27
-4.04
3.66
9.74
14.33
17.74
20.23
22.06
23.39
24.34
25.06
25.7
26.41
27.26
28.2
29.1
29.83
30.31
30.59
30.81
31.06
31.32
31.44
31.22
30.48
29.22
27.54
25.63
23.67
21.7
19.69
17.52
15.06
12.3
9.32
6.31
3.5
1.11
-0.81
-2.36
-3.84
-5.57
-7.83
-10.68
-14.01
-17.56
-21.04
-24.29
-27.29
-30.18
-33.21
-36.63
-40.67
-45.34
-50.33
-54.97
-58.26
-59.17
-56.97
-51.55
-43.46
-33.71
-23.48
-13.73
-5.04
2.36
8.46
13.35
17.12
19.91
21.87
23.22
24.16
24.87
25.49
26.16
26.96
27.87
28.84
29.7
30.33
30.7
30.9
31.03
31.18
31.29
31.16
30.57
29.37
27.58
25.36
22.97
20.63
18.42
16.3
14.18
11.98
9.71
7.46
5.33
3.4
1.62
-0.17
-2.18
-4.56
-7.36
-10.46
-13.64
-16.7
-19.54
-22.18
-24.79
-27.53
-30.58
-34.1
-38.21
-42.94
-48.09
-53.1
-57.04
-58.87
-57.69
-53.19
-45.72
-36.26
-25.99
-16.0
-6.99
0.74
7.16
12.33
16.38
19.4
21.56
23.04
24.01
24.6
24.9
25.03
25.12
25.36
25.89
26.74
27.83
29.0
30.05
30.86
31.36
31.48
31.16
30.3
28.85
26.87
24.51
21.96
19.4
16.93
14.57
12.3
10.12
8.02
5.94
3.84
1.61
-0.82
-3.45
-6.2
-8.95
-11.55
-13.95
-16.16
-18.29
-20.48
-22.92
-25.83
-29.41
-33.77
-38.81
-44.12
-48.9
-52.2
-53.07
-50.93
-45.76
-38.11
-28.94
-19.36
-10.3
-2.38
4.11
9.16
12.93
15.59
17.32
18.29
18.64
18.59
18.36
18.17
18.15
18.29
18.51
18.73
18.94
19.22
19.68
20.31
20.92
21.2
20.86
19.77
18.01
15.85
13.55
11.24
8.89
6.41
3.68
0.71
-2.37
-5.41
-8.29
-10.94
-13.41
-15.75
-18.1
-20.62
-23.53
-26.98
-31.0
-35.27
-39.11
-41.66
-42.06
-39.79
-34.86
-27.8
-19.47
-10.81
-2.57
4.77
10.97
15.96
19.77
22.38
23.85
24.26
23.81
22.82
21.66
20.68
20.12
20.03
20.31
20.78
21.31
21.85
22.44
23.11
23.79
24.27
24.26
23.5
21.85
19.33
16.11
12.5
8.83
5.38
2.34
-0.29
-2.7
-5.17
-7.98
-11.17
-14.55
-17.76
-20.48
-22.6
-24.35
-26.17
-28.54
-31.8
-36.02
-40.98
-46.24
-51.14
-54.87
-56.56
-55.51
-51.39
-44.43
-35.38
-25.28
-15.21
-5.95
2.03
8.61
13.87
18.0
21.2
23.65
25.41
26.52
26.98
26.91
26.52
26.12
25.98
26.22
26.77
27.43
28.02
28.45
28.74
28.92
28.94
28.68
27.98
26.76
25.05
22.95
20.56
17.95
15.17
12.29
9.43
6.72
4.21
1.8
-0.67
-3.41
-6.49
-9.84
-13.23
-16.42
-19.25
-21.78
-24.21
-26.85
-30.04
-34.04
-38.87
-44.21
-49.37
-53.32
-55.0
-53.66
-49.1
-41.76
-32.56
-22.58
-12.78
-3.88
3.71
9.85
14.56
18.03
20.5
22.24
23.47
24.35
24.95
25.42
25.91
26.56
27.45
28.48
29.44
30.11
30.39
30.36
30.15
29.9
29.63
29.23
28.55
27.46
25.89
23.87
21.44
18.73
15.88
13.07
10.42
7.99
5.71
3.45
1.05
-1.54
-4.28
-7.05
-9.78
-12.46
-15.12
-17.82
-20.58
-23.41
-26.41
-29.78
-33.76
-38.51
-43.83
-49.09
-53.26
-55.19
-54.01
-49.4
-41.77
-32.08
-21.58
-11.46
-2.55
4.76
10.46
14.79
18.02
20.32
21.81
22.62
22.96
23.09
23.31
23.74
24.33
24.89
25.21
25.23
25.08
24.99
25.13
25.51
25.9
25.98
25.44
24.13
22.11
19.61
16.88
14.16
11.59
9.17
6.77
4.27
1.56
-1.36
-4.37
-7.25
-9.81
-12.0
-13.89
-15.73
-17.82
-20.48
-23.91
-28.07
-32.67
-37.05
-40.37
-41.72
-40.47
-36.41
-29.94
-21.88
-13.25
-4.98
2.33
8.4
13.2
16.76
19.11
20.3
20.43
19.75
18.62
17.42
16.5
16.05
16.11
16.62
17.46
18.51
19.65
20.74
21.59
22.01
21.81
20.92
19.36
17.27
14.84
12.23
9.52
6.76
3.96
1.13
-1.73
-4.65
-7.68
-10.82
-14.03
-17.17
-20.07
-22.68
-25.15
-27.85
-31.19
-35.39
-40.26
-45.15
-49.03
-50.86
-49.89
-45.95
-39.39
-31.02
-21.79
-12.57
-4.03
3.44
9.7
14.73
18.61
21.44
23.24
24.13
24.26
23.94
23.58
23.55
24.03
24.97
26.11
27.14
27.87
28.32
28.61
28.82
28.94
28.84
28.38
27.5
26.27
24.79
23.11
21.2
18.96
16.36
13.43
10.32
7.19
4.15
1.21
-1.64
-4.43
-7.16
-9.84
-12.46
-15.05
-17.63
-20.22
-22.85
-25.55
-28.44
-31.72
-35.64
-40.31
-45.55
-50.79
-55.18
-57.71
-57.57
-54.4
-48.36
-40.07
-30.46
-20.49
-10.98
-2.54
4.52
10.14
14.47
17.77
20.3
22.25
23.74
24.88
25.73
26.38
26.88
27.27
27.57
27.8
28.02
28.27
28.59
28.93
29.15
29.11
28.67
27.81
26.54
24.9
22.9
20.53
17.86
15.04
12.29
9.81
7.65
5.71
3.72
1.45
-1.24
-4.33
-7.62
-10.87
-13.84
-16.44
-18.68
-20.75
-22.93
-25.54
-28.88
-33.1
-38.15
-43.66
-48.97
-53.15
-55.25
-54.51
-50.65
-43.96
-35.25
-25.61
-16.08
-7.37
0.21
6.63
11.99
16.3
19.54
21.71
22.91
23.41
23.57
23.71
24.01
24.51
25.13
25.77
26.36
26.86
27.28
27.61
27.82
27.89
27.73
27.29
26.46
25.14
23.27
20.9
18.14
15.21
12.27
9.44
6.74
4.13
1.54
-1.09
-3.77
-6.5
-9.27
-12.08
-14.88
-17.62
-20.28
-22.88
-25.61
-28.74
-32.51
-36.97
-41.78
-46.23
-49.33
-50.18
-48.17
-43.24
-35.9
-27.01
-17.62
-8.62
-0.66
5.95
11.18
15.15
18.02
19.95
21.04
21.38
21.13
20.49
19.72
19.05
18.63
18.54
18.73
19.13
19.58
19.95
20.14
20.07
19.68
18.97
17.92
16.5
14.68
12.42
9.76
6.84
3.8
0.83
-2.0
-4.65
-7.17
-9.61
-12.06
-14.67
-17.64
-21.14
-25.23
-29.66
-33.87
-37.07
-38.49
-37.64
-34.43
-29.2
-22.56
-15.16
-7.6
-0.36
6.17
11.64
15.8
18.49
19.73
19.72
18.81
17.42
15.95
14.74
13.99
13.73
13.9
14.32
14.81
15.23
15.47
15.48
15.26
14.81
14.13
13.19
11.87
9.98
7.33
3.86
-0.3
-4.79
-9.18
-13.05
-16.21
-18.74
-20.99
-23.41
-26.44
-30.32
-34.99
-39.99
-44.53
-47.63
-48.38
-46.23
-41.18
-33.8
-25.04
-15.93
-7.3
0.34
6.88
12.36
16.91
20.58
23.38
25.31
26.46
27.03
27.25
27.34
27.41
27.5
27.6
27.69
27.77
27.85
27.88
27.8
27.49
26.86
25.85
24.44
22.65
20.52
18.12
15.55
12.88
10.1
7.16
3.93
0.35
-3.54
-7.55
-11.4
-14.89
-17.94
-20.63
-23.19
-25.94
-29.18
-33.2
-38.07
-43.56
-49.02
-53.4
-55.53
-54.53
-50.12
-42.77
-33.54
-23.68
-14.23
-5.82
1.42
7.63
12.98
17.62
21.53
24.64
26.92
28.39
29.2
29.6
29.84
30.15
30.62
31.19
31.73
32.11
32.28
32.32
32.32
32.33
32.23
31.86
31.02
29.59
27.6
25.19
22.49
19.66
16.76
13.86
10.99
8.17
5.38
2.54
-0.46
-3.71
-7.21
-10.86
-14.48
-17.9
-21.0
-23.81
-26.47
-29.21
-32.33
-36.06
-40.51
-45.47
-50.39
-54.34
-56.33
-55.5
-51.5
-44.59
-35.54
-25.47
-15.45
-6.29
1.57
8.02
13.21
17.38
20.76
23.49
25.66
27.3
28.43
29.09
29.38
29.44
29.37
29.27
29.21
29.22
29.34
29.55
29.85
30.15
30.32
30.17
29.45
27.97
25.65
22.57
19.06
15.52
12.35
9.72
7.56
5.59
3.45
0.86
-2.27
-5.8
-9.47
-12.93
-15.92
-18.31
-20.2
-21.83
-23.63
-26.05
-29.49
-34.11
-39.67
-45.49
-50.53
-53.63
-53.87
-50.81
-44.7
-36.33
-26.8
-17.2
-8.36
-0.72
5.6
10.71
14.77
17.93
20.29
21.92
22.89
23.32
23.39
23.3
23.22
23.26
23.44
23.79
24.28
24.88
25.54
26.13
26.45
26.27
25.44
23.9
21.75
19.15
16.3
13.36
10.42
7.5
4.6
1.69
-1.27
-4.32
-7.42
-10.52
-13.48
-16.16
-18.49
-20.55
-22.58
-24.93
-27.94
-31.85
-36.56
-41.66
-46.34
-49.66
-50.66
-48.75
-43.86
-36.49
-27.57
-18.19
-9.27
-1.4
5.22
10.66
15.1
18.7
21.51
23.54
24.83
25.5
25.75
25.83
25.97
26.31
26.89
27.63
28.42
29.16
29.77
30.18
30.33
30.18
29.66
28.74
27.42
25.74
23.79
21.67
19.43
17.09
14.58
11.84
8.88
5.77
2.67
-0.24
-2.87
-5.29
-7.64
-10.11
-12.78
-15.62
-18.48
-21.25
-23.89
-26.52
-29.34
-32.62
-36.54
-41.11
-46.06
-50.79
-54.4
-55.92
-54.56
-50.06
-42.79
-33.65
-23.79
-14.2
-5.54
1.95
8.25
13.44
17.53
20.56
22.62
23.89
24.64
25.09
25.43
25.7
25.93
26.09
26.22
26.34
26.47
26.65
26.89
27.18
27.43
27.48
27.14
26.24
24.71
22.62
20.16
17.51
14.86
12.27
9.78
7.33
4.87
2.31
-0.37
-3.19
-6.05
-8.85
-11.47
-13.88
-16.12
-18.36
-20.76
-23.48
-26.67
-30.42
-34.74
-39.55
-44.42
-48.67
-51.36
-51.59
-48.87
-43.25
-35.42
-26.36
-17.12
-8.47
-0.85
5.59
10.81
14.83
17.65
19.37
20.17
20.28
19.98
19.53
19.08
18.74
18.58
18.59
18.74
18.9
18.97
18.88
18.64
18.28
17.84
17.28
16.51
15.36
13.71
11.52
8.82
5.74
2.46
-0.84
-4.02
-6.98
-9.67
-12.1
-14.36
-16.61
-19.07
-21.96
-25.4
-29.25
-33.1
-36.24
-37.86
-37.26
-34.12
-28.64
-21.43
-13.34
-5.21
2.35
8.96
14.41
18.61
21.48
23.03
23.37
22.75
21.53
20.07
18.71
17.69
17.13
17.09
17.55
18.39
19.41
20.36
21.01
21.2
20.83
19.87
18.3
16.14
13.42
10.33
7.11
4.05
1.29
-1.22
-3.73
-6.54
-9.81
-13.48
-17.26
-20.8
-23.88
-26.57
-29.2
-32.19
-35.9
-40.35
-45.2
-49.75
-53.09
-54.35
-52.92
-48.61
-41.76
-33.07
-23.51
-13.97
-5.15
2.58
9.06
14.32
18.4
21.36
23.31
24.42
24.96
25.24
25.47
25.75
26.06
26.38
26.68
27.02
27.44
27.95
28.47
28.88
29.05
28.88
28.26
27.14
25.48
23.28
20.67
17.83
14.99
12.28
9.71
7.2
4.61
1.86
-1.05
-4.1
-7.2
-10.29
-13.28
-16.08
-18.63
-20.98
-23.27
-25.79
-28.86
-32.71
-37.39
-42.63
-47.93
-52.53
-55.56
-56.22
-54.0
-48.82
-41.12
-31.76
-21.8
-12.2
-3.62
3.66
9.68
14.62
18.65
21.88
24.29
25.89
26.77
27.14
27.27
27.45
27.86
28.54
29.41
30.3
31.06
31.59
31.86
31.87
31.64
31.15
30.39
29.32
27.92
26.21
24.28
22.23
20.18
18.14
16.04
13.73
11.13
8.26
5.3
2.5
0.03
-2.11
-4.06
-6.07
-8.3
-10.83
-13.67
-16.73
-19.95
-23.26
-26.59
-29.89
-33.21
-36.71
-40.6
-44.92
-49.42
-53.44
-56.06
-56.39
-53.86
-48.46
-40.69
-31.39
-21.52
-11.87
-3.04
4.63
11.0
16.05
19.8
22.31
23.72
24.25
24.26
24.17
24.32
24.88
25.76
26.7
27.41
27.76
27.8
27.73
27.7
27.75
27.77
27.6
27.05
26.06
24.6
22.7
20.45
17.93
15.31
12.77
10.46
8.39
6.43
4.33
1.88
-1.02
-4.22
-7.5
-10.56
-13.24
-15.54
-17.64
-19.79
-22.26
-25.28
-28.98
-33.36
-38.2
-43.0
-46.99
-49.26
-49.03
-45.9
-40.0
-31.98
-22.8
-13.44
-4.75
2.74
8.78
13.36
16.62
18.77
20.06
20.71
20.95
20.97
20.92
20.96
21.16
21.52
22.0
22.53
23.07
23.64
24.29
24.99
25.59
25.86
25.5
24.33
22.32
19.65
16.62
13.55
10.73
8.25
6.06
3.91
1.55
-1.26
-4.57
-8.22
-11.89
-15.27
-18.14
-20.52
-22.6
-24.69
-27.16
-30.31
-34.31
-39.13
-44.38
-49.31
-52.93
-54.21
-52.45
-47.51
-39.89
-30.58
-20.74
-11.4
-3.2
3.61
9.15
13.66
17.36
20.36
22.65
24.21
25.09
25.47
25.66
25.91
26.36
26.96
27.53
27.97
28.28
28.57
29.0
29.55
30.04
30.15
29.58
28.17
26.05
23.51
20.93
18.57
16.52
14.64
12.71
10.54
8.12
5.57
3.16
1.09
-0.62
-2.16
-3.86
-6.03
-8.79
-12.02
-15.39
-18.56
-21.34
-23.75
-26.06
-28.64
-31.85
-35.88
-40.7
-45.95
-51.0
-55.01
-57.08
-56.49
-52.89
-46.49
-37.99
-28.4
-18.76
-9.89
-2.19
4.26
9.58
13.93
17.38
19.97
21.74
22.85
23.51
23.97
24.4
24.87
25.38
25.89
26.39
26.95
27.61
28.4
29.23
29.95
30.32
30.18
29.38
27.93
25.96
23.68
21.31
18.98
16.7
14.41
12.03
9.63
7.37
5.39
3.73
2.2
0.51
-1.63
-4.3
-7.33
-10.43
-13.35
-16.01
-18.51
-21.02
-23.74
-26.78
-30.25
-34.25
-38.8
-43.74
-48.54
-52.38
-54.32
-53.57
-49.81
-43.29
-34.8
-25.33
-15.88
-7.19
0.32
6.54
11.47
15.21
17.83
19.41
20.11
20.17
19.89
19.56
19.4
19.45
19.67
19.98
20.37
20.88
21.55
22.33
23.03
23.37
23.1
22.1
20.43
18.24
15.77
13.19
10.63
8.18
5.84
3.6
1.38
-0.91
-3.31
-5.79
-8.23
-10.51
-12.59
-14.55
-16.59
-19.02
-22.07
-25.8
-29.99
-34.09
-37.32
-38.88
-38.16
-34.9
-29.32
-22.02
-13.79
-5.46
2.3
9.06
14.58
18.77
21.66
23.34
23.96
23.74
22.97
21.98
21.07
20.44
20.18
20.28
20.67
21.22
21.84
22.44
22.91
23.17
23.13
22.68
21.75
20.26
18.19
15.63
12.78
9.91
7.29
5.02
3.03
1.02
-1.34
-4.26
-7.72
-11.5
-15.23
-18.58
-21.38
-23.69
-25.73
-27.85
-30.44
-33.81
-38.15
-43.3
-48.77
-53.72
-57.1
-58.0
-55.83
-50.58
-42.78
-33.35
-23.38
-13.81
-5.26
2.03
8.09
13.1
17.17
20.33
22.56
23.88
24.45
24.54
24.48
24.53
24.79
25.25
25.8
26.36
26.92
27.49
28.09
28.68
29.12
29.21
28.76
27.6
25.68
23.1
20.11
17.03
14.15
11.61
9.37
7.23
4.93
2.26
-0.83
-4.24
-7.73
-11.05
-14.04
-16.63
-18.95
-21.25
-23.88
-27.18
-31.43
-36.61
-42.35
-47.88
-52.14
-54.06
-52.91
-48.51
-41.32
-32.26
-22.46
-12.9
-4.25
3.2
9.42
14.53
18.61
21.7
23.82
25.03
25.52
25.53
25.35
25.18
25.09
25.06
25.04
25.07
25.27
25.78
26.61
27.55
28.25
28.3
27.47
25.76
23.43
20.82
18.18
15.63
13.12
10.53
7.81
4.96
2.05
-0.81
-3.54
-6.11
-8.57
-10.99
-13.46
-16.13
-19.14
-22.62
-26.67
-31.26
-36.07
-40.52
-43.76
-44.91
-43.34
-38.91
-32.08
-23.78
-15.1
-6.93
0.24
6.29
11.29
15.31
18.3
20.11
20.68
20.13
18.85
17.37
16.2
15.62
15.67
16.19
16.94
17.7
18.32
18.7
18.74
18.35
17.5
16.24
14.64
12.79
10.74
8.46
5.91
3.1
0.08
-3.02
-6.11
-9.15
-12.14
-15.13
-18.16
-21.35
-24.77
-28.45
-32.22
-35.61
-37.9
-38.35
-36.39
-31.93
-25.42
-17.65
-9.55
-1.88
4.87
10.5
15.03
18.54
21.14
22.87
23.79
23.92
23.38
22.38
21.24
20.28
19.73
19.68
19.99
20.49
20.96
21.27
21.38
21.22
20.73
19.79
18.31
16.31
13.88
11.18
8.38
5.57
2.76
-0.1
-3.1
-6.29
-9.65
-13.11
-16.55
-19.84
-22.94
-25.96
-29.18
-32.94
-37.46
-42.65
-47.96
-52.43
-55.01
-54.8
-51.45
-45.21
-36.81
-27.31
-17.68
-8.71
-0.87
5.7
11.07
15.41
18.93
21.8
24.13
25.97
27.37
28.41
29.15
29.69
30.05
30.21
30.17
29.95
29.61
29.26
28.97
28.76
28.54
28.14
27.32
25.91
23.83
21.14
18.05
14.84
11.71
8.75
5.87
2.88
-0.37
-3.89
-7.53
-11.03
-14.17
-16.83
-19.14
-21.37
-23.9
-27.08
-31.1
-35.94
-41.24
-46.33
-50.32
-52.29
-51.55
-47.88
-41.56
-33.29
-23.99
-14.54
-5.66
2.22
8.85
14.19
18.3
21.38
23.64
25.36
26.71
27.77
28.55
29.03
29.2
29.13
28.96
28.78
28.69
28.71
28.85
29.08
29.28
29.31
28.94
28.01
26.43
24.29
21.78
19.14
16.51
13.91
11.26
8.45
5.44
2.22
-1.15
-4.58
-7.99
-11.24
-14.18
-16.71
-18.88
-20.83
-22.9
-25.4
-28.64
-32.76
-37.63
-42.82
-47.55
-50.82
-51.67
-49.48
-44.22
-36.54
-27.51
-18.29
-9.82
-2.56
3.39
8.17
11.97
14.95
17.23
18.92
20.11
20.9
21.35
21.54
21.58
21.58
21.63
21.76
21.9
21.95
21.81
21.45
20.93
20.31
19.57
18.59
17.24
15.39
13.07
