0
5.37
12.54
17.84
21.76
24.62
26.59
27.84
28.67
29.47
30.54
32.01
33.77
35.58
37.24
38.68
39.94
41.09
42.1
42.87
43.17
42.76
41.44
39.07
35.64
31.34
26.54
21.81
17.69
14.48
12.04
9.83
7.15
3.48
-1.26
-6.7
-12.17
-17.06
-21.05
-24.28
-27.18
-30.31
-34.27
-39.55
-46.5
-55.12
-64.85
-74.4
-81.9
-85.37
-83.34
-75.45
-62.66
-46.92
-30.56
-15.6
-3.27
6.14
12.97
17.86
21.42
24.04
25.93
27.22
28.12
28.89
29.89
31.42
33.58
36.26
39.14
41.84
44.07
45.7
46.73
47.23
47.22
46.63
45.39
43.45
40.88
37.84
34.49
30.99
27.37
23.67
19.94
16.24
12.7
9.38
6.23
3.06
-0.37
-4.29
-8.78
-13.72
-18.83
-23.71
-28.1
-32.0
-35.77
-40.05
-45.54
-52.61
-61.02
-69.81
-77.45
-82.2
-82.65
-78.04
-68.54
-55.21
-39.68
-23.83
-9.32
2.71
11.79
18.01
21.8
23.69
24.19
23.73
22.77
21.82
21.43
21.98
23.6
26.11
29.08
32.08
34.75
36.94
38.64
39.89
40.68
40.86
40.22
38.6
35.94
32.46
28.52
24.61
21.07
18.0
15.21
12.3
8.83
4.54
-0.51
-5.96
-11.28
-15.99
-19.86
-22.98
-25.79
-28.93
-33.03
-38.57
-45.68
-54.0
-62.58
-70.0
-74.52
-74.6
-69.4
-59.15
-45.17
-29.49
-14.17
-0.78
9.97
18.09
23.89
27.74
29.83
30.32
29.54
28.08
26.7
26.13
26.75
28.56
31.17
34.01
36.54
38.38
39.46
39.89
39.87
39.55
38.9
37.73
35.78
32.85
29.0
24.52
19.89
15.55
11.73
8.36
5.11
1.59
-2.42
-6.94
-11.81
-16.72
-21.43
-25.79
-29.79
-33.6
-37.53
-42.09
-47.86
-55.24
-64.16
-73.81
-82.57
-88.4
-89.42
-84.54
-73.92
-58.92
-41.74
-24.66
-9.52
2.66
11.7
17.98
22.13
24.75
26.29
27.08
27.41
27.65
28.15
29.3
31.28
34.04
37.26
40.51
43.39
45.68
47.31
48.31
48.7
48.46
47.56
45.97
43.75
41.01
37.89
34.54
31.11
27.77
24.63
21.7
18.84
15.75
12.07
7.59
2.34
-3.34
-8.97
-14.15
-18.67
-22.66
-26.5
-30.73
-35.9
-42.49
-50.76
-60.55
-71.14
-81.21
-88.95
-92.53
-90.61
-82.83
-69.98
-53.82
-36.54
-20.18
-6.21
4.74
12.67
18.04
21.39
23.28
24.14
24.38
24.43
24.7
25.54
27.12
29.34
31.96
34.66
37.17
39.43
41.43
43.18
44.52
45.12
44.58
42.61
39.27
34.95
30.3
26.01
22.51
19.84
17.65
15.38
12.5
8.74
4.22
-0.63
-5.26
-9.25
-12.52
-15.37
-18.4
-22.4
-27.97
-35.36
-44.27
-53.78
-62.45
-68.61
-70.71
-67.76
-59.69
-47.42
-32.68
-17.48
-3.59
7.91
16.71
23.07
27.45
30.19
31.47
31.47
30.55
29.37
28.72
29.22
31.09
34.03
37.39
40.46
42.76
44.13
44.74
44.85
44.67
44.17
43.08
41.02
37.68
33.11
27.72
22.25
17.38
13.48
10.41
7.63
4.51
0.66
-3.92
-8.93
-13.91
-18.54
-22.71
-26.51
-30.19
-34.12
-38.74
-44.54
-51.87
-60.69
-70.28
-79.23
-85.65
-87.75
-84.42
-75.65
-62.53
-46.93
-30.88
-16.04
-3.37
6.84
14.78
20.76
25.04
27.83
29.37
30.04
30.42
31.11
32.57
34.84
37.59
40.25
42.31
43.55
44.11
44.35
44.54
44.64
44.34
43.17
40.83
37.36
33.17
28.84
24.9
21.63
19.03
16.8
14.54
11.81
8.35
4.09
-0.73
-5.68
-10.3
-14.31
-17.79
-21.18
-25.26
-30.76
-38.14
-47.3
-57.41
-66.97
-74.12
-77.13
-74.91
-67.37
-55.53
-41.19
-26.35
-12.71
-1.26
7.75
14.58
19.67
23.36
25.9
27.52
28.49
29.23
30.16
31.56
33.49
35.76
38.08
40.15
41.83
43.09
44.02
44.63
44.81
44.3
42.78
40.04
36.1
31.32
26.31
21.71
17.99
15.23
13.05
10.77
7.75
3.71
-1.17
-6.27
-10.84
-14.45
-17.1
-19.29
-21.83
-25.48
-30.8
-37.86
-46.23
-54.99
-62.78
-68.0
-69.24
-65.63
-57.22
-45.04
-30.81
-16.47
-3.63
6.79
14.57
19.97
23.46
25.43
26.17
25.94
25.09
24.03
23.25
23.15
23.9
25.49
27.69
30.2
32.69
34.88
36.51
37.33
37.11
35.74
33.29
30.0
26.27
22.47
18.85
15.42
12.03
8.46
4.59
0.46
-3.77
-7.86
-11.68
-15.22
-18.65
-22.29
-26.56
-31.87
-38.5
-46.35
-54.72
-62.34
-67.54
-68.74
-65.03
-56.5
-44.3
-30.23
-16.21
-3.74
6.37
13.98
19.39
23.11
25.55
27.02
27.7
27.8
27.58
27.38
27.54
28.26
29.57
31.2
32.86
34.23
35.22
35.82
36.05
35.8
34.79
32.75
29.6
25.57
21.2
17.07
13.54
10.63
7.97
5.05
1.47
-2.89
-7.8
-12.81
-17.45
-21.43
-24.73
-27.62
-30.61
-34.32
-39.31
-45.86
-53.81
-62.41
-70.29
-75.76
-77.17
-73.53
-64.84
-52.18
-37.44
-22.69
-9.63
0.83
8.6
14.15
18.14
21.09
23.27
24.81
25.82
26.56
27.35
28.51
30.16
32.14
34.13
35.78
36.95
37.78
38.5
39.28
40.01
40.3
39.63
37.65
34.39
30.24
25.8
21.67
18.19
15.4
12.99
10.52
7.51
3.73
-0.8
-5.73
-10.59
-14.99
-18.77
-22.16
-25.58
-29.59
-34.66
-41.09
-48.82
-57.37
-65.7
-72.25
-75.38
-73.78
-67.11
-56.17
-42.73
-28.87
-16.29
-5.89
2.26
8.61
13.63
17.58
20.48
22.34
23.3
23.72
24.07
24.72
25.89
27.55
29.48
31.43
33.12
34.42
35.25
35.61
35.49
34.84
33.55
31.5
28.71
25.34
21.74
18.3
15.23
12.51
9.84
6.82
3.19
-1.0
-5.44
-9.69
-13.38
-16.45
-19.12
-21.88
-25.28
-29.84
-35.87
-43.26
-51.37
-58.98
-64.5
-66.35
-63.54
-56.0
-44.69
-31.28
-17.61
-5.15
5.3
13.56
19.81
24.3
27.14
28.39
28.19
26.93
25.2
23.7
22.99
23.33
24.59
26.38
28.25
29.91
31.28
32.39
33.28
33.8
33.65
32.46
30.07
26.6
22.46
18.17
14.2
10.75
7.71
4.77
1.52
-2.34
-6.89
-11.93
-16.99
-21.55
-25.22
-28.01
-30.4
-33.27
-37.52
-43.72
-51.72
-60.55
-68.58
-73.9
-74.95
-70.94
-62.14
-49.82
-35.82
-22.03
-9.91
-0.16
7.2
12.62
16.59
19.48
21.45
22.61
23.16
23.49
24.01
25.01
26.49
28.22
29.84
31.11
32.04
32.79
33.57
34.45
35.27
35.71
35.38
34.03
31.6
28.24
24.34
20.37
16.8
13.86
11.5
9.36
6.89
3.67
-0.46
-5.23
-10.13
-14.63
-18.41
-21.52
-24.37
-27.56
-31.68
-37.16
-44.08
-52.09
-60.32
-67.48
-72.07
-72.76
-68.81
-60.37
-48.53
-34.95
-21.47
-9.49
0.24
7.71
13.3
17.45
20.41
22.24
22.97
22.86
22.4
22.22
22.83
24.31
26.34
28.38
29.96
30.95
31.53
32.04
32.68
33.32
33.51
32.7
30.6
27.28
23.27
19.25
15.78
13.08
10.97
9.0
6.67
3.66
-0.1
-4.39
-8.87
-13.14
-16.88
-20.0
-22.71
-25.49
-29.03
-33.93
-40.5
-48.43
-56.76
-63.95
-68.25
-68.17
-62.99
-53.02
-39.57
-24.58
-10.08
2.4
12.14
19.15
23.91
26.92
28.51
28.83
28.01
26.4
24.6
23.32
23.06
23.9
25.45
27.12
28.42
29.21
29.66
30.07
30.55
30.92
30.7
29.43
26.88
23.27
19.13
15.08
11.51
8.45
5.6
2.54
-1.03
-5.12
-9.45
-13.59
-17.2
-20.22
-22.92
-25.84
-29.58
-34.62
-41.12
-48.79
-56.83
-64.04
-68.93
-70.14
-66.76
-58.76
-46.96
-32.95
-18.57
-5.45
5.38
13.57
19.29
23.01
25.19
26.22
26.43
26.14
25.72
25.51
25.75
26.49
27.63
28.94
30.22
31.31
32.15
32.69
32.92
32.76
32.13
30.9
28.94
26.19
22.67
18.58
14.3
10.29
6.94
4.4
2.46
0.65
-1.55
-4.5
-8.2
-12.34
-16.48
-20.24
-23.55
-26.59
-29.81
-33.7
-38.68
-44.98
-52.41
-60.36
-67.71
-73.03
-74.86
-72.14
-64.58
-52.83
-38.31
-22.87
-8.35
3.93
13.33
19.88
24.08
26.6
28.06
28.86
29.2
29.2
29.01
28.8
28.82
29.21
29.98
30.94
31.87
32.59
33.04
33.28
33.36
33.21
32.64
31.41
29.33
26.42
22.89
19.14
15.61
12.65
10.36
8.55
6.79
4.57
1.53
-2.39
-6.89
-11.45
-15.55
-18.97
-21.85
-24.72
-28.18
-32.81
-38.87
-46.19
-54.21
-61.91
-68.0
-71.11
-70.18
-64.76
-55.2
-42.66
-28.73
-15.09
-3.13
6.37
13.23
17.71
20.26
21.35
21.32
20.48
19.18
17.88
17.1
17.29
18.62
20.88
23.58
26.19
28.36
30.0
31.19
31.94
32.13
31.41
29.54
26.53
22.72
18.7
15.03
11.94
9.3
6.65
3.47
-0.52
-5.25
-10.35
-15.27
-19.55
-22.98
-25.67
-28.02
-30.68
-34.35
-39.57
-46.52
-54.77
-63.22
-70.21
-74.0
-73.21
-67.34
-56.94
-43.49
-28.96
-15.16
-3.43
5.67
12.2
16.55
19.15
20.4
20.59
20.05
19.26
18.72
18.89
19.99
21.91
24.29
26.71
28.8
30.45
31.72
32.68
33.33
33.44
32.72
30.86
27.81
23.76
19.19
14.67
10.65
7.29
4.39
1.56
-1.6
-5.29
-9.4
-13.68
-17.78
-21.56
-25.04
-28.51
-32.32
-36.92
-42.66
-49.75
-58.03
-66.81
-74.74
-80.06
-81.05
-76.69
-67.13
-53.67
-38.42
-23.58
-10.73
-0.57
7.05
12.72
17.01
20.31
22.77
24.48
25.6
26.4
27.21
28.3
29.79
31.68
33.84
36.1
38.29
40.25
41.81
42.8
43.02
42.27
40.42
37.5
33.71
29.45
25.16
21.21
17.7
14.42
11.0
7.08
2.55
-2.41
-7.35
-11.84
-15.58
-18.64
-21.38
-24.41
-28.36
-33.75
-40.81
-49.23
-58.11
-65.93
-70.86
-71.29
-66.39
-56.45
-42.88
-27.74
-13.09
-0.43
9.58
16.96
22.12
25.48
27.34
27.86
27.25
25.87
24.27
23.06
22.8
23.74
25.74
28.35
30.91
32.84
33.88
34.06
33.64
32.83
31.63
29.81
27.06
23.24
18.53
13.36
8.28
3.7
-0.21
-3.51
-6.46
-9.35
-12.55
-16.45
-21.42
-27.62
-34.83
-42.27
-48.67
-52.49
-52.44
-47.85
-38.93
-26.79
-13.06
0.53
12.59
22.3
29.43
34.12
36.67
37.41
36.65
34.81
32.52
30.49
29.43
29.74
31.41
33.99
36.75
38.94
40.06
39.92
38.71
36.74
34.33
31.65
28.7
25.33
21.37
16.77
11.65
6.26
0.94
-4.05
-8.53
-12.61
-16.51
-20.68
-25.62
-31.74
-39.19
-47.59
-56.02
-63.07
-67.14
-66.84
-61.54
-51.56
-38.15
-23.19
-8.63
4.03
14.01
21.3
26.38
29.8
32.03
33.28
33.73
33.67
33.54
33.88
35.01
36.94
39.37
41.77
43.73
45.0
45.51
45.32
44.47
42.97
40.86
38.22
35.18
31.85
28.23
24.27
19.88
15.01
9.76
4.35
-0.9
-5.75
-10.05
-13.83
-17.35
-21.01
-25.37
-30.93
-38.02
-46.52
-55.66
-64.04
-69.81
-71.24
-67.25
-57.9
-44.41
-28.8
-13.29
0.38
11.32
19.45
25.22
29.23
31.93
33.58
34.33
34.43
34.23
34.15
34.53
35.44
36.74
38.09
39.21
40.0
40.5
40.8
40.92
40.62
39.54
37.4
34.15
30.09
25.74
21.61
17.96
14.75
11.65
8.29
4.43
0.04
-4.66
-9.31
-13.57
-17.26
-20.45
-23.52
-27.02
-31.57
-37.62
-45.15
-53.57
-61.62
-67.69
-70.16
-67.88
-60.6
-49.05
-34.9
-20.18
-6.81
3.97
11.73
16.82
19.9
21.68
22.61
22.9
22.67
22.15
21.64
21.53
22.08
23.4
25.36
27.69
30.1
32.33
34.17
35.41
35.85
35.31
33.67
30.89
27.12
22.6
17.72
12.87
8.39
4.48
1.13
-1.81
-4.59
-7.37
-10.29
-13.4
-16.82
-20.74
-25.48
-31.31
-38.34
-46.21
-54.04
-60.5
-64.16
-63.84
-59.05
-50.17
-38.34
-25.19
-12.35
-1.06
8.0
14.72
19.37
22.34
23.99
24.61
24.43
23.8
23.16
23.03
23.81
25.57
28.02
30.57
32.66
33.97
34.54
34.65
34.51
34.12
33.16
31.19
27.98
23.69
18.86
14.24
10.39
7.52
5.37
3.39
0.98
-2.2
-6.17
-10.6
-15.05
-19.08
-22.58
-25.7
-28.9
-32.76
-37.89
-44.59
-52.8
-61.85
-70.48
-76.99
-79.65
-77.23
-69.42
-57.03
-41.82
-25.95
-11.41
0.52
9.41
15.49
19.33
21.52
22.5
22.64
22.27
21.77
21.58
21.98
23.04
24.6
26.32
27.93
29.25
30.28
31.1
31.73
32.07
31.92
31.08
29.4
26.92
23.83
20.39
16.91
13.56
10.4
7.31
4.1
0.58
-3.28
-7.35
-11.36
-15.02
-18.23
-21.1
-23.98
-27.4
-31.83
-37.57
-44.6
-52.41
-60.01
-65.98
-68.77
-67.18
-60.77
-50.14
-36.78
-22.65
-9.55
1.36
9.69
15.63
19.6
21.99
23.04
23.04
22.36
21.53
21.11
21.47
22.7
24.58
26.76
28.85
30.65
32.06
33.06
33.63
33.62
32.84
31.08
28.22
24.37
19.87
15.25
11.1
7.78
5.32
3.37
1.34
-1.31
-4.84
-9.14
-13.81
-18.38
-22.56
-26.36
-30.15
-34.45
-39.81
-46.55
-54.6
-63.34
-71.61
-77.86
-80.55
-78.57
-71.6
-60.31
-46.13
-30.91
-16.38
-3.81
6.17
13.5
18.51
21.7
23.54
24.46
24.8
24.91
25.15
25.82
27.09
28.95
31.15
33.3
35.11
36.38
37.15
37.54
37.65
37.38
36.51
34.77
32.07
28.57
24.66
20.79
17.29
14.18
11.25
8.12
4.44
0.1
-4.78
-9.87
-14.7
-18.94
-22.43
-25.36
-28.22
-31.67
-36.34
-42.6
-50.28
-58.58
-66.12
-71.2
-72.28
-68.47
-59.85
-47.49
-33.18
-18.89
-6.21
3.95
11.39
16.43
19.53
21.11
21.54
21.15
20.38
19.76
19.74
20.56
22.22
24.51
27.15
29.91
32.58
34.94
36.7
37.53
37.18
35.57
32.9
29.49
25.72
21.85
18.03
14.27
10.59
6.98
3.46
-0.01
-3.45
-6.91
-10.35
-13.75
-17.14
-20.69
-24.8
-29.92
-36.45
-44.25
-52.6
-60.07
-64.88
-65.41
-60.8
-51.3
-38.26
-23.7
-9.67
2.33
11.63
18.28
22.76
25.54
27.0
27.42
27.05
26.31
25.67
25.57
26.21
27.53
29.26
31.12
32.91
34.6
36.18
37.57
38.54
38.7
37.67
35.26
31.57
26.99
22.16
17.67
13.93
11.0
8.6
6.2
3.28
-0.42
-4.82
-9.49
-13.95
-17.92
-21.43
-24.9
-28.87
-33.89
-40.26
-47.91
-56.29
-64.43
-70.92
-74.19
-72.96
-66.66
-55.69
-41.43
-25.86
-10.93
1.9
11.95
19.2
24.05
27.0
28.51
28.97
28.76
28.34
28.11
28.34
29.13
30.34
31.74
33.13
34.4
35.59
36.72
37.75
38.54
38.74
38.01
36.08
32.94
28.86
24.33
19.91
16.04
12.85
10.12
7.45
4.38
0.73
-3.45
-7.85
-12.12
-16.0
-19.43
-22.6
-25.91
-29.91
-35.11
-41.79
-49.7
-57.82
-64.52
-67.97
-66.7
-60.22
-49.19
-35.2
-20.26
-6.19
5.8
15.14
21.86
26.27
28.74
29.63
29.28
28.05
26.37
24.71
23.52
23.14
23.67
25.0
26.85
28.87
30.83
32.58
34.06
35.12
35.53
34.99
33.28
30.42
26.73
22.74
18.9
15.48
12.39
9.34
5.98
2.12
-2.21
-6.8
-11.35
-15.64
-19.57
-23.23
-26.92
-31.1
-36.32
-42.92
-50.82
-59.25
-66.79
-71.71
-72.45
-68.26
-59.41
-47.2
-33.45
-19.97
-8.1
1.54
8.89
14.32
18.21
20.88
22.53
23.31
23.47
23.39
23.52
24.26
25.77
27.92
30.36
32.69
34.65
36.15
37.25
38.0
38.33
38.03
36.91
34.8
31.76
28.01
23.93
19.96
16.49
13.76
11.71
10.01
8.09
5.45
1.87
-2.46
-7.0
-11.22
-14.82
-17.94
-21.08
-24.88
-29.83
-36.18
-43.83
-52.32
-60.76
-67.86
-72.09
-72.09
-67.15
-57.59
-44.74
-30.53
-16.92
-5.26
3.88
10.59
15.28
18.38
20.21
21.02
21.06
20.7
20.39
20.47
21.17
22.5
24.33
26.37
28.36
30.08
31.43
32.37
32.87
32.86
32.11
30.35
27.43
23.41
18.7
13.95
9.79
6.58
4.27
2.44
0.53
-1.87
-4.83
-8.14
-11.43
-14.45
-17.19
-19.88
-22.91
-26.71
-31.63
-37.83
-45.15
-52.99
-60.19
-65.29
-66.86
-63.96
-56.54
-45.55
-32.56
-19.27
-7.13
3.05
11.0
16.76
20.46
22.22
22.25
20.88
18.74
16.61
15.25
15.19
16.55
19.06
22.19
25.33
27.96
29.76
30.63
30.58
29.71
28.15
26.0
23.37
20.34
16.99
13.34
9.41
5.22
0.79
-3.78
-8.33
-12.73
-16.81
-20.53
-24.05
-27.71
-31.98
-37.34
-44.01
-51.71
-59.56
-66.13
-69.79
-69.19
-63.75
-53.89
-40.95
-26.79
-13.24
-1.65
7.32
13.67
17.78
20.15
21.24
21.48
21.25
20.93
20.91
21.49
22.8
24.76
27.15
29.66
32.0
33.98
35.46
36.35
36.56
36.01
34.69
32.6
29.85
26.58
23.02
19.36
15.78
12.33
8.92
5.36
1.48
-2.79
-7.31
-11.8
-15.98
-19.76
-23.3
-27.04
-31.57
-37.39
-44.78
-53.56
-62.92
-71.49
-77.45
-79.07
-75.23
-65.95
-52.5
-37.03
-21.86
-8.79
1.38
8.74
13.93
17.62
20.25
22.02
23.06
23.62
24.06
24.75
25.94
27.67
29.79
32.15
34.57
36.96
39.21
41.18
42.6
43.19
42.67
40.87
37.82
33.75
29.11
24.45
20.21
16.58
13.41
10.27
6.72
2.57
-2.04
-6.7
-10.96
-14.63
-17.88
-21.21
-25.25
-30.53
-37.21
-45.01
-53.12
-60.24
-64.85
-65.51
-61.32
-52.31
-39.47
-24.55
-9.59
3.75
14.44
22.24
27.43
30.55
32.06
32.4
31.87
30.81
29.62
28.71
28.44
29.02
30.47
32.59
35.11
37.71
40.04
41.83
42.79
42.68
41.32
38.7
34.92
30.37
25.57
21.02
17.02
13.58
10.38
6.98
3.09
-1.37
-6.2
-10.99
-15.43
-19.35
-22.88
-26.34
-30.28
-35.26
-41.65
-49.34
-57.56
-64.82
-69.28
-69.27
-64.01
-53.91
-40.5
-25.88
-12.04
-0.33
8.74
15.28
19.75
22.56
24.09
24.65
24.64
24.5
24.75
25.79
27.79
30.61
33.82
36.84
39.2
40.65
41.34
41.58
41.69
41.74
41.47
40.4
38.1
34.48
29.88
24.88
20.17
16.1
12.72
9.74
6.73
3.39
-0.38
-4.45
-8.55
-12.4
-15.9
-19.08
-22.25
-25.85
-30.4
-36.29
-43.63
-51.94
-60.19
-66.9
-70.45
-69.59
-63.88
-53.82
-40.86
-26.93
-13.9
-3.12
4.9
10.41
14.06
16.56
18.34
19.53
20.1
20.12
19.88
19.8
20.36
21.75
23.82
26.18
28.34
30.0
31.04
31.5
31.41
30.75
29.38
27.17
24.2
20.67
16.91
13.27
9.92
6.86
3.93
0.97
-2.12
-5.27
-8.35
-11.28
-14.11
-17.11
-20.69
-25.26
-31.02
-37.77
-44.86
-51.17
-55.36
-56.17
-52.88
-45.55
-35.13
-23.16
-11.31
-0.92
7.38
13.62
18.17
21.43
23.57
24.6
24.57
23.79
22.87
22.45
23.0
24.53
26.69
28.96
30.95
32.45
33.5
34.08
34.1
33.32
31.5
28.59
24.79
20.56
16.43
12.86
10.02
7.77
5.66
3.16
-0.16
-4.43
-9.35
-14.32
-18.75
-22.27
-24.92
-27.23
-29.96
-33.87
-39.45
-46.68
-54.87
-62.77
-68.76
-71.26
-69.2
-62.38
-51.56
-38.32
-24.55
-11.94
-1.6
6.12
11.41
14.8
16.76
17.63
17.6
16.91
15.91
15.09
14.93
15.71
17.4
19.71
22.21
24.55
26.55
28.21
29.56
30.53
30.93
30.49
29.01
26.47
23.12
19.43
15.92
12.98
10.73
8.91
7.05
4.63
1.33
-2.78
-7.3
-11.69
-15.52
-18.71
-21.6
-24.8
-28.96
-34.5
-41.41
-49.14
-56.61
-62.43
-65.21
-63.97
-58.42
-49.12
-37.28
-24.43
-12.03
-1.12
7.79
14.57
19.34
22.3
23.64
23.66
22.77
21.48
20.39
20.01
20.62
22.19
24.39
26.75
28.86
30.54
31.8
32.76
33.41
33.56
32.86
30.94
27.7
23.39
18.55
13.85
9.8
6.62
4.12
1.87
-0.68
-3.9
-7.92
-12.51
-17.23
-21.59
-25.28
-28.27
-30.89
-33.76
-37.6
-43.01
-50.18
-58.68
-67.38
-74.57
-78.36
-77.3
-70.83
-59.56
-45.17
-29.79
-15.45
-3.44
5.78
12.45
17.13
20.34
22.4
23.49
23.83
23.8
23.91
24.64
26.19
28.43
30.96
33.3
35.17
36.55
37.6
38.52
39.37
40.01
40.15
39.47
37.73
34.85
30.98
26.46
21.81
17.56
14.06
11.25
8.7
5.78
2.04
-2.56
-7.61
-12.48
-16.63
-19.97
-22.87
-26.04
-30.18
-35.8
-43.01
-51.47
-60.33
-68.32
-73.85
-75.42
-72.05
-63.67
-51.25
-36.53
-21.48
-7.78
3.55
12.21
18.4
22.5
24.89
25.93
25.97
25.49
25.04
25.16
26.16
28.03
30.51
33.15
35.58
37.64
39.35
40.84
42.07
42.86
42.81
41.49
38.73
34.75
30.09
25.41
21.18
17.5
14.12
10.6
6.62
2.14
-2.62
-7.3
-11.56
-15.25
-18.47
-21.58
-25.14
-29.83
-36.2
-44.37
-53.73
-62.86
-69.76
-72.55
-69.99
-62.06
-49.87
-35.3
-20.35
-6.62
4.95
14.05
20.8
25.43
28.29
29.73
30.18
30.12
30.03
30.31
31.22
32.8
34.93
37.27
39.45
41.17
42.34
43.05
43.52
43.84
43.88
43.23
41.43
38.23
33.79
28.69
23.7
19.45
16.15
13.56
11.08
8.1
4.3
-0.32
-5.39
-10.46
-15.14
-19.29
-23.0
-26.63
-30.68
-35.68
-42.06
-49.91
-58.75
-67.49
-74.42
-77.73
-75.97
-68.7
-56.62
-41.53
-25.66
-11.08
0.93
9.97
16.34
20.66
23.44
25.0
25.49
25.15
24.41
23.83
23.91
24.88
26.63
28.76
30.88
32.74
34.32
35.71
36.94
37.88
38.21
37.57
35.72
32.67
28.69
24.26
19.93
16.12
13.01
10.41
7.9
4.99
1.43
-2.7
-7.0
-10.96
-14.27
-17.0
-19.64
-22.83
-27.16
-32.93
-40.05
-48.0
-55.83
-62.2
-65.57
-64.58
-58.61
-48.03
-34.35
-19.64
-5.95
5.35
13.82
19.78
23.77
26.28
27.51
27.53
26.54
24.99
23.54
22.83
23.28
24.92
27.39
30.21
32.86
35.01
36.52
37.43
37.75
37.45
36.39
34.36
31.3
27.29
22.69
18.04
13.8
10.27
7.36
4.68
1.69
-2.02
-6.63
-11.88
-17.33
-22.47
-26.98
-30.84
-34.36
-38.1
-42.69
-48.68
-56.3
-65.27
-74.55
-82.51
-87.22
-87.07
-81.31
-70.32
-55.55
-39.01
-22.71
-8.14
3.84
13.04
19.64
24.03
26.61
27.83
28.09
27.83
27.43
27.21
27.42
28.14
29.32
30.74
32.11
33.25
34.08
34.68
35.15
35.52
35.62
35.09
33.54
30.67
26.53
21.52
16.28
11.53
7.71
4.87
2.6
0.32
-2.56
-6.25
-10.63
-15.26
-19.61
-23.41
-26.73
-29.95
-33.69
-38.55
-44.88
-52.56
-60.85
-68.45
-73.69
-75.02
-71.48
-63.09
-50.92
-36.77
-22.58
-9.93
0.28
7.92
13.26
16.78
18.85
19.76
19.76
19.24
18.66
18.51
19.13
20.68
23.05
25.94
29.03
31.98
34.52
36.38
37.3
37.1
35.66
33.1
29.69
25.81
21.82
17.97
14.31
10.72
6.97
2.84
-1.77
-6.75
-11.82
-16.65
-21.03
-25.04
-29.03
-33.59
-39.3
-46.41
-54.67
-63.22
-70.7
-75.48
-76.14
-71.8
-62.47
-49.19
-33.71
-18.09
-4.07
7.32
15.86
21.91
26.01
28.6
29.92
30.26
29.98
29.63
29.73
30.61
32.19
34.16
36.13
37.9
39.43
40.82
42.1
43.17
43.73
43.47
42.1
39.47
35.63
30.84
25.56
20.36
15.76
12.01
8.97
6.19
3.14
-0.49
-4.66
-8.99
-13.01
-16.5
-19.63
-22.93
-27.15
-32.96
-40.73
-50.26
-60.73
-70.69
-78.32
-81.84
-80.05
-72.7
-60.69
-45.81
-30.16
-15.67
-3.57
5.69
12.23
16.53
19.12
20.44
20.85
20.69
20.29
20.05
20.3
21.34
23.25
25.98
29.27
32.73
35.94
38.5
40.12
40.65
40.1
38.51
36.04
32.9
29.3
25.45
21.49
17.51
13.53
9.49
5.38
1.25
-2.82
-6.76
-10.6
-14.53
-18.95
-24.31
-30.98
-38.94
-47.6
-55.74
-61.7
-63.81
-60.95
-52.99
-40.9
-26.46
-11.76
1.47
12.18
20.1
25.51
28.95
30.92
31.79
31.81
31.26
30.47
29.83
29.73
30.49
32.12
34.41
36.95
39.25
40.88
41.62
41.42
40.25
38.19
35.28
31.66
27.58
23.44
19.59
16.21
13.18
10.12
6.62
2.46
-2.26
-7.18
-11.89
-16.15
-20.07
-23.99
-28.46
-34.02
-41.01
-49.4
-58.58
-67.31
-73.81
-76.26
-73.37
-64.94
-52.05
-36.73
-21.29
-7.54
3.6
12.11
18.48
23.22
26.56
28.46
28.91
28.13
26.71
25.45
25.05
25.86
27.74
30.18
32.59
34.53
35.87
36.63
36.88
36.55
35.44
33.32
30.19
26.31
22.15
18.21
14.75
11.69
8.74
5.52
1.85
-2.17
-6.23
-9.99
-13.25
-16.11
-18.91
-22.21
-26.59
-32.42
-39.64
-47.54
-54.78
-59.62
-60.4
-56.17
-46.98
-34.03
-19.22
-4.58
8.26
18.43
25.75
30.49
33.09
34.03
33.72
32.65
31.36
30.36
30.02
30.49
31.66
33.28
35.03
36.66
37.96
38.81
39.11
38.79
37.75
35.95
33.32
29.92
25.85
21.41
16.98
12.83
9.07
5.52
1.88
-2.11
-6.44
-10.87
-15.07
-18.84
-22.28
-25.75
-29.73
-34.69
-40.93
-48.45
-56.83
-65.08
-71.74
-75.08
-73.71
-67.05
-55.69
-41.24
-25.79
-11.29
0.98
10.49
17.35
21.92
24.61
25.87
26.13
25.9
25.63
25.68
26.25
27.34
28.84
30.54
32.26
33.81
35.07
36.02
36.67
36.99
36.84
35.97
34.09
31.09
27.18
22.83
18.6
14.91
11.81
9.03
6.13
2.79
-1.11
-5.41
-9.84
-14.14
-18.14
-21.81
-25.29
-28.9
-33.08
-38.35
-45.0
-52.8
-60.78
-67.34
-70.69
-69.38
-62.94
-52.06
-38.42
-24.11
-10.95
-0.06
8.21
14.14
18.22
20.86
22.26
22.59
22.03
21.0
20.03
19.65
20.2
21.71
23.89
26.31
28.59
30.47
31.88
32.79
33.13
32.75
31.51
29.3
26.21
22.44
18.29
14.01
9.82
5.84
2.09
-1.41
-4.75
-7.96
-11.1
-14.21
-17.34
-20.67
-24.47
-29.15
-35.04
-42.22
-50.18
-57.8
-63.53
-65.8
-63.57
-56.66
-45.84
-32.6
-18.71
-5.78
5.08
13.37
19.11
22.73
24.78
25.77
26.13
26.09
25.84
25.58
25.5
25.84
26.66
27.9
29.31
30.62
31.64
32.27
32.48
32.14
31.08
29.11
26.18
22.49
18.45
14.57
11.21
8.51
6.33
4.31
2.04
-0.79
-4.25
-8.18
-12.19
-15.84
-18.89
-21.43
-24.02
-27.44
-32.44
-39.31
-47.67
-56.38
-63.79
-68.18
-68.21
-63.37
-54.09
-41.7
-28.01
-14.85
-3.65
4.88
10.75
14.41
16.5
17.55
17.92
17.81
17.48
17.24
17.43
18.34
20.03
22.37
25.05
27.75
30.17
32.12
33.41
33.83
33.23
31.55
28.88
25.51
21.75
17.89
14.09
10.44
6.93
3.53
0.18
-3.19
-6.65
-10.14
-13.57
-16.78
-19.76
-22.73
-26.13
-30.51
-36.21
-43.11
-50.52
-57.21
-61.7
-62.68
-59.36
-51.76
-40.71
-27.7
-14.45
-2.53
7.09
14.05
18.6
21.24
22.42
22.48
21.63
20.17
18.56
17.37
17.11
18.0
19.87
22.23
24.56
26.47
27.83
28.62
28.79
28.22
26.74
24.32
21.14
17.57
13.99
10.71
7.75
4.98
2.17
-0.89
-4.3
-8.06
-11.99
-15.91
-19.66
-23.21
-26.8
-30.87
-35.92
-42.27
-49.78
-57.67
-64.66
-69.18
-69.84
-65.88
-57.4
-45.44
-31.65
-17.87
-5.64
4.17
11.43
16.51
19.97
22.32
23.85
24.72
25.06
25.14
25.28
25.84
27.04
28.83
30.97
33.06
34.74
35.79
36.16
35.94
35.24
34.09
32.39
29.98
26.81
23.0
18.93
15.13
12.0
9.66
7.8
5.8
3.01
-0.91
-5.8
-11.07
-15.97
-19.95
-22.91
-25.22
-27.61
-30.81
-35.4
-41.53
-48.86
-56.51
-63.15
-67.17
-67.21
-62.52
-53.39
-41.09
-27.48
-14.45
-3.38
5.17
11.23
15.19
17.53
18.62
18.75
18.27
17.55
16.97
16.85
17.38
18.58
20.38
22.54
24.75
26.71
28.16
28.94
29.01
28.39
27.15
25.31
22.97
20.22
17.24
14.15
11.02
7.84
4.58
1.25
-2.04
-5.18
-8.09
-10.86
-13.68
-16.85
-20.64
-25.33
-31.08
-37.86
-45.24
-52.26
-57.53
-59.55
-57.25
-50.44
-39.96
-27.43
-14.7
-3.29
5.95
12.83
17.57
20.56
22.12
22.56
22.19
21.38
20.54
20.03
20.12
20.87
22.19
23.87
25.62
27.17
28.38
29.14
29.42
29.15
28.21
26.5
24.02
20.92
17.52
14.17
11.09
8.29
5.6
2.78
-0.31
-3.65
-7.03
-10.31
-13.41
-16.48
-19.78
-23.62
-28.31
-34.05
-40.9
-48.62
-56.61
-63.8
-68.79
-70.16
-67.02
-59.36
-48.14
-35.1
-22.17
-10.86
-1.91
4.69
9.44
12.93
15.49
17.23
18.11
18.2
17.77
17.28
17.27
18.1
19.88
22.38
25.15
27.71
29.67
30.79
31.03
30.35
28.77
26.31
23.16
19.6
16.0
12.66
9.61
6.67
3.53
0.01
-3.82
-7.72
-11.45
-14.9
-18.22
-21.71
-25.65
-30.25
-35.57
-41.51
-47.68
-53.33
-57.29
-58.21
-54.99
-47.26
-35.71
-21.87
-7.67
5.14
15.46
22.98
27.88
30.62
31.61
31.23
29.79
27.67
25.39
23.49
22.51
22.75
24.28
26.78
29.67
32.29
34.07
34.71
34.19
32.71
30.47
27.66
24.42
20.92
17.37
13.99
10.87
7.92
4.92
1.64
-2.0
-5.89
-9.79
-13.47
-16.86
-20.11
-23.58
-27.72
-33.02
-39.73
-47.72
-56.24
-63.91
-69.03
-69.99
-65.97
-57.19
-44.97
-31.28
-18.07
-6.74
2.17
8.79
13.59
17.01
19.31
20.59
20.96
20.71
20.29
20.16
20.67
21.89
23.66
25.67
27.62
29.3
30.61
31.51
31.91
31.64
30.53
28.45
25.46
21.81
17.91
14.13
10.64
7.36
4.03
0.42
-3.53
-7.58
-11.35
-14.52
-17.07
-19.3
-21.81
-25.22
-30.05
-36.41
-43.95
-51.79
-58.64
-62.91
-63.22
-58.82
-49.83
-37.37
-23.23
-9.33
2.87
12.59
19.73
24.64
27.76
29.42
29.87
29.38
28.33
27.24
26.63
26.88
28.08
29.98
32.18
34.23
35.81
36.75
37.05
36.72
35.76
34.11
31.72
28.65
25.1
21.29
17.46
13.62
9.68
5.47
0.97
-3.71
-8.29
-12.52
-16.32
-19.85
-23.49
-27.73
-33.03
-39.64
-47.47
-55.9
-63.78
-69.54
-71.56
-68.69
-60.72
-48.59
-34.05
-19.2
-5.76
5.33
13.9
20.32
25.09
28.54
30.82
32.02
32.29
31.93
31.32
30.85
30.76
31.18
32.09
33.36
34.77
36.07
37.02
37.41
37.1
36.03
34.18
31.59
28.36
24.65
20.68
16.72
12.9
9.27
5.71
2.07
-1.75
-5.7
-9.6
-13.25
-16.58
-19.75
-23.17
-27.38
-32.83
-39.68
-47.49
-55.17
-61.1
-63.58
-61.35
-54.06
-42.52
-28.39
-13.71
-0.26
10.89
19.38
25.46
29.53
31.95
32.99
32.88
31.96
30.74
29.73
29.4
30.02
31.57
33.78
36.25
38.52
40.18
40.96
40.71
39.4
37.12
33.97
30.14
25.85
21.36
16.84
12.43
8.09
3.73
-0.74
-5.33
-9.9
-14.27
-18.34
-22.2
-26.14
-30.66
-36.23
-43.08
-50.98
-59.08
-66.06
-70.31
-70.46
-65.74
-56.3
-43.27
-28.38
-13.5
-0.15
10.83
19.25
25.35
29.56
32.23
33.66
34.15
34.08
33.93
34.17
35.07
36.68
38.75
40.96
42.98
44.63
45.88
46.73
47.13
46.88
45.73
43.45
40.02
35.65
30.81
26.0
21.53
17.44
13.5
9.33
4.67
-0.48
-5.87
-11.05
-15.7
-19.71
-23.31
-27.0
-31.39
-37.02
-44.12
-52.47
-61.22
-68.98
-74.02
-74.81
-70.49
-61.24
-48.32
-33.66
-19.28
-6.7
3.31
