0
15.78
15.59
14.77
13.63
12.46
11.38
10.35
9.11
7.39
5.04
2.14
-1.06
-4.24
-7.16
-9.75
-12.1
-14.39
-16.82
-19.57
-22.79
-26.63
-31.09
-35.94
-40.61
-44.18
-45.62
-44.13
-39.42
-31.93
-22.7
-12.99
-3.97
3.63
9.55
13.8
16.49
17.69
17.43
15.94
13.68
11.32
9.53
8.72
8.88
9.69
10.68
11.47
11.88
11.93
11.78
11.55
11.31
11.02
10.56
9.74
8.37
6.35
3.69
0.6
-2.62
-5.69
-8.49
-11.03
-13.43
-15.84
-18.36
-21.15
-24.43
-28.44
-33.2
-38.33
-42.95
-45.84
-45.89
-42.5
-35.83
-26.73
-16.41
-6.03
3.51
11.64
17.99
22.34
24.6
24.86
23.51
21.16
18.52
16.23
14.65
13.9
13.81
14.12
14.55
14.89
15.09
15.15
15.09
14.83
14.18
12.87
10.76
7.86
4.39
0.72
-2.85
-6.14
-9.18
-12.17
-15.32
-18.86
-23.0
-27.82
-33.23
-38.8
-43.68
-46.74
-46.88
-43.42
-36.42
-26.7
-15.58
-4.44
5.63
14.02
20.5
25.03
27.62
28.35
27.44
25.28
22.49
19.66
17.28
15.56
14.51
13.98
13.83
13.94
14.2
14.46
14.53
14.19
13.2
11.44
8.89
5.71
2.2
-1.33
-4.65
-7.71
-10.72
-14.06
-18.18
-23.4
-29.68
-36.49
-42.8
-47.23
-48.41
-45.44
-38.21
-27.52
-14.9
-2.13
9.26
18.28
24.62
28.45
30.1
29.98
28.46
25.96
22.95
19.92
17.32
15.41
14.28
13.85
13.96
14.38
14.92
15.37
15.54
15.25
14.32
12.63
10.16
7.0
3.38
-0.39
-4.06
-7.55
-10.99
-14.71
-19.17
-24.71
-31.36
-38.69
-45.74
-51.11
-53.35
-51.37
-44.84
-34.42
-21.56
-8.06
4.46
14.96
23.03
28.76
32.4
34.18
34.28
32.95
30.64
27.92
25.4
23.5
22.35
21.78
21.5
21.25
20.94
20.6
20.29
19.99
19.54
18.61
16.89
14.13
10.36
5.82
0.97
-3.65
-7.69
-11.08
-14.12
-17.4
-21.59
-27.12
-33.92
-41.24
-47.73
-51.79
-51.99
-47.6
-38.85
-26.86
-13.3
0.08
11.94
21.53
28.63
33.39
36.05
36.81
35.91
33.73
30.8
27.78
25.28
23.66
22.95
22.79
22.7
22.3
21.5
20.51
19.69
19.25
19.1
18.79
17.74
15.47
11.87
7.25
2.22
-2.54
-6.56
-9.78
-12.54
-15.48
-19.23
-24.23
-30.51
-37.58
-44.4
-49.64
-51.92
-50.2
-44.16
-34.31
-21.88
-8.49
4.28
15.24
23.81
29.85
33.57
35.21
35.01
33.31
30.59
27.48
24.71
22.82
22.09
22.43
23.48
24.78
25.9
26.53
26.48
25.75
24.42
22.74
20.93
19.12
17.26
15.1
12.4
9.0
4.97
0.59
-3.8
-7.87
-11.48
-14.59
-17.32
-19.85
-22.52
-25.74
-29.88
-35.1
-41.1
-47.0
-51.5
-53.17
-50.95
-44.54
-34.52
-22.21
-9.27
2.84
13.1
21.0
26.49
29.66
30.69
29.8
27.42
24.15
20.81
18.19
16.8
16.74
17.61
18.82
19.73
19.98
19.53
18.6
17.53
16.53
15.59
14.48
12.92
10.66
7.63
4.01
0.15
-3.62
-7.06
-10.1
-12.94
-15.87
-19.23
-23.31
-28.2
-33.69
-39.2
-43.8
-46.35
-45.83
-41.68
-34.04
-23.79
-12.31
-1.09
8.7
16.43
21.97
25.49
27.24
27.44
26.23
23.88
20.8
17.54
14.67
12.6
11.51
11.31
11.69
12.26
12.6
12.37
11.32
9.33
6.49
3.05
-0.62
-4.19
-7.45
-10.39
-13.14
-15.98
-19.18
-23.03
-27.75
-33.31
-39.31
-44.87
-48.75
-49.69
-46.84
-40.14
-30.38
-18.97
-7.48
2.78
10.99
16.85
20.48
22.15
22.17
20.82
18.33
15.04
11.5
8.42
6.54
6.37
7.92
10.71
13.98
16.97
19.21
20.52
20.97
20.54
19.15
16.68
13.15
8.8
3.98
-0.99
-5.99
-11.16
-16.81
-23.14
-30.03
-36.85
-42.47
-45.61
-45.16
-40.69
-32.66
-22.32
-11.31
-1.13
7.28
13.65
18.17
21.23
23.06
23.79
23.48
22.35
20.75
19.13
17.83
16.96
16.44
16.07
15.68
15.24
14.83
14.52
14.3
14.01
13.33
11.96
9.71
6.62
2.95
-0.92
-4.61
-7.92
-10.93
-13.97
-17.49
-21.84
-26.97
-32.32
-36.86
-39.38
-38.84
-34.8
-27.57
-18.14
-7.9
1.81
10.0
16.22
20.44
22.95
24.06
24.05
23.16
21.67
19.99
18.6
17.9
18.04
18.82
19.74
20.28
20.11
19.25
18.0
16.71
15.57
14.52
13.28
11.55
9.19
6.31
3.23
0.31
-2.17
-4.16
-5.84
-7.49
-9.53
-12.3
-15.99
-20.47
-25.21
-29.39
-32.01
-32.24
-29.69
-24.55
-17.56
-9.72
-2.03
4.82
10.47
14.84
17.95
19.82
20.44
19.91
18.47
16.6
14.81
13.59
13.14
13.41
14.11
14.86
15.41
15.66
15.63
15.32
14.69
13.6
11.94
9.67
6.91
3.9
0.89
-1.91
-4.36
-6.45
-8.25
-9.96
-11.86
-14.25
-17.31
-20.92
-24.6
-27.55
-28.91
-28.06
-24.83
-19.56
-13.0
-6.06
0.44
5.93
10.18
13.15
14.98
15.81
15.82
15.15
14.02
12.73
11.56
10.73
10.33
10.24
10.27
10.25
10.09
9.81
9.41
8.82
7.93
6.58
4.77
2.62
0.33
-1.91
-4.01
-6.03
-8.07
-10.28
-12.72
-15.49
-18.69
-22.38
-26.38
-30.19
-33.03
-33.97
-32.39
-28.22
-22.04
-14.87
-7.8
-1.62
3.34
7.12
9.91
11.82
12.79
12.8
11.95
10.62
9.31
8.51
8.42
8.9
9.52
9.82
9.51
8.63
7.5
6.45
5.71
5.21
4.65
3.68
2.08
-0.17
-2.88
-5.76
-8.56
-11.11
-13.42
-15.6
-17.86
-20.47
-23.7
-27.73
-32.44
-37.31
-41.42
-43.71
-43.32
-39.94
-33.97
-26.35
-18.26
-10.72
-4.34
0.77
4.77
7.92
10.39
12.19
13.29
13.7
13.57
13.12
12.61
12.19
11.92
11.78
11.67
11.6
11.62
11.77
12.03
12.25
12.19
11.6
10.42
8.75
6.83
4.88
2.98
1.06
-1.04
-3.41
-6.03
-8.77
-11.51
-14.18
-16.79
-19.39
-22.03
-24.78
-27.77
-31.22
-35.24
-39.65
-43.89
-47.02
-48.0
-46.13
-41.29
-34.07
-25.5
-16.73
-8.62
-1.65
4.1
8.73
12.36
15.01
16.68
17.41
17.41
17.06
16.83
17.12
18.07
19.52
21.09
22.36
23.07
23.23
23.06
22.83
22.7
22.67
22.59
22.28
21.58
20.46
18.89
16.93
14.68
12.26
9.84
7.57
5.46
3.42
1.23
-1.3
-4.19
-7.29
-10.26
-12.86
-14.99
-16.78
-18.52
-20.51
-23.01
-26.2
-30.19
-34.97
-40.26
-45.41
-49.39
-51.0
-49.25
-43.84
-35.24
-24.65
-13.57
-3.31
5.35
12.17
17.33
21.09
23.63
25.0
25.25
24.6
23.45
22.33
21.69
21.71
22.3
23.12
23.87
24.37
24.68
24.9
25.06
25.03
24.52
23.31
21.35
18.87
16.27
13.9
11.89
10.08
8.13
5.72
2.73
-0.7
-4.23
-7.46
-10.14
-12.26
-14.11
-16.15
-18.95
-22.93
-28.16
-34.18
-40.02
-44.35
-45.94
-43.93
-38.25
-29.55
-19.03
-8.08
2.1
10.7
17.41
22.26
25.42
27.09
27.45
26.66
24.99
22.88
20.86
19.42
18.84
19.1
19.96
21.14
22.42
23.64
24.67
25.36
25.48
24.81
23.29
21.03
18.31
15.41
12.51
9.65
6.72
3.56
0.07
-3.72
-7.62
-11.35
-14.68
-17.5
-19.92
-22.24
-24.92
-28.37
-32.81
-38.15
-43.82
-48.86
-52.03
-52.19
-48.62
-41.33
-31.12
-19.34
-7.49
3.2
11.99
18.69
23.41
26.38
27.82
27.93
26.99
25.37
23.59
22.13
21.31
21.22
21.74
22.63
23.65
24.59
25.35
25.8
25.84
25.37
24.32
22.73
20.67
18.27
15.6
12.75
9.74
6.56
3.22
-0.31
-3.98
-7.69
-11.26
-14.55
-17.44
-20.03
-22.61
-25.67
-29.64
-34.75
-40.67
-46.53
-50.97
-52.52
-50.1
-43.47
-33.34
-21.19
-8.76
2.49
11.72
18.73
23.73
26.99
28.7
28.95
27.87
25.82
23.32
21.0
19.36
18.65
18.82
19.58
20.54
21.34
21.81
21.88
21.65
21.24
20.69
19.94
18.83
17.11
14.62
11.39
7.63
3.7
-0.03
-3.32
-6.12
-8.6
-11.03
-13.71
-16.9
-20.78
-25.44
-30.73
-36.22
-41.09
-44.22
-44.51
-41.25
-34.42
-24.77
-13.61
-2.4
7.68
15.96
22.19
26.43
28.82
29.51
28.71
26.76
24.18
21.56
19.43
18.14
17.72
17.99
18.64
19.34
19.86
20.07
19.96
19.57
18.92
17.98
16.68
14.92
12.6
9.67
6.19
2.34
-1.62
-5.3
-8.44
-10.92
-12.89
-14.72
-16.9
-19.9
-23.98
-29.11
-34.9
-40.62
-45.26
-47.72
-47.04
-42.72
-34.99
-24.78
-13.56
-2.88
6.12
12.89
17.5
20.39
21.98
22.53
22.15
20.93
19.18
17.35
15.94
15.25
15.25
15.56
15.73
15.5
14.87
14.13
13.58
13.35
13.24
12.86
11.79
9.79
6.92
3.47
-0.17
-3.68
-6.84
-9.6
-12.01
-14.29
-16.78
-19.89
-23.97
-29.04
-34.68
-39.98
-43.78
-44.95
-42.83
-37.33
-29.08
-19.15
-8.81
0.83
8.93
15.07
19.12
21.27
21.82
21.21
19.9
18.39
17.13
16.37
16.15
16.26
16.33
16.09
15.39
14.34
13.2
12.19
11.4
10.67
9.75
8.32
6.26
3.6
0.59
-2.46
-5.29
-7.77
-9.96
-12.12
-14.63
-17.83
-21.91
-26.69
-31.59
-35.68
-37.9
-37.4
-33.81
-27.42
-19.08
-9.95
-1.23
6.24
11.98
15.91
18.15
18.93
18.51
17.17
15.24
13.07
11.0
9.29
8.09
7.41
7.19
7.32
7.68
8.11
8.45
8.5
8.1
7.18
5.81
4.14
2.32
0.47
-1.4
-3.33
-5.44
-7.84
-10.73
-14.26
-18.43
-22.93
-27.05
-29.75
-30.0
-27.18
-21.35
-13.3
-4.28
4.4
11.75
17.25
20.8
22.58
22.84
21.85
19.95
17.51
14.98
12.79
11.29
10.6
10.65
11.17
11.8
12.19
12.15
11.61
10.68
9.51
8.16
6.6
4.72
2.38
-0.5
-3.9
-7.78
-12.09
-16.83
-21.9
-27.01
-31.6
-34.83
-35.81
-33.92
-29.08
-21.82
-13.18
-4.35
3.61
10.06
14.84
18.11
20.17
21.31
21.66
21.3
20.35
18.99
17.52
16.24
15.36
14.91
14.75
14.65
14.36
13.67
12.52
10.96
9.12
7.15
5.17
3.17
1.08
-1.29
-4.09
-7.43
-11.35
-15.86
-20.9
-26.19
-31.14
-34.87
-36.38
-34.92
-30.31
-23.1
-14.39
-5.46
2.69
9.48
14.81
18.83
21.74
23.65
24.63
24.76
24.24
23.35
22.38
21.59
21.05
20.7
20.38
19.92
19.2
18.24
17.12
15.87
14.47
12.79
10.7
8.15
5.18
2.0
-1.14
-4.06
-6.7
-9.14
-11.55
-14.22
-17.42
-21.36
-25.97
-30.82
-35.07
-37.65
-37.63
-34.55
-28.68
-20.88
-12.3
-3.98
3.43
9.71
14.91
19.12
22.37
24.64
25.96
26.51
26.57
26.44
26.32
26.27
26.29
26.3
26.29
26.29
26.37
26.61
27.01
27.48
27.79
27.68
26.91
25.4
23.27
20.76
18.19
15.83
13.8
12.08
10.53
8.95
7.16
5.08
2.77
0.35
-2.01
-4.22
-6.33
-8.44
-10.64
-12.95
-15.24
-17.37
-19.23
-20.89
-22.48
-24.25
-26.39
-29.06
-32.41
-36.48
-41.02
-45.43
-48.75
-49.87
-48.01
-42.96
-35.33
-26.27
-17.1
-8.9
-2.19
2.99
6.88
9.75
11.74
12.92
13.36
13.3
13.08
13.05
13.45
14.24
15.2
15.98
16.36
16.33
16.1
15.98
16.18
16.66
17.12
17.17
16.49
15.01
12.94
10.66
8.53
6.77
5.37
4.19
2.99
1.56
-0.21
-2.29
-4.55
-6.72
-8.6
-10.09
-11.28
-12.42
-13.88
-15.99
-18.89
-22.5
-26.42
-29.98
-32.37
-32.82
-30.88
-26.58
-20.49
-13.53
-6.69
-0.69
4.15
7.83
10.52
12.34
13.33
13.5
12.95
11.94
10.8
9.84
9.24
9.02
9.12
9.46
9.97
10.64
11.43
12.25
12.99
13.49
13.68
13.51
12.97
12.13
11.06
9.83
8.51
7.13
5.61
3.84
1.69
-0.85
-3.62
-6.36
-8.78
-10.72
-12.17
-13.35
-14.6
-16.27
-18.68
-21.89
-25.7
-29.51
-32.44
-33.59
-32.34
-28.64
-23.05
-16.51
-10.02
-4.27
0.46
4.19
7.04
9.12
10.46
11.15
11.33
11.25
11.18
11.28
11.55
11.87
12.07
12.01
11.68
11.21
10.84
10.82
11.23
11.94
12.58
12.76
12.23
11.01
9.37
7.67
6.16
4.85
3.53
1.92
-0.15
-2.63
-5.35
-8.04
-10.53
-12.75
-14.76
-16.64
-18.51
-20.48
-22.73
-25.42
-28.63
-32.25
-35.83
-38.61
-39.73
-38.54
-34.86
-29.09
-22.1
-14.88
-8.24
-2.58
2.09
5.95
9.14
11.67
13.43
14.34
14.53
14.29
13.97
13.8
13.83
13.97
14.05
14.04
14.04
14.21
14.64
15.28
15.88
16.07
15.56
14.22
12.15
9.67
7.21
5.11
3.53
2.38
1.37
0.14
-1.55
-3.74
-6.28
-8.93
-11.47
-13.79
-15.92
-17.97
-20.13
-22.62
-25.62
-29.17
-33.03
-36.6
-39.06
-39.58
-37.6
-33.11
-26.67
-19.18
-11.61
-4.71
1.09
5.67
9.07
11.34
12.56
12.83
12.35
11.48
10.6
10.06
9.99
10.32
10.83
11.26
11.45
11.4
11.25
11.18
11.28
11.55
11.84
11.9
11.51
10.57
9.12
7.36
5.48
3.68
2.01
0.44
-1.14
-2.84
-4.79
-7.07
-9.8
-13.0
-16.54
-20.04
-22.88
-24.37
-23.94
-21.37
-16.88
-11.06
-4.69
1.5
6.97
11.4
14.66
16.74
17.66
17.51
16.48
14.87
13.07
11.48
10.32
9.63
9.27
9.04
8.76
8.4
8.01
7.67
7.34
6.88
6.12
4.96
3.44
1.71
-0.03
-1.65
-3.16
-4.68
-6.41
-8.58
-11.39
-14.94
-19.11
-23.54
-27.57
-30.35
-31.09
-29.35
-25.18
-19.19
-12.31
-5.5
0.51
5.33
8.9
11.36
12.89
13.66
13.82
13.48
12.75
11.72
10.52
9.28
8.14
7.21
6.55
6.13
5.82
5.44
4.88
4.09
3.13
2.07
0.99
-0.15
-1.44
-3.02
-5.0
-7.44
-10.39
-13.78
-17.48
-21.15
-24.3
-26.25
-26.37
-24.27
-19.99
-14.06
-7.33
-0.73
5.02
9.49
12.59
14.46
15.32
15.39
14.88
13.96
12.78
11.52
10.3
9.23
8.36
7.72
7.25
6.89
6.52
6.02
5.33
4.41
3.29
1.97
0.45
-1.28
-3.25
-5.46
-7.97
-10.87
-14.3
-18.29
-22.59
-26.62
-29.49
-30.3
-28.51
-24.17
-17.97
-10.94
-4.1
1.82
6.56
10.15
12.79
14.66
15.84
16.36
16.27
15.65
14.7
13.66
12.77
12.21
12.02
12.12
12.33
12.44
12.32
11.88
11.09
9.9
8.25
6.11
3.57
0.84
-1.84
-4.28
-6.49
-8.67
-11.2
-14.45
-18.6
-23.45
-28.36
-32.43
-34.67
-34.35
-31.28
-25.84
-18.83
-11.25
-3.97
2.4
7.57
11.5
14.29
16.09
17.11
17.58
17.71
17.71
17.75
17.92
18.23
18.58
18.82
18.79
18.4
17.67
16.73
15.72
14.73
13.63
12.2
10.2
7.56
4.43
1.14
-1.92
-4.52
-6.63
-8.46
-10.37
-12.76
-15.95
-20.11
-25.09
-30.37
-35.04
-38.03
-38.41
-35.75
-30.29
-22.84
-14.52
-6.38
0.88
6.96
11.82
15.52
18.13
19.67
20.22
19.98
19.22
18.33
17.59
17.19
17.13
17.27
17.4
17.38
17.19
16.98
16.94
17.13
17.38
17.26
16.3
14.2
10.99
7.1
3.09
-0.52
-3.48
-5.83
-7.84
-9.92
-12.47
-15.83
-20.13
-25.17
-30.3
-34.53
-36.72
-36.03
-32.26
-25.88
-17.89
-9.42
-1.39
5.63
11.35
15.68
18.64
20.27
20.77
20.45
19.69
18.85
18.19
17.81
17.69
17.72
17.75
17.69
17.51
17.27
17.05
16.84
16.45
15.59
13.96
11.4
8.11
4.46
0.91
-2.28
-5.15
-7.97
-11.17
-15.08
-19.88
-25.4
-31.17
-36.44
-40.24
-41.7
-40.2
-35.66
-28.57
-19.85
-10.6
-1.75
6.05
12.49
17.51
21.1
23.33
24.31
24.3
23.7
22.93
22.33
22.03
21.98
21.99
21.86
21.56
21.12
20.66
20.26
19.89
19.37
18.46
16.91
14.61
11.59
8.11
4.45
0.93
-2.3
-5.25
-8.14
-11.29
-15.09
-19.79
-25.34
-31.31
-36.81
-40.64
-41.71
-39.31
-33.5
-25.08
-15.33
-5.59
3.18
10.54
16.45
21.05
24.4
26.5
27.34
27.09
26.12
24.91
23.89
23.28
23.08
23.08
23.05
22.84
22.37
21.67
20.8
19.84
18.78
17.58
16.12
14.19
11.66
8.49
4.85
1.08
-2.41
-5.38
-7.75
-9.71
-11.63
-13.9
-16.89
-20.8
-25.57
-30.83
-35.78
-39.37
-40.54
-38.54
-33.29
-25.43
-16.16
-6.79
1.58
8.4
13.54
17.21
19.62
20.91
21.14
20.46
19.19
17.8
16.77
16.4
16.65
17.19
17.56
17.42
16.73
15.72
14.72
13.96
13.41
12.8
11.77
10.0
7.42
4.2
0.7
-2.72
-5.75
-8.33
-10.58
-12.87
-15.58
-19.04
-23.34
-28.24
-33.16
-37.2
-39.41
-38.96
-35.45
-29.1
-20.71
-11.46
-2.56
5.1
11.05
15.27
17.96
19.38
19.76
19.27
18.13
16.6
15.0
13.61
12.6
12.02
11.8
11.83
11.93
11.95
11.77
11.29
10.47
9.3
7.76
5.8
3.41
0.6
-2.49
-5.67
-8.72
-11.61
-14.51
-17.78
-21.7
-26.17
-30.53
-33.66
-34.41
-31.98
-26.37
-18.32
-9.05
0.13
8.25
14.79
19.62
22.77
24.39
24.55
23.39
21.15
18.22
15.12
12.38
10.39
9.32
9.04
9.24
9.46
9.39
8.8
7.69
6.09
4.1
1.79
-0.77
-3.49
-6.24
-9.0
-11.84
-15.0
-18.8
-23.41
-28.66
-33.9
-38.05
-39.97
-38.74
-34.13
-26.6
-17.26
-7.45
1.59
9.05
14.65
18.5
20.91
22.18
22.5
21.99
20.8
19.17
17.43
15.92
14.88
14.3
14.02
13.81
13.45
12.85
11.99
10.87
9.47
7.74
5.63
3.17
0.45
-2.46
-5.52
-8.75
-12.28
-16.26
-20.85
-26.03
-31.45
-36.32
-39.57
-40.1
-37.26
-31.1
-22.41
-12.5
-2.73
5.87
12.7
17.6
20.72
22.3
22.66
22.18
21.21
20.11
19.08
18.22
17.55
17.06
16.74
16.59
16.6
16.65
16.58
16.19
15.28
13.71
11.44
8.53
5.18
1.65
-1.84
-5.12
-8.28
-11.51
-15.14
-19.44
-24.54
-30.26
-36.05
-41.04
-44.1
-44.26
-40.95
-34.27
-25.07
-14.61
-4.25
4.97
12.53
18.31
22.44
25.06
26.28
26.22
25.13
23.48
21.78
20.46
19.69
19.41
19.37
19.31
19.08
18.61
17.92
17.08
16.15
15.12
13.93
12.5
10.66
8.33
5.51
2.37
-0.87
-3.99
-6.95
-9.87
-13.02
-16.68
-21.03
-26.05
-31.46
-36.66
-40.77
-42.77
-41.83
-37.6
-30.46
-21.4
-11.75
-2.65
5.17
11.49
16.42
20.11
22.59
23.84
23.88
22.9
21.26
19.44
17.87
16.86
16.56
16.94
17.84
18.96
20.0
20.68
20.86
20.5
19.66
18.46
16.97
15.26
13.31
11.08
8.51
5.55
2.23
-1.36
-4.98
-8.41
-11.49
-14.21
-16.71
-19.25
-22.11
-25.52
-29.59
-34.22
-39.02
-43.27
-45.98
-46.16
-43.18
-37.04
-28.47
-18.67
-8.95
-0.3
6.76
12.16
15.97
18.29
19.13
18.59
16.95
14.72
12.55
10.93
10.11
10.0
10.32
10.78
11.16
11.44
11.68
11.96
12.27
12.54
12.55
12.07
10.9
8.98
6.42
3.48
0.45
-2.45
-5.1
-7.55
-9.91
-12.29
-14.78
-17.48
-20.45
-23.7
-27.01
-29.91
-31.67
-31.59
-29.27
-24.82
-18.87
-12.35
-6.2
-1.03
2.87
5.56
7.18
7.84
7.58
6.41
4.46
1.98
-0.6
-2.83
-4.34
-4.98
-4.8
-4.06
-3.1
-2.2
-1.53
-1.11
-0.95
-1.03
-1.41
-2.12
-3.17
-4.52
-6.05
-7.69
-9.51
-11.65
-14.32
-17.63
-21.43
-25.27
-28.37
-29.89
-29.09
-25.68
-19.95
-12.69
-5.0
2.08
7.87
12.14
14.96
16.53
16.96
16.29
14.6
12.16
9.43
6.99
5.31
4.64
4.88
5.74
6.73
7.41
7.46
6.76
5.47
3.89
2.34
0.98
-0.26
-1.7
-3.68
-6.49
-10.18
-14.55
-19.21
-23.59
-26.95
-28.56
-27.77
-24.35
-18.54
-11.12
-3.14
4.4
10.8
15.8
19.38
21.63
22.55
22.11
20.38
17.66
14.55
11.72
9.75
8.84
8.74
8.93
8.85
8.15
6.82
5.17
3.56
2.24
1.16
0.06
-1.43
-3.61
-6.61
-10.47
-15.06
-20.15
-25.29
-29.82
-32.88
-33.66
-31.64
-26.88
-19.97
-11.89
-3.68
3.79
10.01
14.79
18.12
20.09
20.8
20.37
19.0
16.95
14.62
12.42
10.71
9.67
9.21
9.03
8.74
8.07
6.96
5.59
4.21
2.97
1.87
0.73
-0.73
-2.73
-5.47
-9.03
-13.47
-18.68
-24.26
-29.49
-33.39
-34.93
-33.36
-28.59
-21.16
-12.23
-3.08
5.18
11.96
17.15
20.97
23.71
25.5
26.34
26.16
25.02
23.19
21.05
19.02
17.34
16.11
15.25
14.65
14.21
13.86
13.55
13.19
12.63
11.73
10.3
8.23
5.53
2.26
-1.41
-5.35
-9.47
-13.81
-18.43
-23.21
-27.75
-31.24
-32.75
-31.51
-27.28
-20.45
-11.97
-2.99
5.49
12.81
18.65
22.95
25.68
26.9
26.73
25.44
23.51
21.44
19.7
18.58
18.13
18.22
18.65
19.2
19.69
19.99
19.95
19.45
18.42
16.79
14.57
11.79
8.53
4.93
1.19
-2.47
-5.9
-9.11
-12.3
-15.87
-20.18
-25.31
-30.87
-35.96
-39.39
-40.06
-37.33
-31.31
-22.8
-13.02
-3.23
5.57
12.83
18.42
22.41
24.99
26.34
26.66
26.19
25.23
24.1
23.08
22.37
22.05
22.08
22.28
22.43
22.36
21.96
21.23
20.3
19.26
18.11
16.69
14.73
11.99
8.43
4.25
-0.12
-4.2
-7.66
-10.44
-12.74
-14.92
-17.38
-20.41
-24.19
-28.7
-33.6
-38.28
-41.84
-43.28
-41.83
-37.21
-29.77
-20.42
-10.38
-0.78
7.5
13.99
18.62
21.57
23.18
23.83
23.91
23.72
23.54
23.51
23.67
23.94
24.12
23.97
23.4
22.51
21.6
20.99
20.86
21.06
21.2
20.83
19.68
17.78
15.39
12.82
10.24
7.64
4.89
1.91
-1.28
-4.51
-7.61
-10.44
-12.98
-15.3
-17.61
-20.17
-23.27
-27.12
-31.77
-36.96
-42.08
-46.26
-48.5
-47.97
-44.28
-37.59
-28.7
-18.74
-8.93
-0.21
6.92
12.48
16.74
20.0
22.45
24.11
24.98
25.13
24.78
24.22
23.74
23.53
23.64
24.03
24.59
25.21
25.79
26.23
26.42
26.31
25.82
24.92
23.63
21.97
20.05
17.98
15.9
13.83
11.73
9.46
6.92
4.14
1.26
-1.45
-3.8
-5.78
-7.6
-9.54
-11.82
-14.46
-17.26
-19.91
-22.17
-24.04
-25.71
-27.54
-29.91
-33.1
-37.16
-41.91
-46.86
-51.27
-54.27
-54.98
-52.75
-47.43
-39.4
-29.57
-19.11
-9.16
-0.54
6.38
11.65
15.5
18.19
19.87
20.62
20.56
19.92
19.06
18.31
17.93
17.94
18.26
18.75
19.31
19.93
20.59
21.24
21.72
21.81
21.32
20.13
18.26
15.85
13.18
10.6
8.38
6.65
5.25
3.83
1.97
-0.61
-3.87
-7.49
-10.99
-13.98
-16.32
-18.14
-19.73
-21.44
-23.57
-26.29
-29.63
-33.42
-37.12
-39.94
-40.93
-39.33
-34.86
-27.9
-19.36
-10.4
-2.05
5.01
10.52
14.46
16.89
17.86
17.44
15.81
13.4
10.81
8.67
7.46
7.3
7.99
9.13
10.31
11.26
11.98
12.56
13.13
13.67
14.02
13.91
13.09
11.39
8.85
5.68
2.23
-1.13
-4.07
-6.41
-8.22
-9.74
-11.3
-13.22
-15.7
-18.84
-22.52
-26.51
-30.32
-33.31
-34.74
-34.0
-30.79
-25.32
-18.26
-10.52
-3.01
3.61
9.0
13.04
15.73
17.12
17.25
16.3
14.56
12.49
10.56
9.12
8.31
8.03
8.04
8.11
8.09
7.97
7.81
7.68
7.48
7.03
6.09
4.51
2.32
-0.27
-2.93
-5.43
-7.66
-9.74
-11.93
-14.51
-17.77
-21.77
-26.35
-30.94
-34.69
-36.6
-35.84
-32.1
-25.72
-17.66
-9.13
-1.19
5.49
10.75
14.69
17.51
19.31
20.08
19.81
18.59
16.66
14.35
12.06
10.15
8.83
8.18
8.04
8.14
8.17
7.92
7.26
6.24
4.93
3.39
1.59
-0.5
-2.94
-5.74
-8.86
-12.31
-16.15
-20.44
-25.21
-30.15
-34.64
-37.76
-38.57
-36.43
-31.27
-23.64
-14.55
-5.19
3.47
10.76
16.37
20.23
22.38
22.98
22.27
20.62
18.53
16.49
14.87
13.85
13.41
13.37
13.45
13.41
13.06
12.37
11.37
10.16
8.79
7.29
5.58
3.57
1.18
-1.6
-4.78
-8.36
-12.42
-17.08
-22.36
-27.98
-33.27
-37.22
-38.73
-37.03
-31.98
-24.21
-14.91
-5.42
3.16
10.21
15.6
19.48
22.06
23.55
24.05
23.7
22.65
21.1
19.32
17.54
15.99
14.81
14.09
13.76
13.65
13.52
13.13
12.3
10.96
9.09
6.79
4.13
1.27
-1.67
-4.62
-7.65
-10.96
-14.85
-19.51
-24.84
-30.36
-35.2
-38.29
-38.73
-36.04
-30.38
-22.47
-13.39
-4.26
4.0
10.85
16.08
19.73
21.94
22.87
22.74
21.81
20.44
19.0
17.83
17.12
16.86
16.89
16.98
16.97
16.75
16.31
15.63
14.61
13.12
11.03
8.36
5.26
2.01
-1.12
-3.99
-6.7
-9.53
-12.88
-17.11
-22.37
-28.43
-34.61
-39.82
-42.83
-42.63
-38.78
-31.63
-22.19
-11.81
-1.81
6.88
13.8
18.91
22.35
24.32
25.01
24.62
23.41
21.74
19.99
18.5
17.45
16.81
16.42
16.03
15.49
14.78
14.04
13.41
12.88
12.24
11.15
9.29
6.56
3.14
-0.61
-4.27
-7.52
-10.28
-12.72
-15.13
-17.96
-21.6
-26.23
-31.7
-37.36
-42.13
-44.74
-44.19
-40.06
-32.76
-23.36
-13.22
-3.55
4.9
11.86
17.4
21.64
24.6
26.18
26.39
25.44
23.8
22.14
21.04
20.77
21.22
21.97
22.56
22.65
22.13
21.19
20.07
18.95
17.86
16.63
15.02
12.86
10.12
6.9
3.45
-0.05
-3.46
-6.79
-10.12
-13.48
-16.88
-20.31
-23.82
-27.59
-31.79
-36.35
-40.75
-44.0
-44.92
-42.6
-36.87
-28.34
-18.24
-7.95
1.49
9.53
16.06
21.11
24.69
26.67
27.04
25.94
23.86
21.45
19.46
18.4
18.43
19.4
20.89
22.47
23.76
24.52
24.64
24.08
22.85
21.01
18.78
16.42
14.18
12.18
10.32
8.32
5.91
2.98
-0.42
-4.03
-7.61
-10.94
-13.91
-16.54
-18.91
-21.26
-23.92
-27.25
-31.38
-36.04
-40.44
-43.42
-43.85
-41.03
-35.0
-26.48
-16.62
-6.59
2.68
10.63
16.95
21.49
24.14
24.87
23.85
21.55
18.67
16.03
14.28
13.71
14.16
15.14
16.09
16.62
16.72
16.6
16.53
16.62
16.71
16.43
15.42
13.48
10.66
7.21
3.44
-0.31
-3.79
-6.82
-9.44
-11.82
-14.3
-17.3
-21.11
-25.78
-30.97
-35.96
-39.75
-41.33
-39.93
-35.27
-27.67
-18.03
-7.55
2.56
11.36
18.34
23.3
26.26
27.34
26.74
24.81
22.09
19.2
16.69
14.86
13.74
13.17
12.95
12.99
13.28
13.76
14.25
14.37
13.7
11.99
9.25
5.77
2.03
-1.53
-4.65
-7.37
-9.96
-12.83
-16.42
-21.04
-26.69
-32.98
-39.07
-43.79
-45.96
-44.73
-39.85
-31.84
-21.8
-11.03
-0.76
8.2
15.44
20.85
24.44
26.24
26.33
24.98
22.74
20.32
18.38
17.29
17.03
17.25
17.5
17.51
17.25
16.85
16.46
16.05
15.35
14.04
11.82
8.63
4.65
0.27
-4.08
-8.03
-11.4
-14.26
-16.9
-19.76
-23.3
-27.81
-33.22
-38.99
-44.08
-47.24
-47.33
-43.76
-36.68
-27.01
-16.12
-5.35
4.33
12.44
18.89
23.71
26.9
28.41
28.34
26.99
24.92
22.79
21.15
20.26
20.12
20.44
20.85
21.0
20.73
20.09
19.25
18.46
17.78
17.05
15.9
13.94
10.96
7.1
2.81
-1.39
-5.11
-8.26
-11.04
-13.8
-16.86
-20.4
-24.53
-29.28
-34.55
-40.03
-45.03
-48.57
-49.59
-47.28
-41.46
-32.63
-21.87
-10.49
0.3
9.7
17.28
22.9
26.57
28.34
28.37
26.96
24.6
21.95
19.67
18.28
17.94
18.5
19.51
20.46
20.92
20.75
20.05
19.07
18.08
17.16
16.21
14.91
12.94
10.11
6.48
2.35
-1.83
-5.67
-8.97
-11.82
-14.46
-17.24
-20.45
-24.29
-28.83
-33.88
-38.97
-43.28
-45.82
-45.59
-42.05
-35.26
-25.98
-15.42
-4.83
4.83
12.99
19.46
24.18
27.14
28.3
27.77
25.88
23.16
20.28
17.86
16.28
15.63
15.76
16.39
17.19
17.86
18.22
18.17
17.7
16.81
15.46
13.55
10.95
7.65
3.8
-0.22
-4.0
-7.23
-9.85
-12.01
-14.04
-16.25
-18.89
-22.14
-26.08
-30.66
-35.54
-39.98
-42.97
-43.45
-40.74
-34.75
-26.13
-16.0
-5.62
3.92
11.84
17.76
21.55
23.29
23.26
21.86
19.63
17.15
14.94
13.38
12.61
12.57
13.0
13.59
14.07
14.32
14.36
14.23
13.94
13.33
12.18
10.31
7.66
4.41
0.84
-2.69
-5.95
-8.83
-11.39
-13.88
-16.64
-20.04
-24.28
-29.17
-34.02
-37.76
-39.18
-37.45
-32.43
-24.71
-15.4
-5.76
3.17
10.76
16.75
21.06
23.71
24.74
24.25
22.5
19.92
17.03
14.38
12.35
11.13
10.64
10.64
10.84
10.98
10.86
10.34
9.31
7.69
5.48
2.79
-0.18
-3.17
-6.05
-8.79
-11.53
-14.51
-17.96
-22.05
-26.77
-31.85
-36.66
-40.22
-41.47
-39.57
-34.29
-26.16
-16.31
-6.12
3.21
10.98
16.91
21.07
23.65
24.84
24.83
23.87
22.24
20.25
18.17
16.23
14.6
13.44
12.78
12.57
12.58
12.48
11.99
10.93
9.27
7.12
4.6
1.86
-1.05
-4.05
-7.14
-10.38
-13.9
-17.9
-22.57
-27.84
-33.34
-38.26
-41.59
-42.34
-39.87
-34.17
-25.85
-15.95
-5.7
3.84
11.9
18.13
22.47
25.02
26.0
25.69
24.43
22.61
20.66
18.93
17.7
17.04
16.85
16.94
17.12
17.19
17.04
16.58
15.73
14.4
12.54
10.16
7.33
4.19
0.9
-2.42
-5.69
-8.95
-12.37
-16.25
-20.93
-26.55
-32.82
-38.87
-43.37
-44.93
-42.61
-36.36
-27.03
-16.13
-5.21
4.51
12.44
18.49
22.8
25.56
26.88
26.92
25.95
24.4
22.79
21.56
20.9
20.75
20.83
20.83
20.58
20.08
19.49
18.99
18.63
18.25
17.54
16.13
13.78
10.52
6.61
2.48
-1.43
-4.85
-7.76
-10.37
-13.11
-16.43
-20.73
-26.13
-32.28
-38.38
-43.27
-45.73
-44.88
-40.48
-33.04
-23.6
-13.47
-3.78
4.7
11.64
16.95
20.71
23.01
23.98
23.81
22.84
21.48
20.18
19.28
18.95
19.17
19.75
20.42
20.94
21.15
21.04
20.64
20.04
19.3
18.45
17.45
16.16
14.43
12.07
9.02
5.41
1.51
-2.3
-5.72
-8.64
-11.14
-13.46
-15.81
-18.41
-21.36
-24.8
-28.75
-33.02
-37.09
-40.08
-40.97
-38.97
-33.9
-26.26
-17.13
-7.71
0.96
8.3
14.1
18.4
21.36
23.06
23.64
23.25
22.2
20.88
19.71
19.0
18.89
19.28
19.91
20.51
20.9
21.08
21.14
21.15
21.06
20.68
19.79
18.27
16.22
13.83
11.35
8.89
6.47
4.02
1.43
-1.29
-4.07
-6.76
-9.24
-11.43
-13.36
-15.14
-16.97
-19.06
-21.65
-24.9
-28.79
-33.06
-37.12
-40.14
-41.22
-39.74
-35.49
-28.84
-20.61
-11.81
-3.33
4.2
10.53
15.59
19.41
21.97
23.24
23.28
22.29
20.73
19.13
17.98
17.55
17.83
18.55
19.37
19.96
20.2
20.12
19.86
19.6
19.39
19.16
18.75
18.0
16.81
15.25
13.48
11.69
9.97
8.26
6.48
4.56
2.55
0.56
-1.29
-3.03
-4.82
-6.85
-9.19
-11.69
-14.09
-16.17
-17.91
-19.49
-21.18
-23.24
-25.76
-28.73
-32.15
-35.98
-40.02
-43.81
-46.57
-47.35
-45.45
-40.68
-33.53
-25.0
-16.24
-8.23
-1.51
3.71
7.54
10.17
11.83
