0
-61.91
-40.55
-20.34
-2.54
12.37
24.49
34.15
41.76
47.64
52.02
55.08
56.94
57.72
57.63
56.88
55.79
54.67
53.76
53.2
53.08
53.43
54.27
55.56
57.07
58.45
59.23
59.06
57.8
55.6
52.78
49.66
46.45
43.16
39.81
36.42
33.1
29.95
26.98
24.12
21.25
18.32
15.34
12.36
9.41
6.47
3.53
0.61
-2.21
-4.88
-7.43
-10.02
-12.79
-15.77
-18.84
-21.83
-24.67
-27.54
-30.81
-34.77
-39.54
-44.87
-50.3
-55.43
-60.08
-64.4
-68.73
-73.52
-79.2
-86.08
-94.2
-103.17
-111.93
-118.85
-122.0
-119.72
-111.21
-96.85
-78.11
-57.16
-36.21
-17.06
-0.8
12.22
22.2
29.73
35.44
39.88
43.38
46.06
47.91
49.0
49.53
49.78
50.04
50.4
50.86
51.33
51.84
52.59
53.77
55.44
57.35
59.02
59.94
59.8
58.59
56.51
53.86
50.86
47.65
44.35
41.12
38.14
35.48
33.06
30.61
27.93
24.81
21.22
17.26
13.11
8.96
5.0
1.35
-1.95
-4.97
-7.93
-10.98
-14.22
-17.63
-21.06
-24.41
-27.67
-31.0
-34.6
-38.62
-43.07
-47.81
-52.62
-57.29
-61.7
-65.89
-70.07
-74.58
-79.91
-86.52
-94.56
-103.63
-112.56
-119.54
-122.6
-120.17
-111.61
-97.5
-79.42
-59.48
-39.73
-21.78
-6.56
5.6
14.87
21.7
26.73
30.61
33.84
36.74
39.34
41.58
43.34
44.61
45.57
46.47
47.65
49.29
51.51
54.21
57.17
60.09
62.61
64.4
65.2
64.91
63.61
61.49
58.77
55.61
52.04
48.05
43.7
39.13
34.56
30.2
26.14
22.28
18.43
14.4
10.12
5.73
1.35
-2.89
-7.06
-11.32
-15.87
-20.87
-26.38
-32.28
-38.32
-44.24
-49.79
-54.9
-59.74
-64.63
-70.03
-76.45
-84.29
-93.59
-103.85
-113.86
-121.8
-125.58
-123.47
-114.7
-99.75
-80.33
-58.76
-37.37
-17.9
-1.32
12.17
22.79
31.03
37.45
42.57
46.86
50.57
53.74
56.23
57.84
58.52
58.45
58.06
57.87
58.32
59.65
61.8
64.54
67.49
70.23
72.29
73.28
72.85
70.94
67.72
63.67
59.36
55.3
51.76
48.71
45.9
43.0
39.79
36.16
32.12
27.81
23.47
19.38
15.78
12.76
10.27
8.06
5.77
3.09
-0.18
-4.11
-8.61
-13.46
-18.33
-22.9
-26.99
-30.67
-34.29
-38.39
-43.36
-49.33
-55.96
-62.72
-69.05
-74.76
-80.09
-85.63
-92.09
-100.06
-109.66
-120.32
-130.69
-138.75
-142.25
-139.3
-129.09
-112.21
-90.44
-66.27
-42.15
-19.9
-0.55
15.55
28.46
38.44
45.88
51.27
55.17
58.13
60.55
62.62
64.34
65.66
66.53
67.04
67.4
67.88
68.79
70.28
72.29
74.49
76.37
77.42
77.33
76.1
73.97
71.25
68.19
64.86
61.16
57.01
52.34
47.24
41.86
36.39
31.04
25.98
21.43
17.5
14.16
11.14
8.03
4.37
-0.07
-5.18
-10.53
-15.59
-19.95
-23.64
-27.01
-30.69
-35.22
-40.78
-47.24
-54.15
-61.01
-67.46
-73.44
-79.23
-85.4
-92.64
-101.53
-112.12
-123.65
-134.51
-142.42
-145.01
-140.58
-128.57
-109.8
-86.25
-60.42
-34.85
-11.51
8.39
24.44
36.8
46.08
52.95
58.03
61.73
64.33
65.97
66.86
67.31
67.63
68.09
68.87
70.04
71.54
73.22
74.89
76.39
77.58
78.37
78.7
78.48
77.53
75.68
72.83
69.0
64.34
59.06
53.36
47.36
41.19
34.98
28.94
23.27
18.06
13.28
8.82
4.6
0.57
-3.36
-7.43
-12.03
-17.57
-24.24
-31.82
-39.72
-47.21
-53.76
-59.29
-64.19
-69.06
-74.55
-81.2
-89.42
-99.38
-110.86
-122.82
-133.35
-139.83
-139.71
-131.46
-115.2
-92.8
-67.17
-41.33
-17.53
3.03
20.15
34.09
45.3
54.14
60.95
66.04
69.68
72.09
73.42
73.89
73.76
73.38
73.1
73.13
73.53
74.25
75.23
76.43
77.78
79.1
80.06
80.26
79.37
77.25
74.05
70.12
65.84
61.53
57.32
53.2
49.1
44.85
40.28
35.29
29.94
24.44
19.25
14.78
11.29
8.68
6.55
4.34
1.61
-1.83
-5.88
-10.28
-14.76
-19.14
-23.41
-27.7
-32.26
-37.38
-43.23
-49.78
-56.68
-63.37
-69.42
-74.72
-79.65
-84.88
-91.17
-99.01
-108.42
-118.91
-129.38
-138.19
-143.3
-142.7
-135.01
-120.02
-98.9
-73.96
-47.93
-23.17
-1.25
17.21
32.15
43.84
52.55
58.65
62.58
64.91
66.22
66.97
67.45
67.76
67.98
68.17
68.48
69.02
69.87
71.04
72.38
73.65
74.53
74.77
74.17
72.73
70.63
68.07
65.24
62.16
58.71
54.67
49.89
44.41
38.51
32.62
27.17
22.45
18.49
15.1
11.96
8.73
5.17
1.19
-3.2
-7.85
-12.58
-17.17
-21.52
-25.64
-29.76
-34.21
-39.27
-44.97
-51.16
-57.45
-63.52
-69.19
-74.57
-80.02
-86.09
-93.32
-102.09
-112.26
-122.9
-132.21
-137.78
-137.22
-129.05
-113.27
-91.51
-66.52
-41.27
-18.08
1.78
18.1
31.29
41.84
50.14
56.39
60.78
63.56
65.11
65.83
66.03
65.89
65.49
64.89
64.2
63.68
63.64
64.32
65.76
67.72
69.71
71.11
71.44
70.47
68.36
65.44
62.11
58.57
54.85
50.87
46.56
41.94
37.16
32.4
27.75
23.18
18.64
14.05
9.45
4.9
0.48
-3.81
-8.07
-12.46
-17.11
-22.08
-27.35
-32.82
-38.34
-43.75
-48.9
-53.65
-58.0
-62.14
-66.44
-71.4
-77.51
-85.14
-94.38
-104.83
-115.47
-124.67
-130.31
-130.37
-123.51
-109.66
-90.21
-67.54
-44.41
-23.08
-4.85
10.05
22.04
31.8
39.87
46.55
51.9
55.93
58.66
60.23
60.86
60.9
60.69
60.56
60.66
61.02
61.61
62.44
63.59
65.11
66.83
68.36
69.17
68.81
67.1
64.25
60.73
57.01
53.35
49.79
46.23
42.58
38.82
35.03
31.26
27.47
23.61
19.67
15.79
12.17
8.98
6.32
4.1
2.12
0.09
-2.26
-5.11
-8.47
-12.15
-15.85
-19.31
-22.49
-25.61
-29.06
-33.14
-37.93
-43.2
-48.59
-53.79
-58.72
-63.5
-68.4
-73.67
-79.57
-86.43
-94.46
-103.6
-113.12
-121.51
-126.72
-126.73
-120.28
-107.36
-89.21
-67.92
-45.77
-24.67
-5.92
9.75
22.12
31.28
37.61
41.74
44.37
46.14
47.51
48.67
49.63
50.31
50.67
50.76
50.71
50.71
50.96
51.63
52.76
54.2
55.66
56.76
57.18
56.73
55.42
53.37
50.75
47.65
44.15
40.27
36.12
31.83
27.54
23.33
19.24
15.25
11.33
7.4
3.41
-0.68
-4.87
-9.08
-13.15
-16.95
-20.42
-23.65
-26.93
-30.57
-34.85
-39.81
-45.28
-50.9
-56.34
-61.39
-66.14
-70.96
-76.46
-83.28
-91.74
-101.57
-111.59
-119.88
-124.17
-122.58
-114.27
-99.74
-80.64
-59.26
-37.81
-17.9
-0.5
14.07
25.81
34.94
41.77
46.72
50.24
52.76
54.56
55.8
56.64
57.22
57.71
58.25
58.88
59.57
60.3
61.09
61.98
62.91
63.65
63.8
62.93
60.8
57.51
53.47
49.21
45.14
41.37
37.73
33.93
29.74
25.1
20.13
15.03
10.01
5.26
0.85
-3.22
-7.12
-11.17
-15.71
-20.98
-26.95
-33.3
-39.59
-45.38
-50.53
-55.22
-59.91
-65.23
-71.78
-79.98
-89.78
-100.54
-110.86
-118.77
-122.12
-119.27
-109.59
-93.82
-73.79
-51.95
-30.59
-11.36
4.91
18.14
28.68
37.07
43.8
49.29
53.84
57.61
60.61
62.8
64.12
64.61
64.41
63.82
63.2
62.9
63.22
64.3
66.06
68.16
70.11
71.37
71.53
70.47
68.3
65.34
61.91
58.21
54.3
50.19
45.93
41.62
37.38
33.36
29.56
25.96
22.47
18.98
15.41
11.7
7.78
3.72
-0.34
-4.15
-7.55
-10.57
-13.58
-17.11
-21.68
-27.5
-34.33
-41.57
-48.5
-54.63
-59.82
-64.4
-68.99
-74.34
-81.16
-89.87
-100.29
-111.41
-121.36
-127.77
-128.39
-121.88
-108.27
-88.97
-66.35
-43.02
-21.2
-2.29
13.1
25.01
33.9
40.42
45.23
48.89
51.76
54.02
55.66
56.67
57.06
56.93
56.47
55.9
55.47
55.43
55.99
57.26
59.14
61.28
63.18
64.32
64.31
63.01
60.49
56.95
52.66
47.91
43.01
38.28
33.97
30.1
26.52
22.89
18.9
14.48
9.73
4.94
0.36
-3.86
-7.73
-11.36
-14.86
-18.4
-22.16
-26.38
-31.25
-36.82
-42.86
-48.95
-54.6
-59.49
-63.69
-67.66
-72.17
-78.05
-85.83
-95.44
-105.96
-115.62
-122.12
-123.27
-117.66
-105.23
-87.31
-66.19
-44.4
-24.03
-6.28
8.47
20.38
29.85
37.26
42.9
47.07
50.1
52.27
53.91
55.23
56.35
57.35
58.24
59.0
59.64
60.18
60.71
61.31
62.01
62.71
63.23
63.3
62.7
61.28
59.05
56.12
52.63
48.69
44.36
39.68
34.65
29.35
23.9
18.43
13.07
7.94
3.11
-1.38
-5.52
-9.39
-13.26
-17.43
-22.19
-27.62
-33.49
-39.37
-44.8
-49.59
-53.88
-58.23
-63.35
-69.89
-78.22
-88.18
-98.95
-109.14
-116.83
-120.12
-117.56
-108.66
-94.14
-75.7
-55.51
-35.6
-17.41
-1.66
11.57
22.45
31.36
38.63
44.54
49.29
52.98
55.58
57.1
57.63
57.44
56.93
56.53
56.57
57.18
58.43
60.2
62.34
64.52
66.33
67.35
67.24
65.95
63.73
60.96
58.02
55.08
52.13
49.04
45.71
42.17
38.49
34.81
31.22
27.78
24.51
21.43
18.56
15.9
13.45
11.21
9.21
7.39
5.61
3.56
0.89
-2.65
-7.06
-12.0
-16.95
-21.36
-25.06
-28.17
-31.2
-34.73
-39.23
-44.82
-51.33
-58.3
-65.19
-71.48
-76.86
-81.32
-85.33
-89.7
-95.39
-103.03
-112.36
-122.04
-129.79
-133.09
-130.01
-119.91
-103.67
-83.27
-61.19
-39.67
-20.28
-3.82
9.5
19.92
27.86
33.75
38.02
41.0
42.98
44.26
45.13
45.89
46.69
47.57
48.47
49.33
50.21
51.29
52.71
54.46
56.32
57.91
58.86
58.96
58.21
56.69
54.54
51.84
48.62
44.94
40.91
36.65
32.25
27.76
23.15
18.43
13.63
8.87
4.28
0.03
-3.79
-7.22
-10.42
-13.65
-17.23
-21.28
-25.83
-30.69
-35.63
-40.51
-45.31
-50.15
-55.21
-60.62
-66.54
-73.21
-80.9
-89.75
-99.41
-108.77
-116.03
-119.07
-116.24
-106.95
-91.92
-72.97
-52.33
-32.05
-13.46
2.85
16.79
28.55
38.32
46.28
52.55
57.21
60.29
61.89
62.2
61.56
60.52
59.64
59.33
59.74
60.72
62.03
63.41
64.69
65.81
66.63
66.97
66.62
65.46
63.55
61.14
58.54
55.9
53.19
50.21
46.68
42.46
37.6
32.38
27.17
22.36
18.17
14.65
11.59
8.65
5.47
1.78
-2.47
-7.09
-11.73
-16.05
-19.94
-23.57
-27.3
-31.53
-36.46
-42.03
-47.92
-53.75
-59.26
-64.43
-69.51
-75.01
-81.5
-89.46
-99.08
-109.96
-121.06
-130.69
-136.79
-137.48
-131.57
-118.95
-100.7
-78.75
-55.51
-33.19
-13.39
3.11
16.33
26.79
35.18
42.07
47.76
52.29
55.61
57.73
58.84
59.24
59.36
59.6
60.25
61.51
63.42
65.86
68.51
70.92
72.62
73.28
72.79
71.28
69.03
66.3
63.35
60.36
57.44
54.71
52.13
49.49
46.43
42.63
37.98
32.78
27.63
23.2
19.85
17.51
15.69
13.72
11.05
7.39
2.79
-2.49
-8.09
-13.66
-18.92
-23.75
-28.25
-32.69
-37.41
-42.71
-48.63
-54.94
-61.29
-67.36
-73.07
-78.64
-84.51
-91.26
-99.36
-108.89
-119.28
-129.18
-136.54
-139.12
-135.18
-124.07
-106.57
-84.7
-61.04
-38.05
-17.47
-0.1
14.0
25.23
34.09
41.02
46.36
50.33
53.15
55.01
56.17
56.93
57.55
58.26
59.13
60.18
61.4
62.85
64.65
66.88
69.45
71.97
73.85
74.46
73.38
70.62
66.55
61.82
57.02
52.51
48.28
44.08
39.53
34.36
28.58
22.43
16.36
10.78
5.94
1.79
-2.03
-6.05
-10.78
-16.48
-23.06
-30.08
-36.99
-43.27
-48.71
-53.47
-58.05
-63.2
-69.69
-78.07
-88.33
-99.73
-110.67
-118.93
-122.22
-118.77
-108.01
-90.82
-69.29
-46.13
-23.87
-4.25
12.0
24.97
35.25
43.45
50.06
55.36
59.54
62.63
64.74
65.92
66.3
66.09
65.55
65.03
64.85
65.21
66.24
67.89
69.96
72.04
73.62
74.11
73.09
70.48
66.56
61.93
57.24
52.89
48.97
45.31
41.58
37.58
33.24
28.66
23.99
19.37
14.81
10.29
5.77
1.26
-3.13
-7.22
-10.91
-14.31
-17.76
-21.72
-26.57
-32.37
-38.89
-45.6
-52.04
-57.96
-63.42
-68.78
-74.54
-81.27
-89.4
-99.08
-110.0
-121.12
-130.67
-136.47
-136.42
-129.24
-114.95
-94.91
-71.43
-47.16
-24.32
-4.39
12.12
25.38
35.87
44.16
50.69
55.79
59.74
62.77
65.08
66.73
67.7
67.94
67.54
66.74
65.93
65.48
65.6
66.27
67.28
68.34
69.16
69.43
68.9
67.34
64.67
60.98
56.55
51.71
46.74
41.77
36.81
31.85
26.99
22.36
18.12
14.27
10.68
7.12
3.39
-0.6
-4.75
-8.9
-12.86
-16.5
-19.91
-23.32
-27.02
-31.29
-36.26
-41.81
-47.61
-53.28
-58.58
-63.5
-68.36
-73.72
-80.21
-88.32
-98.02
-108.61
-118.59
-125.96
-128.63
-125.08
-114.85
-98.71
-78.47
-56.46
-34.96
-15.65
0.63
13.79
24.3
32.79
39.84
45.71
50.49
54.12
56.61
58.15
59.05
59.63
60.16
60.81
61.66
62.73
64.04
65.48
66.87
67.94
68.44
68.21
67.2
65.41
62.84
59.5
55.45
50.82
45.84
40.69
35.46
30.11
24.61
18.97
13.39
8.09
3.26
-1.2
-5.54
-10.12
-15.19
-20.75
-26.62
-32.5
-38.17
-43.54
-48.71
-53.96
-59.77
-66.58
-74.61
-83.5
-92.15
-98.82
-101.59
-99.0
-90.54
-76.91
-59.74
-41.12
-22.96
-6.65
7.17
18.5
27.66
35.16
41.41
46.6
50.73
53.66
55.29
55.68
55.13
54.08
52.99
52.23
52.02
52.49
53.66
55.48
57.76
60.1
62.0
62.92
62.56
60.85
58.04
54.52
50.69
46.82
43.07
39.48
36.02
32.56
28.94
25.02
20.79
16.49
12.51
9.23
6.79
4.97
3.25
1.08
-1.86
-5.44
-9.2
-12.62
-15.4
-17.57
-19.52
-21.75
-24.7
-28.59
-33.31
-38.55
-43.83
-48.68
-52.83
-56.33
-59.57
-63.21
-67.91
-74.06
-81.46
-89.23
-95.92
-99.85
-99.52
-94.07
-83.51
-68.83
-51.65
-33.94
-17.41
-3.27
8.01
16.55
22.82
27.42
30.82
33.36
35.23
36.58
37.5
38.11
38.51
38.79
39.06
39.43
40.01
40.85
41.95
43.23
44.56
45.73
46.5
46.62
45.89
44.27
41.8
38.69
35.2
31.6
28.12
24.88
21.88
19.03
16.2
13.27
10.24
7.16
4.11
1.19
-1.56
-4.12
-6.46
-8.58
-10.58
-12.63
-15.02
-18.0
-21.67
-25.92
-30.41
-34.8
-38.85
-42.55
-45.99
-49.42
-53.17
-57.57
-62.99
-69.45
-76.44
-82.74
-86.67
-86.6
-81.61
-71.91
-58.83
-44.27
-30.06
-17.43
-6.89
1.61
8.36
13.6
17.53
20.3
22.14
23.25
23.88
24.22
24.43
24.68
25.09
25.75
26.68
27.86
29.32
31.09
33.19
35.48
37.63
39.18
39.72
39.07
37.33
34.82
31.9
28.89
25.89
22.92
19.99
17.1
14.28
11.54
8.82
6.06
3.18
0.18
-2.87
-5.83
-8.56
-11.01
-13.28
-15.58
-18.18
-21.28
-24.89
-28.84
-32.8
-36.5
-39.85
-43.02
-46.44
-50.58
-55.82
-62.26
-69.63
-77.22
-84.02
-88.83
-90.49
-88.19
-81.64
-71.27
-58.19
-43.97
-30.21
-18.18
-8.45
-0.93
4.95
9.9
14.41
18.66
22.48
25.6
27.81
29.08
29.64
29.84
30.12
30.83
32.17
34.11
36.45
38.87
41.14
43.12
44.73
45.88
46.4
46.04
44.67
42.42
39.65
36.84
34.3
32.05
29.81
27.22
24.06
20.45
16.72
13.17
9.92
6.87
3.73
0.35
-3.28
-7.02
-10.74
-14.32
-17.84
-21.36
-24.96
-28.64
-32.32
-35.93
-39.48
-43.04
-46.78
-50.88
-55.51
-60.84
-67.04
-74.32
-82.82
-92.53
-103.06
-113.49
-122.39
-128.03
-128.87
-123.96
-113.38
-98.17
-80.11
-61.13
-42.9
-26.51
-12.44
-0.75
8.77
16.39
22.38
27.03
30.64
33.45
35.65
37.33
38.58
39.6
40.73
42.4
44.91
48.33
52.42
56.71
60.73
64.16
66.86
68.76
69.79
69.89
69.02
67.29
64.91
62.14
59.14
55.93
52.48
48.78
44.95
41.16
37.49
33.93
30.32
26.53
22.46
18.15
13.69
9.19
4.74
0.36
-4.03
-8.57
-13.53
-19.14
-25.47
-32.3
-39.19
-45.61
-51.29
-56.38
-61.5
-67.52
-75.21
-84.95
-96.46
-108.68
-119.89
-127.91
-130.66
-126.59
-115.19
-97.2
-74.43
-49.34
-24.4
-1.59
17.89
33.61
45.73
54.73
61.24
65.89
69.18
71.43
72.77
73.24
72.84
71.76
70.36
69.17
68.72
69.36
71.12
73.66
76.39
78.66
79.94
79.92
78.52
75.85
72.13
67.55
62.36
56.72
50.78
44.67
38.46
32.2
25.95
19.77
13.69
7.72
1.76
-4.35
-10.69
-17.21
-23.71
-29.86
-35.4
-40.33
-44.95
-49.85
-55.76
-63.34
-72.94
-84.33
-96.49
-107.57
-115.19
-117.02
-111.51
-98.47
-79.21
-56.12
-32.04
-9.42
10.11
25.86
37.86
46.58
52.64
56.63
59.1
60.5
61.16
61.28
61.01
60.43
59.62
58.69
57.83
57.27
57.25
57.95
59.34
61.18
63.0
64.28
64.6
63.78
61.88
59.16
55.9
52.35
48.7
45.05
41.45
37.89
34.29
30.54
26.51
22.14
17.52
12.85
8.4
4.38
0.83
-2.46
-5.81
-9.6
-14.04
-19.14
-24.67
-30.28
-35.66
-40.65
-45.29
-49.79
-54.57
-60.17
-67.1
-75.58
-85.23
-94.79
-102.32
-105.64
-103.01
-93.79
-78.63
-59.29
-38.08
-17.29
1.32
16.75
28.65
37.23
43.01
46.61
48.66
49.59
49.75
49.34
48.51
47.45
46.34
45.3
44.45
43.91
43.79
44.21
45.19
46.53
47.82
48.57
48.34
46.93
44.52
41.47
38.21
35.0
31.86
28.61
25.05
21.06
16.71
12.2
7.75
3.46
-0.64
-4.67
-8.74
-12.94
-17.26
-21.65
-25.98
-30.16
-34.15
-38.02
-41.99
-46.38
-51.6
-57.99
-65.66
-74.19
-82.58
-89.21
-92.22
-90.06
-82.03
-68.6
-51.4
-32.65
-14.46
1.66
15.02
25.61
33.72
39.64
43.53
45.55
45.92
45.06
43.46
41.57
39.72
38.12
36.91
36.21
36.11
36.61
37.61
38.9
40.27
41.49
42.36
42.67
42.15
40.59
37.91
34.3
30.17
26.06
22.29
18.89
15.52
11.79
7.46
2.63
-2.35
-7.0
-11.01
-14.38
-17.34
-20.32
-23.71
-27.79
-32.67
-38.29
-44.43
-50.77
-56.95
-62.75
-68.16
-73.49
-79.26
-86.06
-94.2
-103.45
-112.88
-120.92
-125.61
-125.16
-118.57
-105.95
-88.59
-68.61
-48.28
-29.43
-13.12
0.31
10.93
18.97
24.66
28.33
30.45
31.6
32.35
33.04
33.81
34.62
35.48
36.49
37.8
39.48
41.49
43.64
45.78
47.86
49.86
51.69
53.11
53.79
53.44
52.05
49.77
46.95
43.84
40.58
37.19
33.69
30.19
26.94
24.13
21.88
20.05
18.36
16.41
13.86
10.54
6.51
2.02
-2.48
-6.6
-10.12
-13.1
-15.97
-19.28
-23.56
-29.08
-35.69
-42.88
-49.98
-56.48
-62.15
-67.18
-72.09
-77.58
-84.3
-92.53
-102.0
-111.74
-120.1
-125.1
-124.89
-118.39
-105.61
-87.76
-66.86
-45.17
-24.66
-6.65
8.21
19.79
28.33
34.26
38.17
40.63
42.18
43.15
43.75
44.1
44.3
44.56
45.09
46.02
47.38
49.07
50.98
53.08
55.32
57.56
59.54
60.87
61.2
60.43
58.66
56.16
53.13
49.63
45.62
41.1
36.3
31.6
27.39
23.84
20.79
17.85
14.64
10.94
6.83
2.53
-1.73
-5.8
-9.69
-13.49
-17.34
-21.38
-25.74
-30.5
-35.66
-41.2
-47.0
-52.98
-59.12
-65.55
-72.56
-80.49
-89.57
-99.66
-110.0
-119.13
-125.11
-126.0
-120.49
-108.33
-90.45
-68.73
-45.42
-22.69
-2.12
15.3
29.2
39.62
46.86
51.38
53.7
54.39
53.99
53.07
52.1
51.48
51.49
52.23
53.72
55.82
58.38
61.14
63.85
66.23
68.07
69.2
69.55
69.09
67.82
65.79
63.07
59.79
56.16
52.26
48.15
43.8
39.23
34.54
29.86
25.33
20.97
16.71
12.4
8.04
3.71
-0.46
-4.38
-8.17
-12.11
-16.49
-21.43
-26.86
-32.51
-38.07
-43.34
-48.34
-53.29
-58.63
-64.88
-72.55
-81.93
-92.8
-104.13
-114.07
-120.23
-120.4
-113.22
-98.74
-78.47
-54.91
-30.76
-8.26
11.27
27.33
39.98
49.49
56.18
60.4
62.55
63.2
62.92
62.26
61.59
61.09
60.83
60.81
61.08
61.71
62.8
64.36
66.27
68.28
70.09
71.36
71.8
71.29
69.79
67.4
64.34
60.85
57.24
53.74
50.43
47.22
43.85
40.05
35.67
30.82
25.9
21.39
17.62
14.59
11.9
9.02
5.53
1.35
-3.28
-7.96
-12.4
-16.6
-20.75
-25.2
-30.17
-35.71
-41.68
-47.82
-53.81
-59.36
-64.31
-68.72
-73.04
-78.02
-84.52
-93.15
-103.81
-115.43
-125.97
-132.88
-133.72
-126.95
-112.5
-91.79
-67.4
-42.31
-19.02
0.84
16.79
29.08
38.33
45.17
50.05
53.28
55.14
55.97
56.1
55.86
55.48
55.07
54.74
54.63
54.92
55.78
57.28
59.25
61.35
63.11
64.06
63.86
62.43
59.9
56.61
52.97
49.31
45.84
42.58
39.38
36.05
32.45
28.59
24.61
20.79
17.26
14.01
10.88
7.64
4.18
0.57
-2.97
-6.3
-9.53
-13.02
-17.19
-22.26
-28.04
-34.0
-39.53
-44.26
-48.21
-51.8
-55.66
-60.42
-66.6
-74.51
-84.08
-94.69
-104.92
-112.7
-115.7
-112.12
-101.3
-84.07
-62.55
-39.52
-17.62
1.24
16.12
27.03
34.6
39.71
43.2
45.68
47.45
48.65
49.27
49.4
49.17
48.81
48.54
48.48
48.69
49.2
50.03
51.24
52.79
54.49
55.98
56.85
56.7
55.36
52.91
49.67
46.02
42.33
38.82
35.55
32.5
29.57
26.65
23.63
20.37
16.75
12.78
8.59
4.44
0.63
-2.7
-5.56
-8.26
-11.2
-14.8
-19.3
-24.72
-30.84
-37.22
-43.35
-48.83
-53.52
-57.67
-61.92
-67.1
-73.88
-82.39
-91.97
-101.19
-108.14
-110.91
-108.11
-99.32
-85.12
-67.0
-46.94
-26.98
-8.83
6.41
18.26
26.78
32.39
35.68
37.34
38.0
38.19
38.29
38.51
38.89
39.37
39.91
40.53
41.26
42.17
43.26
44.46
45.64
46.66
47.41
47.79
47.73
47.18
46.12
44.64
42.79
40.65
38.18
35.27
31.81
27.83
23.54
19.28
15.4
12.12
9.42
7.07
4.77
2.2
-0.75
-4.03
-7.44
-10.76
-13.85
-16.7
-19.5
-22.51
-25.99
-30.05
-34.59
-39.41
-44.21
-48.81
-53.22
-57.72
-62.79
-69.03
-76.81
-86.0
-95.73
-104.38
-109.99
-110.77
-105.65
-94.59
-78.69
-59.77
-39.92
-21.05
-4.53
8.91
19.17
26.51
31.43
34.42
35.98
36.54
36.52
36.34
36.27
36.46
36.84
37.31
37.8
38.41
39.24
40.4
41.85
43.42
44.84
45.92
46.55
46.61
46.05
44.78
42.81
40.27
37.31
34.15
30.92
27.65
24.37
21.11
17.98
15.03
12.28
9.65
6.99
4.23
1.35
-1.66
-4.84
-8.29
-12.17
-16.52
-21.23
-26.02
-30.59
-34.72
-38.45
-42.05
-45.95
-50.61
-56.43
-63.62
-72.07
-81.24
-90.06
-96.97
-100.27
-98.48
-90.93
-78.03
-61.29
-42.86
-24.87
-8.87
4.41
15.03
23.42
30.03
35.19
39.03
41.68
43.33
44.21
44.56
44.59
44.44
44.21
44.08
44.21
44.78
45.91
47.57
49.57
51.62
53.3
54.18
53.97
52.59
50.28
47.48
44.68
42.17
39.99
37.91
35.62
32.95
29.92
26.76
23.75
21.09
18.75
16.56
14.26
11.66
8.62
5.19
1.47
-2.34
-6.08
-9.64
-13.06
-16.47
-20.13
-24.19
-28.73
-33.59
-38.55
-43.33
-47.85
-52.16
-56.53
-61.37
-67.07
-73.9
-81.81
-90.21
-97.85
-103.02
-103.9
-99.19
-88.57
-72.95
-54.24
-34.74
-16.49
-0.8
11.87
21.7
29.11
34.52
38.25
40.53
41.66
42.03
42.09
42.15
42.43
42.94
43.61
44.37
45.21
46.23
47.47
48.93
50.47
51.86
52.82
53.09
52.55
51.19
49.16
46.7
44.08
41.47
38.86
36.14
33.12
29.73
26.02
22.19
18.43
14.91
11.65
8.61
5.73
2.95
0.25
-2.46
-5.23
-8.12
-11.14
-14.27
-17.6
-21.25
-25.4
-30.15
-35.34
-40.58
-45.44
-49.65
-53.37
-57.16
-61.81
-67.99
-75.88
-84.99
-94.11
-101.55
-105.46
-104.38
-97.57
-85.33
-68.89
-50.1
-30.97
-13.18
2.2
14.68
24.29
31.27
36.0
38.91
40.47
41.11
41.24
41.16
41.09
41.14
41.36
41.79
42.42
43.2
44.12
45.14
46.28
47.52
48.74
49.66
49.84
48.9
46.65
43.29
39.32
35.4
31.98
29.17
26.73
24.23
21.31
17.86
14.03
10.02
6.07
2.32
-1.19
-4.43
-7.42
-10.33
-13.41
-16.93
-21.08
-25.78
-30.77
-35.69
-40.32
-44.67
-48.96
-53.54
-58.79
-65.03
-72.45
-80.91
-89.72
-97.58
-102.68
-103.21
-98.01
-87.01
-71.36
-53.01
-34.1
-16.37
-0.88
11.93
22.01
29.53
34.8
38.23
40.35
41.65
42.5
43.09
43.44
43.53
43.42
43.32
43.44
43.97
44.98
46.41
48.09
49.87
51.56
52.94
53.79
53.91
53.16
51.54
49.21
46.42
43.43
40.4
37.38
34.36
31.31
28.28
25.31
22.48
19.82
17.29
14.81
12.27
9.53
6.49
3.15
-0.36
-3.84
-7.04
-9.88
-12.46
-15.13
-18.25
-22.12
-26.87
-32.37
-38.4
-44.63
-50.77
-56.59
-61.95
-66.85
-71.61
-76.75
-82.94
-90.67
-99.81
-109.4
-117.64
-122.31
-121.38
-113.72
-99.54
-80.31
-58.42
-36.42
-16.4
0.45
13.82
24.1
31.95
37.95
42.46
45.65
47.68
48.81
49.42
49.87
50.35
50.85
51.21
51.33
51.31
51.46
52.15
53.54
55.49
57.56
59.18
59.9
59.5
58.07
55.87
53.27
50.52
47.76
44.92
41.86
38.45
34.7
30.8
27.04
23.7
20.85
18.28
15.66
12.67
9.18
5.31
1.31
-2.56
-6.19
-9.62
-13.0
-16.52
-20.39
-24.78
-29.83
-35.52
-41.7
-48.0
-54.06
-59.63
-64.76
-69.86
-75.52
-82.38
-90.87
-100.91
-111.72
-121.76
-128.95
-131.02
-126.29
-114.2
-95.64
-72.81
-48.57
-25.61
-5.86
9.88
21.69
30.2
36.14
40.14
42.64
44.0
44.55
44.62
44.48
44.37
44.53
45.14
46.42
48.49
51.35
54.84
58.7
62.6
66.21
69.2
71.24
72.05
71.43
69.36
66.06
61.9
57.29
52.53
47.76
42.99
38.23
33.49
28.82
24.23
19.66
15.04
10.34
5.59
0.91
-3.59
-7.89
-12.08
-16.33
-20.86
-25.85
-31.39
-37.44
-43.78
-50.13
-56.31
-62.32
-68.47
-75.34
-83.57
-93.5
-104.8
-116.31
-126.1
-131.91
-131.73
-124.38
-109.9
-89.52
-65.37
-39.95
-15.64
5.76
23.22
36.5
45.99
52.46
56.8
59.73
61.74
63.02
63.64
63.69
63.36
62.89
62.55
62.61
63.25
64.61
66.66
69.23
71.92
74.27
75.83
76.31
75.67
73.99
71.47
68.3
64.72
60.93
57.13
53.43
49.82
46.24
42.59
38.91
35.32
32.01
29.05
26.41
23.95
21.53
19.07
16.58
14.05
11.4
8.47
5.1
1.21
-3.13
-7.74
-12.36
-16.78
-20.88
-24.73
-28.62
-32.94
-38.15
-44.48
-51.86
-59.86
-67.78
-74.97
-81.11
-86.39
-91.47
-97.35
-104.97
-114.91
-126.9
-139.67
-150.89
-157.64
-157.23
-148.06
-130.26
-105.74
-77.55
-48.98
-22.66
-0.09
18.26
32.54
43.19
50.7
55.69
58.88
60.99
62.66
64.13
65.36
66.13
66.34
66.14
65.93
66.19
67.24
69.21
71.91
75.02
78.06
80.55
82.11
82.44
81.44
79.21
76.04
72.23
68.08
63.8
59.47
55.18
50.95
46.73
42.5
38.16
33.7
29.2
24.84
20.85
17.38
14.41
11.74
8.98
5.81
1.96
-2.59
-7.69
-13.06
-18.39
-23.48
-28.27
-32.91
-37.7
-42.97
-48.87
-55.28
-61.82
-68.04
-73.66
-78.75
-83.69
-89.02
-95.28
-102.88
-111.98
-122.38
-133.3
-143.18
-149.75
-150.47
-143.31
-127.62
-104.52
-76.66
-47.4
-19.77
4.17
23.62
38.63
49.72
57.46
62.43
65.19
66.29
66.33
65.82
65.14
64.55
64.2
64.17
64.59
65.5
66.94
68.89
71.23
73.71
75.93
77.41
77.71
76.65
74.33
71.18
67.63
64.03
60.39
56.47
52.01
46.85
41.14
35.23
29.58
24.51
20.16
16.39
12.9
9.34
5.41
1.01
-3.8
-8.77
-13.65
-18.31
-22.82
-27.46
-32.52
-38.17
-44.32
-50.7
-56.98
-62.99
-68.81
-74.76
-81.3
-88.93
-98.11
-109.01
-121.24
-133.63
-144.14
-150.21
-149.4
-140.28
-122.91
-98.94
-71.14
-42.58
-15.86
7.32
26.19
40.75
51.42
58.86
63.79
66.89
68.77
69.82
70.29
70.31
69.91
69.26
68.54
67.97
67.77
68.1
68.99
70.43
72.23
74.12
75.69
76.5
76.15
74.48
71.55
67.65
63.19
58.57
54.03
49.69
45.5
41.36
37.14
32.78
28.33
23.99
20.02
16.6
13.74
11.18
8.49
5.28
1.37
-3.13
-7.84
-12.39
-16.59
-20.58
-24.73
-29.54
-35.3
-42.07
-49.57
-57.35
-64.89
-71.81
-77.98
-83.59
-89.19
-95.57
-103.58
-113.72
-125.77
-138.42
-149.32
-155.49
-154.21
-143.92
-124.85
-99.0
-69.59
-40.08
-13.25
9.3
27.14
40.7
50.71
57.91
62.9
66.13
67.99
68.83
68.96
68.66
68.13
67.53
67.02
66.74
66.8
67.25
68.11
69.29
70.66
71.96
72.86
73.02
72.15
70.15
67.21
63.68
59.93
56.22
52.56
48.74
44.49
39.67
34.4
29.02
23.95
19.46
15.5
11.76
7.86
3.58
-1.06
-5.81
-10.44
-14.86
-19.25
-23.89
-29.07
-34.9
-41.27
-47.93
-54.56
-60.92
-66.85
-72.36
-77.66
-83.21
-89.68
-97.7
-107.56
-118.74
-129.77
-138.25
-141.52
-137.36
-124.81
-104.58
-78.94
-51.03
-23.97
-0.09
19.41
34.39
45.38
53.1
58.26
61.43
63.12
63.78
63.82
63.52
63.05
62.52
62.01
61.68
61.7
62.19
63.13
64.41
65.87
67.32
68.57
69.35
69.38
68.39
66.27
63.08
59.07
54.59
49.94
45.32
40.79
36.36
32.01
27.69
23.33
18.81
14.1
9.25
4.45
-0.08
-4.17
-7.92
-11.67
-15.9
-21.02
-27.08
-33.79
-40.54
-46.76
-52.12
-56.79
-61.35
-66.66
-73.61
-82.77
-94.17
-106.96
-119.38
-128.96
-133.04
-129.55
-117.78
-98.66
-74.56
-48.59
-23.63
-1.75
16.1
29.88
40.12
47.54
52.9
56.79
59.68
61.86
63.44
64.43
64.8
64.61
63.99
63.13
62.25
61.61
61.44
61.98
63.26
65.11
67.06
68.5
68.88
67.91
65.64
62.41
58.67
54.87
51.31
48.11
45.21
42.42
39.47
36.13
32.3
28.11
23.85
19.8
16.07
12.53
8.95
5.09
0.9
-3.47
-7.79
-11.95
-16.04
-20.31
-25.07
-30.52
-36.64
-43.22
-49.86
-56.13
-61.71
-66.54
-70.86
-75.22
-80.39
-87.09
-95.77
-106.3
-117.79
-128.5
-136.07
-138.11
-132.86
-119.92
-100.4
-76.71
-51.84
-28.49
-8.42
7.69
20.03
29.25
36.02
40.9
44.31
46.61
48.09
49.05
49.68
50.14
50.51
50.86
51.25
51.71
52.32
53.15
54.2
55.39
56.49
57.17
57.11
56.1
54.1
51.29
47.94
44.32
40.57
36.73
32.77
28.66
24.43
20.17
15.92
11.69
7.42
3.06
-1.4
-5.82
-9.99
-13.63
-16.65
-19.15
-21.44
-23.97
-27.12
-31.07
-35.75
-40.93
-46.26
-51.43
-56.22
-60.58
-64.73
-69.1
-74.33
-81.0
-89.36
-98.99
-108.62
-116.32
-119.9
-117.6
-108.6
-93.31
-73.29
-50.85
-28.39
-7.97
9.14
22.47
32.26
39.17
43.99
47.43
50.0
52.05
53.77
55.24
56.5
57.51
58.21
58.6
58.76
58.95
59.49
60.62
62.37
64.45
66.36
67.53
67.57
66.33
63.93
60.66
56.85
52.76
48.56
44.31
40.04
35.79
31.67
27.71
23.92
