0
-6.89
-8.6
-10.25
-11.73
-12.93
-13.83
-14.55
-15.31
-16.32
-17.69
-19.42
-21.31
-23.02
-24.11
-24.06
-22.46
-19.1
-14.12
-8.01
-1.49
4.72
10.05
14.16
16.98
18.53
18.89
18.18
16.57
14.35
11.89
9.59
7.78
6.66
6.27
6.53
7.27
8.3
9.46
10.57
11.46
11.97
11.94
11.31
10.1
8.44
6.54
4.63
2.86
1.27
-0.21
-1.7
-3.34
-5.17
-7.14
-9.11
-10.85
-12.22
-13.18
-13.83
-14.43
-15.25
-16.46
-18.08
-19.93
-21.66
-22.82
-22.92
-21.6
-18.65
-14.17
-8.54
-2.4
3.55
8.67
12.54
15.03
16.23
16.39
15.75
14.52
12.87
10.94
8.89
6.97
5.42
4.47
4.28
4.81
5.9
7.26
8.55
9.5
9.94
9.84
9.29
8.45
7.42
6.27
4.98
3.54
1.95
0.3
-1.34
-2.89
-4.35
-5.72
-7.01
-8.17
-9.15
-9.96
-10.71
-11.59
-12.81
-14.43
-16.34
-18.2
-19.49
-19.68
-18.38
-15.41
-10.98
-5.56
0.17
5.53
10.03
13.42
15.65
16.81
16.99
16.26
14.73
12.57
10.06
7.57
5.47
4.06
3.44
3.59
4.3
5.32
6.4
7.37
8.21
8.91
9.41
9.5
8.96
7.57
5.4
2.73
0.01
-2.37
-4.24
-5.69
-6.93
-8.18
-9.5
-10.82
-12.0
-12.9
-13.51
-13.92
-14.32
-14.97
-16.11
-17.86
-20.13
-22.53
-24.39
-24.97
-23.69
-20.36
-15.26
-9.04
-2.51
3.6
8.78
12.8
15.62
17.29
17.85
17.38
16.0
13.92
11.52
9.2
7.35
6.23
5.9
6.28
7.18
8.35
9.55
10.6
11.38
11.84
11.94
11.69
11.07
10.03
8.56
6.66
4.47
2.18
0.01
-1.86
-3.42
-4.74
-5.99
-7.25
-8.54
-9.78
-10.86
-11.74
-12.46
-13.13
-13.91
-14.99
-16.54
-18.66
-21.24
-23.89
-25.96
-26.64
-25.26
-21.52
-15.66
-8.43
-0.84
6.14
11.84
15.98
18.62
19.96
20.24
19.63
18.28
16.37
14.16
12.01
10.25
9.11
8.62
8.64
8.99
9.5
10.15
10.95
11.94
12.99
13.84
14.16
13.69
12.31
10.17
7.58
4.95
2.62
0.8
-0.45
-1.28
-1.95
-2.73
-3.84
-5.33
-7.13
-9.02
-10.75
-12.15
-13.16
-13.93
-14.7
-15.76
-17.26
-19.15
-21.09
-22.57
-23.01
-21.96
-19.19
-14.82
-9.24
-3.02
3.19
8.8
13.35
16.59
18.44
18.98
18.39
16.88
14.74
12.26
9.76
7.59
6.0
5.17
5.08
5.61
6.55
7.65
8.66
9.4
9.72
9.57
8.94
7.91
6.56
4.96
3.13
1.06
-1.23
-3.68
-6.18
-8.56
-10.65
-12.37
-13.75
-14.91
-16.02
-17.29
-18.85
-20.76
-23.0
-25.39
-27.59
-29.1
-29.34
-27.85
-24.49
-19.47
-13.38
-6.95
-0.87
4.42
8.75
12.15
14.71
16.52
17.63
18.02
17.73
16.84
15.53
14.13
13.0
12.48
12.74
13.68
15.03
16.37
17.4
17.97
18.1
17.85
17.25
16.25
14.72
12.63
10.0
6.98
3.76
0.56
-2.46
-5.13
-7.4
-9.24
-10.74
-12.03
-13.28
-14.67
-16.36
-18.46
-20.95
-23.6
-25.94
-27.33
-27.11
-24.81
-20.36
-14.13
-6.91
0.41
6.98
12.22
15.85
17.87
18.49
17.94
16.5
14.44
12.05
9.65
7.59
6.14
5.44
5.42
5.88
6.58
7.34
8.09
8.78
9.35
9.68
9.62
9.11
8.21
7.02
5.65
4.14
2.41
0.43
-1.81
-4.21
-6.62
-8.89
-10.88
-12.51
-13.7
-14.5
-15.06
-15.69
-16.71
-18.34
-20.47
-22.65
-24.19
-24.4
-22.8
-19.3
-14.14
-7.88
-1.23
5.09
10.51
14.66
17.38
18.72
18.79
17.73
15.74
13.04
10.0
7.1
4.78
3.34
2.83
3.11
3.88
4.93
6.12
7.36
8.56
9.56
10.15
10.14
9.42
7.98
5.93
3.42
0.62
-2.21
-4.89
-7.21
-9.13
-10.68
-12.04
-13.4
-14.97
-16.89
-19.19
-21.76
-24.26
-26.19
-26.92
-25.88
-22.75
-17.59
-10.92
-3.5
3.77
10.12
15.04
18.35
20.11
20.58
20.04
18.69
16.68
14.12
11.23
8.36
5.9
4.21
3.42
3.38
3.8
4.38
4.96
5.49
6.04
6.6
7.04
7.19
6.86
5.87
4.15
1.73
-1.26
-4.57
-7.85
-10.83
-13.31
-15.31
-17.02
-18.65
-20.46
-22.62
-25.21
-28.16
-31.17
-33.62
-34.65
-33.35
-29.14
-22.04
-12.8
-2.7
6.88
14.79
20.46
23.82
25.19
25.01
23.67
21.47
18.65
15.48
12.32
9.55
7.53
6.45
6.33
7.02
8.25
9.76
11.29
12.62
13.56
13.97
13.79
13.0
11.62
9.66
7.13
4.07
0.6
-3.07
-6.6
-9.7
-12.23
-14.18
-15.74
-17.14
-18.64
-20.46
-22.73
-25.46
-28.47
-31.24
-32.97
-32.74
-29.84
-24.02
-15.73
-5.95
4.04
13.08
20.4
25.66
28.91
30.36
30.2
28.61
25.78
22.04
17.92
14.02
10.95
9.07
8.45
8.86
9.89
11.15
12.35
13.36
14.16
14.73
14.97
14.72
13.79
12.04
9.47
6.21
2.51
-1.34
-5.01
-8.24
-10.84
-12.76
-14.11
-15.17
-16.3
-17.87
-20.07
-22.84
-25.71
-27.9
-28.44
-26.47
-21.61
-14.07
-4.71
5.24
14.52
22.13
27.57
30.77
31.89
31.22
28.99
25.48
21.06
16.26
11.75
8.19
6.05
5.45
6.19
7.82
9.79
11.65
13.1
14.0
14.33
14.11
13.35
12.03
10.12
7.57
4.41
0.71
-3.29
-7.27
-10.89
-13.86
-16.08
-17.67
-18.89
-20.1
-21.64
-23.74
-26.42
-29.45
-32.27
-34.05
-33.89
-31.09
-25.37
-17.11
-7.18
3.18
12.74
20.58
26.17
29.4
30.46
29.66
27.34
23.92
19.87
15.72
12.05
9.31
7.73
7.29
7.76
8.84
10.26
11.87
13.58
15.27
16.69
17.53
17.48
16.33
14.1
11.03
7.51
3.98
0.8
-1.86
-4.05
-5.98
-7.96
-10.17
-12.59
-14.96
-16.92
-18.24
-18.93
-19.31
-19.88
-21.13
-23.29
-26.22
-29.38
-31.95
-32.94
-31.5
-27.15
-20.02
-10.8
-0.65
9.13
17.47
23.74
27.79
29.8
30.09
28.95
26.63
23.4
19.63
15.8
12.45
10.02
8.76
8.68
9.59
11.14
12.98
14.79
16.35
17.51
18.17
18.23
17.62
16.26
14.15
11.41
8.24
4.99
2.02
-0.42
-2.22
-3.52
-4.59
-5.76
-7.2
-8.93
-10.76
-12.45
-13.8
-14.74
-15.36
-15.89
-16.6
-17.75
-19.55
-22.04
-25.0
-27.96
-30.16
-30.7
-28.85
-24.27
-17.19
-8.41
0.92
9.62
16.77
21.85
24.78
25.78
25.18
23.35
20.63
17.36
13.93
10.78
8.29
6.72
6.14
6.39
7.21
8.3
9.45
10.48
11.29
11.76
11.8
11.31
10.3
8.82
7.0
4.95
2.78
0.56
-1.65
-3.79
-5.87
-7.88
-9.85
-11.7
-13.32
-14.57
-15.4
-15.91
-16.38
-17.18
-18.59
-20.66
-23.06
-25.17
-26.18
-25.34
-22.23
-16.95
-10.08
-2.52
4.75
11.01
15.88
19.29
21.33
22.05
21.48
19.64
16.68
12.93
8.91
5.16
2.15
0.2
-0.58
-0.23
1.05
2.96
5.11
7.08
8.51
9.09
8.72
7.48
5.6
3.43
1.29
-0.61
-2.27
-3.81
-5.46
-7.39
-9.64
-12.09
-14.52
-16.69
-18.42
-19.63
-20.43
-21.04
-21.8
-23.02
-24.79
-26.85
-28.6
-29.2
-27.88
-24.23
-18.4
-11.06
-3.22
4.14
10.32
15.0
18.19
20.06
20.71
20.2
18.57
15.95
12.69
9.34
6.48
4.58
3.83
4.1
5.09
6.46
7.9
9.18
10.17
10.72
10.76
10.25
9.24
7.86
6.21
4.34
2.25
-0.09
-2.66
-5.35
-8.02
-10.55
-12.85
-14.88
-16.58
-17.87
-18.68
-19.05
-19.18
-19.44
-20.18
-21.61
-23.63
-25.77
-27.36
-27.64
-26.02
-22.24
-16.52
-9.45
-1.91
5.19
11.14
15.57
18.45
19.95
20.29
19.65
18.11
15.81
12.94
9.89
7.05
4.83
3.5
3.16
3.76
5.05
6.7
8.33
9.6
10.3
10.41
9.99
9.18
8.01
6.51
4.63
2.41
-0.03
-2.49
-4.78
-6.77
-8.47
-9.93
-11.25
-12.47
-13.62
-14.73
-15.85
-17.08
-18.44
-19.8
-20.81
-20.91
-19.54
-16.3
-11.22
-4.79
2.15
8.71
14.15
18.1
20.5
21.46
21.16
19.73
17.33
14.19
10.7
7.32
4.54
2.69
1.91
2.05
2.81
3.82
4.8
5.62
6.32
6.97
7.55
7.84
7.52
6.31
4.1
1.11
-2.24
-5.48
-8.28
-10.55
-12.4
-14.05
-15.72
-17.56
-19.65
-22.01
-24.5
-26.81
-28.45
-28.76
-27.12
-23.2
-17.09
-9.38
-1.02
6.94
13.65
18.6
21.69
23.08
23.05
21.86
19.74
16.96
13.82
10.72
8.05
6.11
5.07
4.91
5.47
6.5
7.72
8.88
9.8
10.38
10.57
10.34
9.63
8.4
6.65
4.46
1.98
-0.62
-3.25
-5.9
-8.58
-11.23
-13.7
-15.79
-17.34
-18.37
-19.12
-19.97
-21.21
-22.94
-24.92
-26.61
-27.34
-26.48
-23.62
-18.68
-11.99
-4.19
3.85
11.26
17.33
21.65
24.11
24.87
24.22
22.53
20.14
17.42
14.74
12.45
10.84
10.09
10.18
10.96
12.15
13.5
14.79
15.89
16.74
17.27
17.42
17.05
16.06
14.36
11.99
9.13
6.08
3.21
0.79
-1.05
-2.42
-3.53
-4.64
-5.91
-7.35
-8.86
-10.32
-11.65
-12.85
-13.95
-15.01
-16.13
-17.44
-19.09
-21.18
-23.57
-25.79
-27.1
-26.68
-23.98
-18.96
-12.1
-4.27
3.58
10.67
16.51
20.86
23.6
24.72
24.23
22.29
19.21
15.47
11.62
8.22
5.74
4.47
4.5
5.63
7.5
9.6
11.51
12.94
13.85
14.27
14.31
13.96
13.18
11.86
10.01
7.72
5.13
2.4
-0.36
-3.09
-5.74
-8.2
-10.36
-12.09
-13.32
-14.13
-14.69
-15.32
-16.37
-18.04
-20.29
-22.7
-24.51
-24.86
-23.08
-18.96
-12.8
-5.41
2.22
9.22
14.93
19.05
21.53
22.46
22.02
20.4
17.88
14.78
11.53
8.51
6.08
4.5
3.84
4.04
4.93
6.24
7.73
9.18
10.42
11.25
11.52
11.1
9.93
8.1
5.83
3.38
0.98
-1.24
-3.29
-5.25
-7.19
-9.15
-11.06
-12.8
-14.24
-15.31
-16.02
-16.46
-16.84
-17.4
-18.41
-20.03
-22.25
-24.8
-27.16
-28.56
-28.27
-25.72
-20.76
-13.77
-5.6
2.71
10.13
15.97
19.97
22.21
22.96
22.46
20.9
18.41
15.26
11.87
8.78
6.51
5.36
5.3
6.03
7.16
8.39
9.59
10.75
11.91
12.98
13.76
14.02
13.53
12.22
10.18
7.61
4.79
2.01
-0.47
-2.46
-3.91
-4.95
-5.87
-6.98
-8.5
-10.43
-12.49
-14.31
-15.57
-16.14
-16.17
-16.03
-16.17
-16.94
-18.53
-20.86
-23.59
-26.14
-27.77
-27.7
-25.37
-20.58
-13.66
-5.46
2.92
10.43
16.3
20.21
22.25
22.7
21.93
20.2
17.77
14.89
11.89
9.18
7.09
5.85
5.49
5.9
6.87
8.18
9.61
10.97
12.08
12.75
12.84
12.3
11.12
9.41
7.33
5.05
2.72
0.47
-1.64
-3.58
-5.33
-6.87
-8.22
-9.35
-10.28
-11.0
-11.52
-11.85
-12.11
-12.51
-13.32
-14.76
-16.85
-19.29
-21.49
-22.65
-22.06
-19.33
-14.54
-8.26
-1.31
5.44
11.29
15.85
18.98
20.72
21.16
20.37
18.47
15.69
12.36
8.96
5.92
3.58
2.09
1.48
1.65
2.5
3.9
5.62
7.38
8.85
9.73
9.87
9.24
7.94
6.14
3.97
1.56
-1.02
-3.66
-6.26
-8.7
-10.89
-12.79
-14.41
-15.82
-17.09
-18.29
-19.46
-20.63
-21.89
-23.32
-24.97
-26.76
-28.33
-29.08
-28.34
-25.56
-20.63
-13.9
-6.2
1.54
8.48
14.08
18.16
20.72
21.87
21.71
20.34
17.95
14.85
11.5
8.41
6.06
4.71
4.37
4.82
5.74
6.86
8.04
9.24
10.44
11.5
12.19
12.2
11.34
9.65
7.37
4.86
2.41
0.18
-1.86
-3.79
-5.71
-7.66
-9.61
-11.52
-13.35
-15.02
-16.43
-17.49
-18.16
-18.57
-19.03
-19.91
-21.53
-23.97
-26.89
-29.63
-31.31
-31.09
-28.41
-23.18
-15.85
-7.26
1.53
9.55
16.12
20.91
23.9
25.26
25.19
23.87
21.53
18.48
15.17
12.1
9.75
8.4
8.12
8.76
10.05
11.7
13.46
15.14
16.59
17.64
18.11
17.87
16.81
14.97
12.49
9.62
6.58
3.56
0.66
-2.07
-4.61
-6.94
-9.03
-10.83
-12.31
-13.41
-14.13
-14.54
-14.77
-15.12
-15.9
-17.42
-19.73
-22.54
-25.2
-26.82
-26.52
-23.73
-18.35
-10.86
-2.18
6.59
14.41
20.58
24.81
27.14
27.81
27.06
25.08
22.06
18.27
14.17
10.33
7.33
5.57
5.15
5.87
7.33
9.09
10.79
12.2
13.17
13.64
13.57
12.91
11.64
9.79
7.39
4.55
1.41
-1.87
-5.08
-8.06
-10.7
-12.95
-14.85
-16.49
-18.01
-19.57
-21.34
-23.42
-25.72
-27.91
-29.32
-29.16
-26.74
-21.76
-14.47
-5.64
3.65
12.34
19.61
25.01
28.4
29.85
29.53
27.66
24.54
20.6
16.37
12.42
9.22
7.08
6.1
6.16
7.08
8.61
10.51
12.45
14.08
15.01
14.95
13.8
11.73
9.08
6.26
3.51
0.85
-1.83
-4.64
-7.58
-10.47
-13.05
-15.16
-16.76
-18.04
-19.3
-20.8
-22.71
-25.02
-27.47
-29.6
-30.7
-30.02
-26.91
-21.15
-13.08
-3.6
6.06
14.7
21.46
26.02
28.53
29.35
28.81
27.16
24.53
21.12
17.29
13.55
10.49
8.55
7.91
8.45
9.78
11.45
13.06
14.34
15.15
15.44
15.17
14.32
12.91
11.01
8.77
6.38
3.98
1.63
-0.75
-3.23
-5.84
-8.51
-11.04
-13.23
-14.96
-16.25
-17.25
-18.2
-19.33
-20.84
-22.78
-25.07
-27.36
-29.02
-29.29
-27.48
-23.2
-16.63
-8.48
0.22
8.41
15.27
20.4
23.68
25.24
25.22
23.79
21.17
17.65
13.71
9.88
6.69
4.51
3.49
3.52
4.34
5.61
7.0
8.33
9.46
10.34
10.87
10.93
10.37
9.11
7.15
4.62
1.73
-1.28
-4.26
-7.07
-9.65
-11.93
-13.82
-15.28
-16.35
-17.2
-18.09
-19.28
-20.88
-22.74
-24.39
-25.18
-24.4
-21.56
-16.57
-9.84
-2.11
5.68
12.66
18.18
21.9
23.72
23.73
22.19
19.47
16.0
12.27
8.75
5.81
3.65
2.37
1.95
2.32
3.36
4.93
6.8
8.67
10.19
11.03
10.97
10.02
8.37
6.33
4.17
2.02
-0.18
-2.55
-5.16
-7.95
-10.7
-13.15
-15.08
-16.4
-17.12
-17.36
-17.35
-17.48
-18.28
-20.19
-23.32
-27.24
-30.97
-33.23
-32.97
-29.71
-23.74
-16.0
-7.66
0.2
6.82
11.86
15.23
16.98
17.25
16.24
14.25
11.7
9.06
6.84
5.45
5.11
5.81
7.27
9.1
10.9
12.41
13.49
14.14
14.36
14.15
13.44
12.18
10.38
8.12
5.54
2.81
0.09
-2.53
-4.99
-7.27
-9.39
-11.34
-13.05
-14.42
-15.4
-16.04
-16.6
-17.41
-18.78
-20.79
-23.15
-25.24
-26.23
-25.38
-22.27
-16.99
-10.08
-2.43
4.99
11.38
16.24
19.47
21.2
21.68
21.1
19.6
17.28
14.39
11.28
8.46
6.38
5.32
5.29
6.04
7.21
8.45
9.55
10.45
11.16
11.65
11.85
11.6
10.77
9.3
7.22
4.66
1.81
-1.14
-4.02
-6.66
-8.95
-10.81
-12.27
-13.48
-14.66
-16.05
-17.79
-19.8
-21.73
-23.05
-23.18
-21.65
-18.25
-13.11
-6.67
0.39
7.3
13.29
17.85
20.7
21.87
21.58
20.11
17.76
14.78
11.45
8.1
5.14
2.94
1.76
1.65
2.44
3.84
5.47
6.99
8.12
8.67
8.59
7.95
6.85
5.43
3.75
1.81
-0.42
-2.96
-5.8
-8.81
-11.84
-14.72
-17.3
-19.48
-21.22
-22.57
-23.66
-24.67
-25.83
-27.31
-29.13
-31.07
-32.61
-33.06
-31.69
-28.03
-22.05
-14.26
-5.57
2.98
10.52
16.49
20.72
23.2
24.04
23.38
21.42
18.53
15.21
12.06
9.56
7.98
7.35
7.52
8.31
9.55
11.13
12.89
14.66
16.22
17.36
17.91
17.75
16.78
14.93
12.26
8.98
5.51
2.31
-0.27
-2.15
-3.6
-5.02
-6.78
-8.97
-11.41
-13.73
-15.58
-16.83
-17.57
-18.1
-18.8
-20.02
-22.0
-24.75
-28.01
-31.18
-33.43
-33.89
-31.85
-27.02
-19.68
-10.6
-0.92
8.15
15.65
21.01
24.16
25.35
25.03
23.62
21.44
18.78
15.93
13.25
11.1
9.76
9.3
9.61
10.43
11.55
12.81
14.12
15.37
16.4
16.98
16.86
15.93
14.22
11.91
9.26
6.52
3.81
1.18
-1.42
-4.02
-6.59
-8.98
-11.0
-12.48
-13.41
-13.99
-14.54
-15.41
-16.87
-18.96
-21.51
-24.11
-26.17
-27.01
-25.99
-22.67
-16.96
-9.24
-0.32
8.72
16.83
23.27
27.64
29.93
30.34
29.14
26.6
23.03
18.83
14.5
10.58
7.55
5.72
5.21
5.93
7.59
9.79
12.09
14.05
15.34
15.76
15.28
13.98
12.02
9.55
6.72
3.63
0.37
-2.99
-6.34
-9.57
-12.53
-15.07
-17.08
-18.55
-19.6
-20.45
-21.41
-22.78
-24.73
-27.23
-29.93
-32.21
-33.24
-32.21
-28.56
-22.22
-13.69
-3.92
5.96
14.91
22.19
27.44
30.56
31.63
30.81
28.39
24.77
20.52
16.28
12.6
9.89
8.28
7.72
8.01
8.93
10.26
11.82
13.41
14.82
15.84
16.23
15.83
14.55
12.42
9.64
6.53
3.41
0.55
-1.98
-4.27
-6.52
-8.86
-11.33
-13.76
-15.91
-17.51
-18.44
-18.81
-18.91
-19.16
-19.96
-21.57
-23.99
-26.89
-29.64
-31.38
-31.22
-28.51
-23.01
-15.05
-5.53
4.37
13.44
20.79
26.0
29.05
30.14
29.55
27.55
24.43
20.56
16.43
12.56
9.42
7.31
6.33
6.43
7.42
9.01
10.92
12.85
14.51
15.72
16.35
16.29
15.49
13.98
11.83
9.22
6.39
3.57
0.87
-1.7
-4.21
-6.73
-9.26
-11.65
-13.69
-15.18
-16.04
-16.36
-16.39
-16.49
-17.01
-18.16
-20.0
-22.32
-24.65
-26.27
-26.38
-24.3
-19.71
-12.82
-4.38
4.47
12.59
19.1
23.59
26.05
26.74
25.94
23.92
20.9
17.18
13.13
9.24
6.01
3.82
2.85
3.02
4.03
5.46
6.91
8.11
8.94
9.37
9.41
9.0
8.06
6.54
4.45
1.93
-0.84
-3.7
-6.53
-9.29
-11.92
-14.32
-16.37
-18.0
-19.24
-20.25
-21.34
-22.77
-24.69
-27.01
-29.34
-31.0
-31.2
-29.27
-24.89
-18.25
-10.04
-1.26
7.08
14.15
19.5
22.95
24.59
24.63
23.31
20.96
17.89
14.47
11.05
7.96
5.51
3.9
3.26
3.57
4.64
6.21
7.99
9.74
11.27
12.4
12.92
12.62
11.34
9.16
6.34
3.29
0.39
-2.14
-4.32
-6.34
-8.38
-10.53
-12.72
-14.76
-16.45
-17.71
-18.59
-19.27
-20.03
-21.15
-22.81
-24.98
-27.36
-29.37
-30.22
-29.19
-25.86
-20.24
-12.88
-4.66
3.48
10.73
16.62
20.95
23.73
25.0
24.84
23.33
20.69
17.31
13.71
10.46
7.99
6.54
6.08
6.41
7.24
8.31
9.46
10.58
11.58
12.37
12.8
12.71
12.02
10.72
8.92
6.77
4.45
2.05
-0.36
-2.78
-5.19
-7.54
-9.73
-11.62
-13.13
-14.24
-15.02
-15.55
-15.96
-16.37
-16.93
-17.83
-19.22
-21.13
-23.31
-25.25
-26.24
-25.59
-22.87
-18.07
-11.66
-4.41
2.83
9.36
14.7
18.63
21.03
21.85
21.12
18.99
15.8
12.08
8.44
5.47
3.53
2.71
2.85
3.69
4.89
6.21
7.44
8.47
9.25
9.8
10.12
10.2
9.96
9.24
7.93
5.97
3.48
0.64
-2.26
-5.02
-7.49
-9.62
-11.39
-12.82
-14.01
-15.09
-16.3
-17.82
-19.73
-21.85
-23.73
-24.71
-24.16
-21.64
-17.08
-10.9
-3.79
3.39
9.9
15.23
19.12
21.52
22.46
22.02
20.33
17.62
14.25
10.67
7.37
4.69
2.86
1.95
1.95
2.8
4.33
6.33
8.46
10.32
11.57
11.96
11.45
10.12
8.19
5.87
3.37
0.83
-1.66
-4.08
-6.41
-8.66
-10.82
-12.86
-14.72
-16.39
-17.91
-19.38
-20.9
-22.54
-24.3
-26.07
-27.58
-28.47
-28.23
-26.4
-22.65
-16.98
-9.78
-1.79
6.09
13.02
18.41
21.95
23.62
23.59
22.15
19.73
16.84
13.98
11.56
9.8
8.74
8.26
8.21
8.47
8.96
9.67
10.56
11.58
12.63
13.57
14.2
14.29
13.61
12.02
9.58
6.5
3.16
-0.04
-2.8
-5.01
-6.77
-8.22
-9.53
-10.75
-11.88
-12.89
-13.8
-14.68
-15.61
-16.72
-18.08
-19.79
-21.83
-24.12
-26.33
-27.94
-28.32
-26.88
-23.34
-17.86
-11.01
-3.6
3.53
9.74
14.69
18.25
20.44
21.32
20.94
19.46
17.1
14.29
11.53
9.3
8.0
7.79
8.6
10.13
12.04
13.98
15.72
17.13
18.15
18.66
18.52
17.6
15.89
13.57
10.99
8.49
6.25
4.25
2.29
0.17
-2.13
-4.47
-6.57
-8.21
-9.37
-10.24
-11.07
-12.15
-13.6
-15.4
-17.38
-19.22
-20.54
-20.91
-19.94
-17.36
-13.09
-7.37
-0.71
6.16
12.45
17.5
20.91
22.63
22.85
21.89
20.08
17.64
14.75
11.68
8.77
6.45
5.07
4.79
5.45
6.71
8.17
9.51
10.58
11.35
11.8
11.81
11.22
9.89
7.78
5.05
2.0
-0.98
-3.55
-5.54
-6.97
-8.05
-9.06
-10.23
-11.67
-13.25
-14.76
-15.94
-16.67
-16.99
-17.14
-17.42
-18.18
-19.64
-21.78
-24.31
-26.63
-27.95
-27.51
-24.83
-19.92
-13.25
-5.64
2.03
8.98
14.71
18.93
21.56
22.69
22.52
21.32
19.44
17.18
14.79
12.49
10.48
8.95
8.07
7.91
8.43
9.44
10.71
11.99
13.1
13.91
14.27
14.06
13.18
11.58
9.36
6.74
4.03
1.52
-0.54
-2.08
-3.15
-3.98
-4.85
-5.94
-7.34
-8.91
-10.47
-11.74
-12.57
-12.92
-12.94
-12.88
-13.03
-13.66
-14.94
-16.9
-19.44
-22.24
-24.8
-26.52
-26.76
-25.1
-21.43
-16.04
-9.53
-2.67
3.79
9.32
13.62
16.61
18.3
18.75
18.09
16.52
14.33
11.84
9.37
7.19
5.5
4.43
4.03
4.32
5.25
6.71
8.5
10.37
11.97
12.95
13.0
11.98
10.0
7.38
4.57
1.93
-0.33
-2.27
-4.07
-5.92
-7.82
-9.68
-11.3
-12.6
-13.59
-14.38
-15.09
-15.81
-16.6
-17.56
-18.8
-20.36
-22.11
-23.66
-24.42
-23.78
-21.31
-16.99
-11.21
-4.67
1.81
7.58
12.18
15.47
17.52
18.47
18.45
17.51
15.7
13.16
10.2
7.29
4.91
3.43
2.96
3.39
4.47
5.87
7.32
8.58
9.46
9.81
9.54
8.69
7.38
5.77
4.07
2.42
0.88
-0.54
-1.96
-3.55
-5.47
-7.77
-10.35
-12.92
-15.15
-16.76
-17.72
-18.22
-18.61
-19.27
-20.5
-22.41
-24.88
-27.56
-29.83
-30.94
-30.12
-26.95
-21.43
-14.12
-5.93
2.13
9.21
14.74
18.45
20.33
20.54
19.43
17.47
15.19
13.05
11.34
10.18
9.53
9.29
9.34
9.6
10.0
10.54
11.19
11.98
12.86
13.67
14.2
14.15
13.34
11.77
9.58
7.03
4.4
1.89
-0.41
-2.47
-4.35
-6.12
-7.85
-9.6
-11.33
-12.92
-14.21
-15.14
-15.76
-16.27
-16.97
-18.1
-19.74
-21.73
-23.69
-25.09
-25.41
-24.18
-21.21
-16.54
-10.51
-3.68
3.31
9.83
15.37
19.53
22.1
22.98
22.26
20.19
17.16
13.64
10.15
7.16
4.99
3.84
3.7
4.41
5.73
7.4
9.16
10.82
12.23
13.21
13.62
13.35
12.38
10.79
8.78
6.56
4.25
1.93
-0.4
-2.73
-4.98
-7.02
-8.76
-10.16
-11.32
-12.4
-13.61
-15.1
-16.94
-19.09
-21.4
-23.52
-24.96
-25.12
-23.47
-19.68
-13.89
-6.63
1.25
8.83
15.37
20.45
23.92
25.83
26.27
25.34
23.17
20.02
16.29
12.5
9.2
6.82
5.59
5.53
6.49
8.19
10.26
12.28
13.87
14.71
14.67
13.79
12.24
10.26
8.06
5.77
3.45
1.1
-1.3
-3.78
-6.34
-8.96
-11.51
-13.84
-15.8
-17.37
-18.64
-19.83
-21.19
-22.86
-24.83
-26.83
-28.38
-28.87
-27.68
-24.41
-19.01
-11.84
-3.65
4.65
12.19
18.34
22.76
25.34
26.18
25.51
23.65
21.02
18.06
15.16
12.64
10.71
9.52
9.13
9.52
10.53
11.95
13.48
14.9
16.05
16.83
17.12
16.79
15.68
13.74
11.11
8.09
5.06
2.29
-0.12
-2.24
-4.21
-6.14
-8.01
-9.7
-11.14
-12.29
-13.24
-14.14
-15.15
-16.41
-18.03
-20.02
-22.24
-24.34
-25.77
-25.86
-24.05
-20.09
-14.18
-6.98
0.63
7.76
13.76
18.3
21.28
22.74
22.76
21.44
19.01
15.86
12.48
9.43
7.13
5.83
5.53
6.08
7.27
8.84
10.56
12.18
13.45
14.17
14.19
13.46
12.05
10.11
7.88
5.59
3.44
1.54
-0.12
-1.65
-3.2
-4.86
-6.63
-8.39
-9.97
-11.23
-12.14
-12.82
-13.49
-14.43
-15.84
-17.72
-19.8
-21.53
-22.2
-21.2
-18.2
-13.3
-7.02
-0.18
6.4
12.04
16.34
19.15
20.52
20.6
19.61
17.78
15.39
12.73
10.04
7.57
5.57
4.24
3.73
4.08
5.19
6.78
8.51
10.03
11.07
11.47
11.17
10.15
8.48
6.26
3.71
1.12
-1.26
-3.26
-4.89
-6.28
-7.61
-9.03
-10.53
-12.01
-13.27
-14.17
-14.69
-14.98
-15.26
-15.84
-16.97
-18.73
-21.06
-23.65
-25.95
-27.31
-27.06
-24.71
-20.18
-13.81
-6.37
1.19
7.95
13.31
17.02
19.13
19.89
19.55
18.34
16.48
14.24
11.92
9.86
8.32
7.49
7.39
7.93
8.92
10.14
11.38
12.51
13.42
14.02
14.19
13.82
12.76
10.95
8.49
5.65
2.77
0.22
-1.78
-3.2
-4.18
-4.96
-5.79
-6.82
-8.06
-9.38
-10.58
-11.51
-12.12
-12.54
-12.99
-13.75
-15.01
-16.79
-18.94
-21.17
-23.05
-24.1
-23.86
-22.0
-18.37
-13.14
-6.8
-0.0
6.49
12.02
16.12
18.55
19.3
18.58
16.75
14.27
11.62
9.21
7.3
6.02
5.37
5.32
5.78
6.68
7.89
9.21
10.43
11.3
11.66
11.41
10.56
9.2
7.46
5.49
3.45
1.45
-0.5
-2.42
-4.4
-6.47
-8.6
-10.64
-12.4
-13.74
-14.57
-15.01
-15.26
-15.65
-16.5
-17.99
-20.03
-22.2
-23.78
-23.99
-22.23
-18.35
-12.71
-6.04
0.77
6.91
11.87
15.41
17.54
18.4
18.14
16.96
15.02
12.59
9.97
7.56
5.7
4.68
4.51
5.05
5.99
7.05
8.04
8.92
9.74
10.48
11.03
11.16
10.64
9.32
7.25
4.66
1.87
-0.84
-3.29
-5.49
-7.52
-9.45
-11.3
-12.94
-14.25
-15.16
-15.73
-16.15
-16.69
-17.57
-18.95
-20.86
-23.24
-25.87
-28.34
-30.07
-30.32
-28.51
-24.35
-18.1
-10.45
-2.41
5.05
11.22
15.76
18.68
20.2
20.55
19.92
18.43
16.24
13.61
10.94
8.7
7.28
6.88
7.42
8.59
10.03
11.44
12.7
13.82
14.78
15.49
15.71
15.15
13.64
11.24
8.22
5.01
2.03
-0.51
-2.61
-4.51
-6.47
-8.66
-11.0
-13.24
-15.07
-16.3
-16.98
-17.38
-17.89
-18.81
-20.33
-22.39
-24.7
-26.82
-28.13
-27.99
-25.83
-21.39
-14.85
-6.86
1.55
9.31
15.61
20.06
22.69
23.73
23.45
22.01
19.55
16.32
12.7
9.27
6.59
5.03
4.69
5.42
6.92
8.85
10.87
12.66
13.93
14.44
14.1
12.98
11.26
9.13
6.78
4.26
1.61
-1.19
-4.1
-7.1
-10.12
-13.02
-15.62
-17.72
-19.2
-20.15
-20.9
-21.93
-23.63
-26.07
-28.88
-31.25
-32.19
-30.82
-26.74
-20.07
-11.51
-2.1
7.05
15.03
21.24
25.46
27.73
28.22
27.16
24.81
21.53
17.77
14.07
10.95
8.83
7.94
8.25
9.54
11.45
13.53
15.37
16.61
17.08
16.77
15.83
14.44
12.75
10.79
8.52
5.9
2.94
-0.23
-3.43
-6.48
-9.21
-11.54
-13.47
-15.05
-16.42
-17.81
-19.47
-21.64
-24.39
-27.51
-30.41
-32.23
-32.04
-29.11
-23.24
-14.85
-4.94
5.19
14.33
21.63
26.72
29.64
30.63
29.94
27.8
24.5
20.45
16.22
12.38
9.43
7.66
7.07
7.5
8.66
10.19
11.76
13.07
13.93
14.27
14.11
13.52
12.52
11.07
9.07
6.49
3.4
-0.02
-3.45
-6.59
-9.18
-11.11
-12.42
-13.31
-14.08
-15.06
-16.48
-18.44
-20.81
-23.28
-25.36
-26.48
-26.05
-23.59
-18.87
-12.09
-3.88
4.76
12.72
19.08
23.31
25.38
25.58
24.4
22.28
19.6
16.65
13.67
10.95
8.8
7.5
7.21
7.9
9.34
11.11
12.75
13.92
14.45
14.38
13.85
12.95
11.64
9.81
7.38
4.38
1.04
-2.29
-5.27
-7.67
-9.47
-10.79
-11.88
-13.03
-14.46
-16.32
-18.56
-20.94
-23.02
-24.21
-23.93
-21.77
-17.6
-11.66
-4.58
2.86
9.8
15.57
19.76
22.25
23.13
22.59
20.92
18.44
15.55
12.65
10.16
8.37
7.42
7.27
7.71
8.5
9.4
10.21
10.81
11.14
11.13
10.73
9.85
8.48
6.6
4.31
1.76
-0.85
-3.36
-5.66
-7.75
-9.67
-11.39
-12.88
-14.06
-14.92
-15.54
-16.11
-16.84
-17.94
-19.5
-21.48
-23.63
-25.48
-26.44
-25.87
-23.34
-18.79
-12.61
-5.61
1.27
7.22
11.74
14.71
16.29
16.76
16.36
15.31
13.78
11.97
10.15
8.61
7.6
7.29
7.62
8.34
9.16
9.84
10.28
10.54
10.72
10.86
10.82
10.38
9.35
7.65
5.44
3.04
0.79
-1.06
-2.45
-3.47
-4.34
-5.26
-6.4
-7.78
-9.29
-10.71
-11.85
-12.59
-12.98
-13.19
-13.5
-14.14
-15.28
-16.94
-19.01
-21.19
-23.05
-24.07
-23.74
-21.76
-18.14
-13.21
-7.59
-1.98
3.03
7.03
9.85
11.47
11.98
11.54
10.35
8.67
6.8
5.04
3.68
2.94
2.92
3.6
4.77
6.15
7.41
8.36
8.9
9.07
8.97
8.64
8.06
7.2
6.02
4.58
2.99
1.37
-0.19
-1.67
-3.16
-4.71
-6.35
-8.0
-9.5
-10.66
-11.37
-11.68
-11.81
-12.09
-12.87
-14.34
-16.45
-18.88
-21.11
-22.55
-22.66
-21.13
-17.91
-13.28
-7.78
-2.08
3.16
7.42
10.43
12.16
12.81
12.65
11.95
10.92
9.7
8.38
7.04
5.83
4.94
4.54
4.69
5.33
6.26
7.24
8.05
8.56
8.74
8.58
8.09
7.26
6.06
4.53
2.73
0.78
-1.17
-3.01
-4.64
-6.01
-7.15
-8.11
-9.02
-9.98
-11.04
-12.22
-13.44
-14.6
-15.59
-16.34
-16.84
-17.19
-17.66
-18.53
-20.05
-22.21
-24.71
-26.94
-28.17
-27.8
-25.51
-21.43
-15.95
-9.67
-3.21
2.89
8.16
12.27
15.01
16.39
16.53
15.69
14.15
12.2
10.14
8.27
6.92
6.33
6.59
7.6
9.1
10.73
12.23
13.43
14.29
14.82
15.06
15.0
14.61
13.81
12.57
10.88
8.83
6.56
4.25
2.1
0.25
-1.23
-2.36
-3.19
-3.77
-4.21
-4.61
-5.08
-5.76
-6.68
-7.8
-9.03
-10.22
-11.3
-12.28
-13.28
-14.47
-16.05
-18.16
-20.82
-23.8
-26.6
-28.49
-28.67
-26.56
-22.02
-15.47
-7.77
0.01
6.95
12.49
16.46
19.01
20.37
20.72
20.16
18.8
16.83
14.61
12.61
11.25
10.75
11.06
11.92
12.98
14.02
14.95
15.78
16.53
17.11
17.34
17.08
16.24
14.92
13.25
11.35
9.27
7.03
4.68
2.35
0.22
-1.55
-2.89
-3.89
-4.7
-5.48
-6.31
-7.2
-8.09
-8.93
-9.74
-10.59
-11.63
-13.01
-14.84
-17.1
-19.56
-21.82
-23.34
-23.62
-22.32
-19.33
-14.85
-9.28
-3.2
2.84
8.33
12.89
16.26
18.27
18.86
18.09
16.16
13.39
10.29
7.38
5.14
3.95
3.96
5.11
7.16
9.73
12.4
14.8
16.68
17.98
18.73
18.99
18.77
17.94
16.38
14.0
10.86
7.2
3.34
-0.4
-3.83
-6.88
-9.51
-11.7
-13.42
-14.64
-15.46
-16.07
-16.79
-17.92
-19.66
-21.97
-24.5
-26.65
-27.68
-26.99
-24.28
-19.64
-13.6
