0
14.04
16.44
17.62
18.04
17.93
17.46
16.91
16.68
17.22
18.8
21.36
24.5
27.54
29.87
31.12
31.32
30.82
30.01
29.19
28.37
27.31
25.73
23.51
20.71
17.68
14.83
12.45
10.62
9.04
7.25
4.76
1.38
-2.81
-7.38
-11.76
-15.51
-18.46
-20.82
-22.98
-25.55
-29.1
-34.07
-40.57
-48.14
-55.73
-61.78
-64.62
-62.96
-56.41
-45.69
-32.47
-18.85
-6.68
2.88
9.64
14.1
17.08
19.3
21.11
22.56
23.62
24.36
25.03
25.96
27.36
29.21
31.15
32.71
33.49
33.36
32.54
31.44
30.58
30.17
30.11
29.99
29.22
27.34
24.24
20.27
16.02
12.21
9.28
7.28
5.9
4.58
2.78
0.16
-3.31
-7.4
-11.76
-15.96
-19.7
-22.79
-25.28
-27.4
-29.6
-32.5
-36.68
-42.41
-49.39
-56.51
-62.1
-64.34
-61.9
-54.45
-42.89
-29.11
-15.34
-3.44
5.52
11.44
14.92
16.82
17.95
18.83
19.73
20.81
22.19
23.99
26.34
29.18
32.3
35.28
37.62
38.92
39.03
38.1
36.58
34.95
33.51
32.23
30.8
28.87
26.23
22.93
19.26
15.56
12.08
8.93
6.11
3.57
1.26
-1.0
-3.37
-6.09
-9.25
-12.76
-16.4
-19.9
-23.09
-25.95
-28.61
-31.27
-34.2
-37.73
-42.15
-47.48
-53.26
-58.37
-61.25
-60.44
-55.13
-45.56
-33.06
-19.58
-7.03
3.23
10.71
15.61
18.55
20.2
21.0
21.21
21.04
20.76
20.8
21.58
23.29
25.74
28.45
30.81
32.37
33.01
32.91
32.37
31.56
30.48
28.98
26.88
24.08
20.62
16.75
12.83
9.32
6.57
4.64
3.27
1.92
0.04
-2.63
-5.96
-9.46
-12.61
-15.02
-16.72
-17.99
-19.31
-21.18
-24.05
-28.24
-33.79
-40.25
-46.61
-51.36
-52.98
-50.36
-43.38
-32.98
-20.84
-8.95
1.11
8.52
13.28
15.9
17.04
17.25
16.82
16.01
15.2
14.89
15.58
17.53
20.54
24.02
27.19
29.43
30.48
30.53
30.0
29.28
28.52
27.55
26.08
23.73
20.42
16.34
11.97
7.91
4.7
2.55
1.25
0.28
-1.04
-3.25
-6.52
-10.6
-14.91
-18.75
-21.66
-23.55
-24.79
-26.06
-28.2
-31.9
-37.46
-44.61
-52.41
-59.33
-63.65
-63.95
-59.58
-50.99
-39.56
-27.19
-15.67
-6.2
0.78
5.59
8.83
11.14
12.99
14.63
16.21
17.84
19.71
21.96
24.69
27.83
31.05
33.86
35.74
36.41
35.91
34.63
33.14
31.88
30.98
30.27
29.31
27.69
25.18
21.9
18.25
14.73
11.7
9.28
7.22
5.08
2.44
-0.9
-4.87
-9.16
-13.37
-17.21
-20.59
-23.57
-26.38
-29.31
-32.74
-37.03
-42.49
-49.18
-56.73
-64.18
-70.03
-72.6
-70.63
-63.71
-52.64
-39.16
-25.44
-13.31
-3.82
2.94
7.58
10.94
13.67
16.18
18.56
20.85
23.09
25.42
27.92
30.66
33.5
36.2
38.39
39.71
39.97
39.19
37.65
35.74
33.78
31.93
30.14
28.23
26.03
23.52
20.82
18.22
15.94
14.14
12.81
11.85
11.01
10.01
8.58
6.41
3.35
-0.6
-5.3
-10.42
-15.59
-20.5
-24.95
-28.95
-32.72
-36.68
-41.3
-46.99
-53.78
-61.11
-67.72
-71.88
-71.89
-66.72
-56.49
-42.56
-27.12
-12.41
-0.1
9.13
15.52
19.78
22.71
24.85
26.46
27.7
28.73
29.78
30.99
32.41
33.93
35.31
36.37
36.98
37.13
36.86
36.23
35.28
33.99
32.39
30.49
28.36
26.13
23.85
21.66
19.57
17.65
15.95
14.5
13.3
12.27
11.26
10.01
8.29
5.88
2.76
-1.0
-5.18
-9.58
-13.93
-18.1
-22.0
-25.72
-29.44
-33.5
-38.25
-43.98
-50.64
-57.68
-63.97
-67.97
-68.1
-63.41
-53.99
-41.09
-26.78
-13.25
-2.14
5.84
10.9
13.77
15.26
15.92
16.02
15.75
15.34
15.14
15.56
16.83
18.99
21.73
24.56
26.96
28.56
29.22
29.04
28.36
27.48
26.62
25.81
24.88
23.6
21.87
19.8
17.68
15.88
14.62
13.89
13.36
12.55
10.99
8.43
4.9
0.71
-3.7
-7.97
-11.87
-15.37
-18.66
-21.95
-25.57
-29.85
-35.04
-41.13
-47.7
-53.72
-57.74
-58.26
-54.23
-45.55
-33.22
-19.06
-5.17
6.65
15.39
20.85
23.44
23.85
22.76
20.73
18.3
16.01
14.47
14.23
15.57
18.34
22.06
25.95
29.28
31.56
32.68
32.82
32.27
31.29
29.99
28.32
26.14
23.37
20.03
16.31
12.54
9.05
6.12
3.78
1.87
-0.02
-2.3
-5.28
-8.94
-12.99
-16.91
-20.24
-22.79
-24.76
-26.76
-29.51
-33.67
-39.55
-47.02
-55.33
-63.25
-69.25
-71.78
-69.74
-62.87
-51.93
-38.56
-24.81
-12.48
-2.68
4.29
8.82
11.57
13.15
13.98
14.35
14.49
14.76
15.53
17.15
19.76
23.15
26.77
29.93
32.04
32.88
32.68
31.95
31.21
30.72
30.36
29.75
28.51
26.42
23.53
20.18
16.76
13.65
11.1
9.11
7.46
5.73
3.44
0.26
-3.83
-8.45
-13.1
-17.28
-20.81
-23.86
-26.88
-30.39
-34.84
-40.51
-47.39
-55.05
-62.56
-68.47
-71.16
-69.25
-62.27
-50.92
-36.98
-22.8
-10.43
-1.1
5.04
8.69
10.88
12.49
13.97
15.45
16.91
18.35
19.91
21.82
24.21
27.06
30.2
33.33
36.14
38.38
39.94
40.8
41.09
40.96
40.52
39.73
38.51
36.7
34.22
31.14
27.66
24.1
20.72
17.68
14.98
12.45
9.88
6.98
3.56
-0.42
-4.8
-9.32
-13.66
-17.6
-21.15
-24.56
-28.18
-32.48
-37.89
-44.7
-52.86
-61.78
-70.19
-76.3
-78.25
-74.76
-65.68
-52.13
-36.23
-20.37
-6.55
4.14
11.58
16.33
19.27
21.18
22.67
24.02
25.35
26.74
28.18
29.75
31.46
33.25
35.03
36.65
38.01
39.12
40.0
40.7
41.21
41.42
41.16
40.3
38.81
36.78
34.38
31.78
29.05
26.24
23.31
20.31
17.34
14.51
11.82
9.13
6.17
2.68
-1.41
-5.98
-10.7
-15.22
-19.35
-23.18
-26.97
-31.04
-35.74
-41.29
-47.79
-55.06
-62.48
-68.88
-72.72
-72.47
-67.26
-57.31
-43.95
-29.35
-15.66
-4.39
3.92
9.62
13.41
15.91
17.45
18.16
18.23
18.19
18.74
20.55
23.86
28.38
33.3
37.63
40.63
42.03
42.01
41.09
39.83
38.53
37.24
35.71
33.62
30.77
27.26
23.41
19.75
16.71
14.42
12.65
10.9
8.61
5.51
1.68
-2.41
-6.15
-9.1
-11.14
-12.6
-14.08
-16.27
-19.7
-24.66
-31.06
-38.44
-45.89
-52.1
-55.53
-54.89
-49.57
-40.03
-27.78
-14.88
-3.29
5.81
12.12
16.08
18.28
19.19
19.04
17.96
16.33
14.8
14.13
14.94
17.33
20.92
24.96
28.69
31.53
33.34
34.27
34.64
34.7
34.44
33.55
31.64
28.47
24.19
19.36
14.78
11.1
8.52
6.66
4.78
2.11
-1.76
-6.68
-12.06
-17.19
-21.49
-24.85
-27.52
-30.06
-33.06
-37.07
-42.45
-49.28
-57.14
-65.05
-71.44
-74.44
-72.59
-65.34
-53.48
-38.91
-24.07
-11.05
-1.06
5.8
10.19
13.04
15.12
16.83
18.34
19.76
21.29
23.28
26.02
29.66
33.99
38.49
42.52
45.46
47.03
47.3
46.63
45.43
43.97
42.22
39.95
36.91
32.94
28.23
23.22
18.48
14.52
11.59
9.57
8.03
6.34
3.97
0.7
-3.4
-7.91
-12.36
-16.39
-19.95
-23.23
-26.67
-30.74
-35.91
-42.51
-50.6
-59.78
-69.05
-76.91
-81.56
-81.48
-75.98
-65.52
-51.71
-36.7
-22.62
-10.89
-1.98
4.43
9.08
12.74
15.91
18.81
21.5
24.02
26.5
29.09
31.87
34.76
37.49
39.72
41.23
42.01
42.24
42.18
41.97
41.58
40.77
39.41
37.49
35.27
33.1
31.3
29.85
28.59
27.08
25.01
22.2
18.75
14.99
11.25
7.81
4.69
1.69
-1.56
-5.35
-9.79
-14.7
-19.66
-24.32
-28.44
-32.12
-35.78
-40.03
-45.49
-52.45
-60.7
-69.24
-76.42
-80.3
-79.26
-72.67
-61.23
-46.78
-31.62
-17.8
-6.43
2.31
8.91
14.06
18.36
22.12
25.55
28.79
31.91
34.94
37.75
40.19
42.07
43.43
44.37
45.07
45.65
46.01
45.93
45.17
43.61
41.27
38.37
35.17
31.88
28.63
25.45
22.42
19.52
16.79
14.19
11.72
9.37
7.11
4.97
2.89
0.71
-1.76
-4.66
-7.99
-11.57
-15.14
-18.49
-21.58
-24.57
-27.75
-31.47
-36.05
-41.7
-48.37
-55.61
-62.48
-67.59
-69.43
-66.81
-59.42
-48.01
-34.29
-20.45
-8.41
0.69
6.65
10.12
12.04
13.26
14.29
15.32
16.44
17.77
19.58
22.18
25.66
29.78
33.98
37.58
40.03
41.1
40.98
40.09
38.83
37.45
35.93
34.02
31.51
28.33
24.71
20.96
17.43
14.35
11.72
9.38
7.08
4.61
1.82
-1.33
-4.8
-8.37
-11.84
-14.97
-17.65
-20.01
-22.36
-25.16
-28.86
-33.78
-39.98
-47.1
-54.36
-60.45
-63.87
-63.24
-57.87
-48.09
-35.24
-21.3
-8.32
2.24
9.78
14.54
17.24
18.7
19.52
20.06
20.47
20.94
21.71
23.09
25.26
28.16
31.45
34.6
37.09
38.59
39.09
38.77
37.87
36.57
34.96
33.04
30.89
28.59
26.26
23.98
21.74
19.43
16.94
14.21
11.26
8.23
5.29
2.56
0.02
-2.49
-5.17
-8.17
-11.51
-15.01
-18.43
-21.6
-24.48
-27.32
-30.48
-34.4
-39.44
-45.78
-53.24
-61.11
-68.13
-72.65
-73.09
-68.55
-59.23
-46.5
-32.52
-19.52
-9.13
-1.97
2.28
4.53
5.79
6.81
7.98
9.41
11.11
13.13
15.54
18.39
21.6
24.91
27.95
30.4
32.13
33.25
33.99
34.56
35.02
35.24
35.03
34.24
32.83
30.88
28.61
26.19
23.8
21.49
19.3
17.21
15.2
13.23
11.21
8.96
6.26
2.89
-1.26
-6.1
-11.37
-16.67
-21.59
-25.91
-29.63
-33.0
-36.43
-40.5
-45.74
-52.37
-60.05
-67.67
-73.49
-75.55
-72.45
-63.88
-50.92
-35.7
-20.67
-7.87
1.68
7.94
11.63
13.73
15.02
15.96
16.76
17.55
18.5
19.87
21.88
24.6
27.86
31.27
34.36
36.82
38.5
39.42
39.66
39.24
38.13
36.3
33.81
30.88
27.84
24.97
22.41
20.17
18.15
16.25
14.44
12.74
11.13
9.51
7.65
5.28
2.21
-1.59
-5.98
-10.68
-15.34
-19.72
-23.62
-27.07
-30.22
-33.42
-37.13
-41.81
-47.7
-54.55
-61.41
-66.79
-69.01
-66.81
-59.87
-49.0
-35.93
-22.71
-11.13
-2.21
3.9
7.67
9.82
11.0
11.65
12.02
12.39
13.0
14.15
16.01
18.59
21.64
24.79
27.58
29.69
30.97
31.55
31.67
31.58
31.41
31.02
30.19
28.61
26.19
23.08
19.62
16.2
13.14
10.61
8.6
6.93
5.35
3.55
1.32
-1.45
-4.64
-8.0
-11.21
-14.07
-16.52
-18.72
-20.88
-23.26
-26.17
-29.9
-34.72
-40.62
-47.1
-52.98
-56.63
-56.54
-51.85
-42.89
-30.98
-18.13
-6.21
3.51
10.63
15.37
18.17
19.45
19.45
18.41
16.76
15.15
14.27
14.68
16.47
19.3
22.45
25.2
27.04
27.83
27.78
27.23
26.52
25.77
24.87
23.55
21.54
18.79
15.48
12.06
9.04
6.83
5.43
4.51
3.46
1.69
-1.11
-4.87
-9.21
-13.66
-17.8
-21.47
-24.81
-28.07
-31.67
-36.0
-41.34
-47.73
-54.8
-61.56
-66.62
-68.39
-65.62
-57.95
-46.13
-31.9
-17.43
-4.67
5.23
12.06
16.31
18.72
19.88
20.18
19.78
18.93
18.0
17.47
17.76
19.06
21.26
23.93
26.56
28.62
29.82
30.11
29.69
28.84
27.82
26.7
25.37
23.64
21.35
18.51
15.35
12.24
9.58
7.6
6.32
5.5
4.74
3.58
1.7
-1.06
-4.59
-8.64
-12.81
-16.78
-20.32
-23.52
-26.71
-30.49
-35.46
-42.03
-50.07
-58.77
-66.68
-72.01
-73.19
-69.33
-60.6
-48.22
-34.13
-20.4
-8.7
0.11
6.02
9.61
11.73
13.04
13.98
14.72
15.4
16.25
17.65
19.9
23.13
27.11
31.28
34.99
37.73
39.32
39.92
39.91
39.63
39.24
38.65
37.55
35.67
32.92
29.54
25.93
22.56
19.69
17.3
15.1
12.69
9.75
6.18
2.09
-2.22
-6.44
-10.28
-13.65
-16.62
-19.44
-22.47
-26.18
-30.99
-37.24
-44.86
-53.24
-61.14
-66.88
-68.76
-65.73
-57.76
-45.98
-32.29
-18.76
-7.06
1.97
8.3
12.38
14.87
16.35
17.27
17.92
18.59
19.52
20.89
22.77
25.02
27.28
29.12
30.16
30.21
29.46
28.31
27.25
26.57
26.22
25.81
24.81
22.85
19.95
16.56
13.34
10.89
9.45
8.77
8.3
7.4
5.65
3.0
-0.25
-3.65
-6.85
-9.71
-12.36
-15.07
-18.14
-21.89
-26.54
-32.28
-39.02
-46.24
-52.85
-57.32
-58.12
-54.25
-45.78
-33.91
-20.61
-8.0
2.38
9.85
14.53
17.09
18.24
18.46
18.07
17.36
16.75
16.74
17.83
20.18
23.49
27.08
30.15
32.1
32.74
32.36
31.41
30.32
29.24
28.04
26.42
24.1
21.03
17.44
13.75
10.37
7.5
5.01
2.58
-0.2
-3.54
-7.32
-11.16
-14.61
-17.41
-19.58
-21.51
-23.82
-27.21
-32.22
-38.94
-46.88
-54.79
-60.95
-63.59
-61.48
-54.44
-43.42
-30.23
-16.91
-5.16
4.11
10.76
15.2
17.97
19.45
19.87
19.44
18.56
17.89
18.14
19.74
22.58
26.01
29.15
31.27
32.16
32.11
31.69
31.36
31.2
30.92
30.12
28.47
25.97
22.87
19.59
16.51
13.87
11.69
9.79
7.82
5.4
2.23
-1.76
-6.36
-11.14
-15.56
-19.3
-22.34
-25.09
-28.22
-32.46
-38.35
-45.89
-54.45
-62.74
-69.09
-71.82
-69.78
-62.81
-51.81
-38.55
-25.13
-13.29
-3.97
2.79
7.66
11.44
14.75
17.84
20.7
23.26
25.59
27.86
30.23
32.78
35.38
37.75
39.57
40.61
40.86
40.52
39.89
39.25
38.61
37.76
36.26
33.72
30.01
25.41
20.52
16.05
12.55
10.22
8.84
7.91
6.82
4.97
2.07
-1.92
-6.62
-11.5
-16.03
-19.97
-23.42
-26.79
-30.6
-35.33
-41.24
-48.2
-55.64
-62.49
-67.24
-68.36
-64.73
-56.21
-43.77
-29.36
-15.2
-3.15
5.85
11.8
15.42
17.65
19.27
20.71
22.07
23.36
24.59
25.88
27.46
29.52
32.07
34.88
37.48
39.37
40.27
40.17
39.47
38.65
38.05
37.68
37.21
36.18
34.28
31.54
28.35
25.17
22.37
20.0
17.82
15.43
12.54
8.99
4.87
0.35
-4.36
-9.03
-13.47
-17.49
-21.03
-24.27
-27.5
-31.22
-35.97
-42.06
-49.42
-57.35
-64.57
-69.43
-70.33
-66.35
-57.57
-45.23
-31.33
-17.98
-6.72
1.85
7.88
12.0
14.78
16.58
17.55
17.89
17.98
18.34
19.49
21.67
24.73
28.19
31.36
33.73
35.06
35.49
35.37
35.06
34.69
34.09
32.91
30.87
27.89
24.34
20.81
17.89
15.83
14.41
13.02
11.02
7.98
3.96
-0.55
-4.93
-8.63
-11.52
-13.84
-16.09
-18.87
-22.69
-27.89
-34.52
-42.23
-50.2
-57.17
-61.58
-62.05
-57.85
-49.22
-37.38
-24.16
-11.44
-0.64
7.56
13.12
16.45
18.09
18.59
18.42
18.01
17.76
18.07
19.2
21.24
23.97
26.92
29.55
31.44
32.47
32.84
32.99
33.3
33.91
34.6
34.86
34.22
32.37
29.34
25.53
21.48
17.68
14.29
11.19
8.0
4.28
-0.16
-5.18
-10.35
-15.17
-19.26
-22.57
-25.39
-28.2
-31.55
-35.88
-41.5
-48.44
-56.33
-64.27
-70.84
-74.41
-73.57
-67.72
-57.34
-43.95
-29.62
-16.28
-5.18
3.37
9.74
14.68
18.8
22.39
25.47
27.97
29.97
31.78
33.79
36.19
38.92
41.53
43.44
44.18
43.67
42.19
40.27
38.41
36.89
35.63
34.3
32.51
29.97
26.7
22.97
19.21
15.82
13.06
10.88
8.97
6.95
4.45
1.36
-2.28
-6.21
-10.17
-13.99
-17.62
-21.2
-24.95
-29.13
-34.08
-40.12
-47.4
-55.75
-64.4
-71.94
-76.59
-76.72
-71.46
-61.12
-47.18
-31.83
-17.13
-4.6
5.2
12.43
17.7
21.59
24.51
26.71
28.38
29.73
31.02
32.5
34.35
36.6
39.01
41.23
42.84
43.58
43.39
42.53
41.29
39.95
38.56
36.96
34.92
32.23
28.89
25.05
20.99
17.05
13.51
10.5
7.95
5.57
3.01
-0.13
-4.0
-8.45
-13.06
-17.34
-20.95
-23.85
-26.36
-28.99
-32.28
-36.73
-42.58
-49.77
-57.77
-65.46
-71.33
-73.74
-71.48
-64.17
-52.56
-38.32
-23.55
-10.18
0.53
8.22
13.24
16.26
17.85
18.43
18.29
17.71
17.21
17.39
18.8
21.59
25.46
29.71
33.51
36.27
37.77
38.21
37.94
37.26
36.28
34.82
32.63
29.54
25.66
21.36
17.2
13.62
10.75
8.36
5.96
3.15
-0.25
-4.07
-7.95
-11.49
-14.49
-16.98
-19.27
-21.84
-25.24
-29.96
-36.25
-43.87
-51.98
-59.07
-63.41
-63.5
-58.64
-49.3
-36.88
-23.41
-10.78
-0.28
7.55
12.86
16.07
17.65
17.96
17.37
16.33
15.5
15.49
16.71
19.21
22.65
26.44
29.95
32.76
34.65
35.73
36.21
36.3
36.1
35.49
34.25
32.12
29.0
25.01
20.5
15.98
11.91
8.52
5.77
3.36
0.84
-2.17
-5.87
-10.2
-14.85
-19.43
-23.62
-27.36
-30.89
-34.62
-39.11
-44.74
-51.64
-59.38
-67.03
-73.04
-75.75
-73.83
-66.84
-55.48
-41.51
-27.12
-14.2
-3.89
3.61
8.72
12.11
14.29
15.61
16.32
16.7
17.15
18.11
19.85
22.45
25.67
29.04
32.03
34.2
35.34
35.55
35.15
34.54
33.94
33.37
32.61
31.39
29.57
27.2
24.56
22.0
19.74
17.83
16.13
14.32
12.05
9.05
5.19
0.56
-4.57
-9.82
-14.85
-19.48
-23.81
-28.19
-33.04
-38.79
-45.66
-53.44
-61.47
-68.49
-72.88
-73.1
-68.24
-58.45
-45.09
-30.3
-16.31
-4.67
4.03
10.15
14.42
17.58
19.97
21.69
22.79
23.52
24.26
25.36
27.02
29.14
31.4
33.44
35.01
36.03
36.57
36.78
36.73
36.43
35.72
34.41
32.26
29.18
25.34
21.2
17.36
14.38
12.52
11.59
11.02
10.08
8.19
5.09
0.91
-3.94
-8.9
-13.51
-17.54
-21.04
-24.31
-27.87
-32.31
-38.1
-45.42
-53.94
-62.69
-70.11
-74.38
-73.93
-68.13
-57.45
-43.55
-28.65
-14.86
-3.61
4.59
9.97
13.13
14.69
15.13
14.87
14.35
14.11
14.74
16.64
19.85
24.01
28.47
32.5
35.56
37.51
38.51
38.89
38.85
38.26
36.74
33.92
29.64
24.25
18.46
13.06
8.61
5.27
2.75
0.56
-1.77
-4.42
-7.28
-10.09
-12.51
-14.44
-16.06
-17.8
-20.25
-23.96
-29.26
-36.07
-43.86
-51.54
-57.62
-60.53
-59.05
-52.75
-42.3
-29.25
-15.64
-3.36
6.38
13.21
17.39
19.55
20.29
20.05
19.2
18.15
17.28
17.05
17.78
19.58
22.28
25.48
28.63
31.29
33.16
34.25
34.72
34.74
34.3
33.27
31.4
28.56
24.88
20.69
16.46
12.64
9.47
6.93
4.78
2.62
0.02
-3.27
-7.29
-11.75
-16.17
-20.03
-23.1
-25.5
-27.69
-30.29
-33.94
-39.08
-45.93
-54.3
-63.42
-71.94
-78.02
-79.82
-76.1
-66.79
-53.08
-37.11
-21.25
-7.42
3.33
10.9
15.76
18.67
20.33
21.28
21.97
22.72
23.79
25.31
27.36
29.86
32.63
35.36
37.72
39.43
40.4
40.72
40.68
40.56
40.48
40.3
39.66
38.17
35.61
32.1
28.05
24.03
20.45
17.49
14.92
12.28
8.99
4.64
-0.84
-7.15
-13.7
-19.83
-25.08
-29.34
-32.87
-36.17
-39.78
-44.14
-49.51
-55.79
-62.43
-68.37
-72.13
-72.13
-67.25
-57.36
-43.56
-27.88
-12.67
0.17
9.76
16.22
20.36
23.07
24.94
26.19
26.82
27.01
27.19
27.98
29.84
32.82
36.5
40.08
42.75
44.03
43.86
42.59
40.74
38.79
36.94
35.15
33.18
30.75
27.68
23.99
19.98
15.97
12.31
9.14
6.38
3.79
1.12
-1.86
-5.16
-8.71
-12.29
-15.62
-18.52
-20.91
-22.98
-25.11
-27.81
-31.57
-36.76
-43.32
-50.77
-58.04
-63.69
-66.15
-64.21
-57.45
-46.47
-32.84
-18.62
-5.73
4.57
11.89
16.53
19.18
20.46
20.83
20.59
20.04
19.61
19.77
20.93
23.25
26.51
30.15
33.56
36.23
37.95
38.78
38.92
38.49
37.41
35.49
32.51
28.55
23.99
19.42
15.48
12.42
10.09
7.98
5.46
2.12
-2.05
-6.67
-11.16
-15.01
-17.97
-20.19
-22.14
-24.39
-27.53
-31.96
-37.8
-44.8
-52.18
-58.66
-62.65
-62.68
-57.84
-48.32
-35.31
-20.79
-6.84
4.88
13.54
19.12
22.07
23.09
22.75
21.61
20.23
19.25
19.29
20.82
23.84
27.9
32.23
35.93
38.41
39.45
39.3
38.45
37.32
36.07
34.59
32.58
29.77
26.12
21.88
17.46
13.38
9.97
7.27
4.97
2.6
-0.31
-3.99
-8.36
-13.06
-17.67
-21.96
-25.93
-29.89
-34.26
-39.45
-45.66
-52.83
-60.56
-68.0
-73.94
-76.91
-75.69
-69.64
-59.13
-45.47
-30.6
-16.55
-4.78
4.05
10.04
13.83
16.2
17.75
18.82
19.61
20.26
21.01
22.13
23.84
26.12
28.73
31.26
33.34
34.82
35.77
36.44
36.95
37.26
37.12
36.12
34.01
30.75
26.66
22.25
18.13
14.77
12.23
10.21
8.14
5.38
1.65
-2.94
-7.92
-12.68
-16.8
-20.22
-23.22
-26.37
-30.22
-35.27
-41.72
-49.45
-57.71
-65.27
-70.46
-71.64
-67.81
-58.96
-46.31
-31.84
-17.74
-5.75
3.29
9.48
13.52
16.31
18.54
20.54
22.4
24.12
25.79
27.68
29.92
32.59
35.42
37.98
39.83
40.73
40.77
40.26
39.54
38.78
37.86
36.39
34.01
30.59
26.3
21.6
17.02
12.97
9.56
6.63
3.85
0.85
-2.58
-6.47
-10.65
-14.8
-18.7
-22.26
-25.62
-29.1
-33.13
-38.08
-44.11
-51.03
-58.17
-64.27
-67.8
-67.28
-61.87
-51.78
-38.31
-23.52
-9.54
2.09
10.76
16.69
20.55
22.99
24.44
25.06
25.05
24.72
24.51
24.85
25.87
27.39
28.95
30.08
30.55
30.44
30.02
29.58
29.23
28.79
28.0
26.6
24.49
21.85
19.0
16.29
13.97
12.06
10.35
8.46
5.99
2.69
-1.38
-5.8
-10.01
-13.55
-16.26
-18.37
-20.43
-23.11
-26.98
-32.38
-39.24
-46.92
-54.24
-59.57
-61.3
-58.35
-50.62
-39.16
-25.88
-12.94
-2.03
5.95
10.98
13.6
14.57
14.5
13.88
13.06
12.39
12.22
12.89
14.56
17.15
20.33
23.58
26.4
28.4
29.46
29.66
29.16
28.17
26.84
25.27
23.56
21.77
19.88
17.76
15.27
12.32
8.9
5.2
1.46
-2.12
-5.44
-8.56
-11.64
-14.99
-18.93
-23.84
-30.01
-37.51
-45.9
-54.11
-60.51
-63.36
-61.37
-54.2
-42.77
-28.99
-15.08
-2.93
6.45
12.96
17.17
19.76
21.27
21.99
22.15
22.06
22.16
22.88
24.4
26.56
28.93
30.94
32.23
32.65
32.37
31.65
30.8
29.94
28.97
27.64
25.7
23.03
19.83
16.54
13.7
11.68
10.47
9.63
8.49
6.42
3.11
-1.33
-6.43
-11.64
-16.54
-21.04
-25.36
-29.94
-35.29
-41.77
-49.48
-58.07
-66.62
-73.78
-77.92
-77.67
-72.35
-62.29
-48.84
-34.0
-19.79
-7.69
1.67
8.54
13.6
17.62
21.06
24.06
26.52
28.35
29.68
30.89
32.4
34.45
36.91
39.28
40.97
41.57
41.06
39.82
38.38
37.11
36.06
34.99
33.52
31.43
28.76
25.79
22.84
20.2
17.96
16.03
14.19
12.09
9.43
5.99
1.75
-3.07
-8.04
-12.71
-16.76
-20.14
-23.09
-26.04
-29.57
-34.24
-40.45
-48.23
-56.98
-65.38
-71.53
-73.47
-69.89
-60.73
-47.33
-32.1
-17.56
-5.65
2.93
8.6
12.44
15.54
18.59
21.74
24.79
27.51
29.84
31.86
33.73
35.51
37.08
38.23
38.82
38.9
38.68
38.49
38.49
38.65
38.67
38.16
36.85
34.68
31.81
28.54
25.19
21.94
18.95
16.27
13.88
11.68
9.48
6.93
3.73
-0.27
-5.02
-10.21
-15.39
-20.17
-24.29
-27.72
-30.7
-33.57
-36.81
-40.85
-46.02
-52.3
-59.11
-65.31
-69.26
-69.45
-64.89
-55.66
-42.9
-28.57
-14.74
-3.09
5.58
11.33
14.87
17.07
18.6
19.84
20.9
21.87
22.85
24.09
25.81
28.03
30.51
32.83
34.49
35.21
34.95
33.95
32.54
31.06
29.62
28.11
26.32
23.99
21.0
17.46
13.65
9.94
6.71
4.12
2.18
0.73
-0.52
-1.89
-3.68
-6.09
-9.1
-12.51
-15.99
-19.16
-21.85
-24.14
-26.33
-28.84
-32.07
-36.33
-41.63
-47.54
-53.06
-56.76
-57.12
-53.07
-44.56
-32.67
-19.31
-6.53
4.12
11.94
17.06
20.0
21.29
21.29
20.25
18.48
16.52
15.02
14.57
15.46
17.56
20.41
23.39
25.99
27.91
29.11
29.71
29.84
29.62
29.13
28.42
27.48
26.32
24.85
22.95
20.57
17.78
14.8
11.89
9.27
6.99
4.88
2.69
0.13
-2.98
-6.7
-10.89
-15.27
-19.52
-23.37
-26.71
-29.66
-32.58
-35.94
-40.28
-45.92
-52.83
-60.47
-67.64
-72.73
-74.09
-70.61
-62.23
-50.05
-36.05
-22.46
-10.97
-2.39
3.42
7.19
9.79
11.83
13.6
15.23
16.82
18.56
20.67
23.31
26.41
29.7
32.73
35.05
36.37
36.71
36.31
35.51
34.6
33.65
32.54
31.1
29.19
26.79
23.99
20.92
17.71
14.46
11.24
8.12
5.19
2.43
-0.23
-2.97
-6.0
-9.41
-13.22
-17.25
-21.28
-25.09
-28.56
-31.7
-34.63
-37.6
-40.98
-45.12
-50.18
-55.95
-61.72
-66.19
-67.83
-65.25
-57.84
-46.07
-31.46
-16.18
-2.36
8.5
15.85
20.05
21.99
22.64
22.74
22.71
22.75
23.03
23.75
25.14
27.26
29.98
32.93
35.69
37.92
39.49
40.47
40.93
40.87
40.16
38.64
36.26
33.19
29.86
26.65
23.92
21.66
19.72
17.77
15.56
13.03
10.27
7.49
4.82
2.27
-0.4
-3.46
-7.14
-11.38
-15.88
-20.17
-23.87
-26.93
-29.62
-32.52
-36.23
-41.23
-47.65
-55.18
-62.97
-69.73
-73.91
-74.07
-69.42
-60.14
-47.45
-33.27
-19.68
-8.2
0.5
6.55
10.58
13.3
15.2
16.51
17.37
17.96
18.64
19.76
21.59
24.18
27.18
30.17
32.66
34.35
35.17
35.22
34.73
33.86
32.7
31.2
29.21
26.59
23.34
19.65
15.84
12.3
9.31
6.91
4.91
2.99
0.84
-1.68
-4.54
-7.54
-10.45
-13.02
-15.07
-16.62
-17.82
-19.1
-21.02
-24.17
-29.01
-35.56
-43.27
-50.98
-57.12
-60.04
-58.51
-52.18
-41.74
-28.77
-15.27
-2.98
7.0
14.37
19.34
22.37
23.84
24.09
23.49
22.58
22.01
22.33
23.78
26.18
29.04
31.74
33.75
34.81
34.87
34.08
32.67
30.81
28.58
25.93
22.68
18.76
14.23
9.42
4.86
1.06
-1.6
-3.12
-3.86
-4.37
-5.28
-6.97
-9.55
-12.78
-16.25
-19.54
-22.42
-24.87
-27.1
-29.43
-32.25
-35.98
-40.87
-46.85
-53.21
-58.66
-61.49
-60.17
-54.02
-43.59
-30.51
-16.93
-4.81
4.73
11.44
15.74
18.27
19.49
19.67
19.03
17.89
16.81
16.42
17.25
19.43
22.63
26.18
29.36
31.66
32.96
33.5
33.66
33.77
33.91
33.9
33.45
32.28
30.27
27.43
23.99
20.3
16.7
13.5
10.84
8.58
6.41
3.91
0.7
-3.27
-7.82
-12.52
-16.97
-20.95
-24.45
-27.77
-31.34
-35.61
-40.99
-47.65
-55.37
-63.31
-70.07
-73.94
-73.42
-67.77
-57.45
-43.94
-29.37
-15.76
-4.52
3.83
9.46
13.05
15.25
16.63
17.59
18.35
19.12
20.17
21.68
23.81
26.52
29.58
32.65
35.34
37.35
38.51
38.87
38.57
37.74
36.47
34.76
32.63
30.09
27.29
24.48
21.9
19.72
17.93
16.36
14.72
12.78
10.38
7.51
4.26
0.74
-2.97
-6.81
-10.66
-14.42
-18.01
-21.41
-24.78
-28.4
-32.65
-37.88
-44.22
-51.34
-58.38
-63.86
-66.11
-63.77
-56.36
-44.63
-30.36
-15.82
-3.08
6.65
13.15
16.89
18.74
19.45
19.62
19.56
19.52
19.73
20.38
21.66
23.68
26.34
29.42
32.54
35.29
37.36
38.64
39.23
39.35
39.14
38.52
37.27
35.13
32.01
28.08
23.75
19.54
15.82
12.79
10.44
8.56
6.91
5.14
2.95
0.14
-3.32
-7.27
-11.4
-15.37
-18.99
-22.27
-25.46
-28.98
-33.29
-38.74
-45.42
-52.9
-60.17
-65.67
-67.7
-64.94
-57.03
-44.76
-29.94
-14.81
-1.32
9.37
16.93
21.66
24.11
24.76
24.07
22.46
20.56
19.12
18.82
20.05
22.76
26.42
30.24
33.46
35.57
36.39
36.09
35.03
33.61
32.1
30.56
28.85
26.72
23.96
20.65
17.12
13.85
11.23
9.36
7.96
6.47
4.43
1.61
-1.89
-5.7
-9.45
-12.9
-16.08
-19.2
-22.53
-26.4
-31.03
-36.63
-43.25
-50.67
-58.2
-64.63
-68.43
-68.12
-62.84
-52.87
-39.55
-25.01
-11.44
-0.36
7.62
12.79
15.89
17.61
18.44
18.6
18.36
18.07
18.28
19.47
21.85
25.22
29.0
32.49
35.04
36.36
36.52
35.85
34.75
33.46
32.07
30.47
28.49
25.98
22.95
19.51
15.94
12.62
9.84
7.73
6.21
4.9
3.34
1.15
-1.86
-5.57
-9.7
-13.88
-17.78
-21.27
-24.39
-27.38
-30.6
-34.56
-39.73
-46.26
-53.73
-61.0
-66.35
-68.0
-64.72
-56.42
-44.21
-30.14
-16.42
-4.77
3.94
9.78
13.33
15.32
16.29
16.58
16.39
15.96
15.6
15.69
16.51
18.19
20.64
23.52
26.39
28.82
30.58
31.63
32.11
32.27
32.26
32.06
31.52
30.38
28.48
25.91
22.89
19.77
16.86
14.35
12.13
10.03
7.75
5.06
1.86
-1.81
-5.71
-9.59
-13.22
-16.51
-19.54
-22.5
-25.71
-29.46
-34.11
-39.89
-46.79
-54.29
-61.31
-66.26
-67.53
-63.98
-55.57
-43.39
-29.39
-15.77
-4.25
4.34
10.11
13.75
16.06
17.67
18.84
19.7
20.38
21.17
22.42
24.4
27.09
30.15
33.05
35.24
36.36
36.38
35.6
34.47
33.41
32.61
31.91
30.92
29.18
26.49
22.95
18.98
15.16
11.9
9.37
7.42
5.73
3.93
1.76
-0.96
-4.24
-8.02
-12.05
-16.03
-19.63
-22.75
-25.52
-28.37
-31.91
-36.72
-43.03
-50.52
-58.23
-64.67
-68.18
-67.38
-61.74
-51.79
-39.0
-25.31
-12.58
-2.12
5.55
10.53
13.28
14.34
14.21
13.4
12.46
12.06
12.73
14.75
18.01
21.93
25.75
28.82
30.87
32.02
32.62
32.98
33.12
32.84
31.77
29.76
26.88
23.47
19.96
16.71
13.9
11.47
9.16
6.66
3.65
-0.03
-4.27
-8.7
-12.82
-16.26
-18.95
-21.14
-23.41
-26.33
-30.38
-35.75
-42.23
-49.09
-55.06
-58.6
-58.23
-53.17
-43.67
-31.11
-17.51
-4.91
5.24
12.43
16.84
19.08
19.73
19.29
18.11
16.62
15.33
14.75
15.33
17.17
20.03
23.3
26.24
28.3
29.3
29.46
29.28
29.13
29.13
28.97
28.16
26.28
23.29
19.53
15.61
12.12
9.36
7.28
5.49
3.47
0.73
-2.96
-7.48
-12.41
-17.26
-21.58
-25.24
-28.5
-31.89
-36.08
-41.54
-48.38
-56.13
-63.72
-69.69
-72.43
-70.76
-64.29
-53.68
-40.48
-26.63
-13.96
-3.55
4.27
9.84
13.75
16.49
18.4
19.68
20.61
21.56
22.95
25.07
27.93
31.18
34.29
36.75
38.29
38.94
38.96
38.67
38.22
37.54
36.42
34.54
31.76
28.13
23.93
19.55
15.47
11.94
9.01
6.52
4.06
1.21
-2.27
-6.36
-10.73
-14.88
-18.34
-20.95
-22.86
-24.68
-27.13
-31.01
-36.77
-44.36
-52.99
-61.17
-67.01
-68.71
-65.23
-56.63
-44.21
-29.97
-16.13
-4.3
4.77
11.2
15.61
18.65
20.8
22.28
23.24
23.88
24.51
25.47
27.0
29.09
31.48
33.72
35.39
36.25
36.44
36.31
36.31
36.68
37.31
37.76
37.43
35.88
33.02
29.19
24.97
20.95
17.53
14.84
12.66
10.58
8.1
4.87
0.82
-3.78
-8.41
-12.58
