0
-1.87
-2.47
-2.91
-3.24
-3.6
-4.17
-5.01
-6.12
-7.38
-8.68
-9.94
-11.14
-12.19
-12.92
-13.04
-12.27
-10.47
-7.74
-4.44
-1.01
2.08
4.56
6.31
7.36
7.8
7.73
7.3
6.67
6.02
5.51
5.27
5.36
5.75
6.41
7.25
8.14
8.9
9.36
9.45
9.19
8.7
8.12
7.52
6.87
6.08
5.11
3.99
2.85
1.8
0.87
-0.02
-1.02
-2.25
-3.72
-5.29
-6.75
-7.93
-8.79
-9.47
-10.19
-11.1
-12.17
-13.13
-13.59
-13.2
-11.82
-9.6
-6.89
-4.14
-1.67
0.37
1.96
3.14
3.94
4.28
4.14
3.51
2.56
1.53
0.69
0.21
0.14
0.36
0.71
1.03
1.26
1.38
1.43
1.47
1.47
1.38
1.11
0.58
-0.18
-1.05
-1.85
-2.4
-2.63
-2.63
-2.67
-3.04
-3.96
-5.39
-7.16
-8.97
-10.56
-11.77
-12.46
-12.5
-11.71
-9.93
-7.16
-3.66
0.1
3.64
6.63
9.03
11.05
12.87
14.52
15.8
16.41
16.13
14.98
13.19
11.18
9.32
7.83
6.79
6.14
5.81
5.67
5.58
5.42
5.06
4.43
3.5
2.31
0.94
-0.52
-2.0
-3.4
-4.66
-5.75
-6.67
-7.47
-8.23
-9.07
-10.1
-11.38
-12.88
-14.47
-15.87
-16.76
-16.82
-15.86
-13.88
-11.06
-7.7
-4.1
-0.51
2.87
5.86
8.27
9.94
10.74
10.7
9.99
8.88
7.63
6.45
5.47
4.72
4.19
3.86
3.67
3.58
3.56
3.56
3.54
3.51
3.46
3.34
3.07
2.55
1.67
0.4
-1.18
-2.89
-4.5
-5.85
-6.87
-7.66
-8.4
-9.29
-10.44
-11.86
-13.44
-14.95
-16.14
-16.7
-16.36
-14.98
-12.54
-9.23
-5.35
-1.23
2.88
6.74
10.17
12.97
14.86
15.68
15.37
14.1
12.21
10.13
8.2
6.61
5.42
4.6
4.1
3.85
3.81
3.91
4.04
4.09
3.92
3.47
2.75
1.83
0.78
-0.3
-1.4
-2.5
-3.59
-4.61
-5.51
-6.22
-6.77
-7.19
-7.6
-8.15
-8.94
-10.06
-11.5
-13.09
-14.53
-15.41
-15.28
-13.86
-11.11
-7.31
-2.94
1.44
5.36
8.51
10.78
12.2
12.82
12.72
12.01
10.83
9.39
7.97
6.79
6.01
5.62
5.52
5.6
5.79
6.1
6.54
7.1
7.68
8.12
8.29
8.07
7.47
6.51
5.21
3.6
1.69
-0.41
-2.58
-4.6
-6.31
-7.63
-8.64
-9.47
-10.34
-11.43
-12.87
-14.69
-16.8
-18.94
-20.73
-21.66
-21.3
-19.4
-16.07
-11.69
-6.86
-2.15
1.98
5.29
7.69
9.14
9.64
9.25
8.09
6.4
4.42
2.38
0.43
-1.33
-2.82
-3.94
-4.63
-4.87
-4.77
-4.57
-4.5
-4.78
-5.5
-6.66
-8.2
-10.08
-12.25
-14.71
-17.39
-20.19
-22.94
-25.5
-27.74
-29.63
-31.16
-32.3
-32.97
-33.02
-32.21
-30.32
-27.14
-22.5
-16.35
-8.76
0.01
9.44
18.85
27.5
34.75
40.19
43.7
45.37
45.43
44.13
41.71
38.46
34.72
30.84
27.18
24.06
21.65
19.98
19.0
18.55
18.4
18.29
17.99
17.32
16.2
14.71
12.97
11.14
9.24
7.24
5.05
2.66
0.2
-2.1
-4.04
-5.56
-6.81
-8.07
-9.58
-11.44
-13.55
-15.64
-17.42
-18.57
-18.82
-17.95
-15.77
-12.22
-7.45
-1.88
3.82
8.98
13.04
15.76
17.19
17.55
17.06
15.9
14.14
11.88
9.36
6.94
5.02
3.85
3.47
3.67
4.13
4.56
4.82
4.86
4.73
4.46
4.05
3.5
2.79
1.93
0.96
-0.11
-1.27
-2.5
-3.81
-5.19
-6.61
-8.05
-9.47
-10.86
-12.28
-13.8
-15.48
-17.22
-18.72
-19.52
-19.08
-17.08
-13.49
-8.64
-3.11
2.49
7.67
12.08
15.47
17.68
18.61
18.28
16.87
14.7
12.16
9.68
7.59
6.11
5.34
5.25
5.66
6.34
6.99
7.39
7.41
7.07
6.43
5.6
4.64
3.54
2.3
0.91
-0.61
-2.24
-3.91
-5.55
-7.08
-8.41
-9.5
-10.37
-11.15
-12.03
-13.24
-14.88
-16.92
-19.06
-20.78
-21.55
-20.9
-18.64
-14.9
-10.05
-4.62
0.81
5.76
9.81
12.67
14.22
14.5
13.68
12.06
9.97
7.7
5.53
3.7
2.41
1.8
1.89
2.54
3.49
4.47
5.27
5.79
6.04
6.05
5.8
5.24
4.27
2.89
1.18
-0.69
-2.51
-4.11
-5.42
-6.47
-7.34
-8.2
-9.18
-10.42
-11.97
-13.74
-15.48
-16.77
-17.13
-16.17
-13.78
-10.13
-5.67
-0.93
3.62
7.68
11.07
13.65
15.25
15.71
14.96
13.13
10.55
7.71
5.14
3.19
2.01
1.55
1.63
2.09
2.77
3.54
4.27
4.77
4.84
4.36
3.3
1.75
-0.09
-2.0
-3.81
-5.43
-6.85
-8.13
-9.35
-10.6
-12.0
-13.61
-15.44
-17.28
-18.77
-19.4
-18.71
-16.46
-12.73
-7.9
-2.54
2.81
7.72
11.96
15.38
17.88
19.33
19.64
18.8
16.92
14.29
11.28
8.28
5.67
3.71
2.58
2.27
2.68
3.6
4.75
5.83
6.56
6.76
6.33
5.3
3.76
1.86
-0.22
-2.27
-4.12
-5.65
-6.85
-7.86
-8.98
-10.49
-12.58
-15.14
-17.77
-19.84
-20.7
-19.82
-16.96
-12.23
-6.05
0.88
7.72
13.68
18.2
21.03
22.26
22.18
21.1
19.25
16.79
13.85
10.72
7.82
5.62
4.41
4.2
4.7
5.5
6.24
6.71
6.92
6.91
6.66
6.03
4.83
2.99
0.63
-1.93
-4.33
-6.35
-8.01
-9.52
-11.13
-13.04
-15.28
-17.73
-20.18
-22.29
-23.58
-23.54
-21.66
-17.69
-11.79
-4.59
2.96
9.92
15.6
19.71
22.32
23.62
23.73
22.63
20.32
16.95
12.98
9.1
6.03
4.23
3.76
4.32
5.41
6.55
7.42
7.94
8.08
7.89
7.34
6.45
5.24
3.77
2.15
0.45
-1.27
-3.02
-4.75
-6.42
-7.97
-9.4
-10.75
-12.15
-13.76
-15.66
-17.81
-20.02
-21.91
-23.01
-22.85
-21.04
-17.43
-12.14
-5.61
1.46
8.3
14.19
18.68
21.59
22.99
23.09
22.1
20.21
17.59
14.51
11.33
8.49
6.41
5.35
5.35
6.22
7.62
9.14
10.41
11.14
11.2
10.6
9.48
8.07
6.56
5.09
3.65
2.19
0.65
-0.98
-2.64
-4.29
-5.9
-7.5
-9.14
-10.8
-12.39
-13.73
-14.75
-15.53
-16.32
-17.43
-19.02
-20.92
-22.57
-23.17
-21.95
-18.53
-13.07
-6.21
1.1
7.92
13.62
17.86
20.59
21.91
21.91
20.72
18.55
15.66
12.48
9.44
6.95
5.25
4.39
4.22
4.56
5.16
5.88
6.6
7.25
7.75
7.99
7.84
7.22
6.15
4.71
3.09
1.44
-0.11
-1.53
-2.87
-4.16
-5.43
-6.67
-7.83
-8.89
-9.85
-10.79
-11.83
-13.06
-14.51
-16.17
-17.93
-19.62
-21.04
-21.9
-21.9
-20.68
-18.02
-13.9
-8.6
-2.72
3.04
8.05
11.95
14.64
16.21
16.78
16.41
15.15
13.15
10.69
8.15
5.91
4.21
3.12
2.57
2.47
2.77
3.44
4.33
5.21
5.77
5.8
5.32
4.54
3.73
3.11
2.67
2.24
1.6
0.63
-0.64
-2.07
-3.47
-4.8
-6.06
-7.34
-8.64
-9.9
-10.99
-11.84
-12.52
-13.2
-14.11
-15.31
-16.59
-17.46
-17.34
-15.7
-12.35
-7.53
-1.79
4.13
9.56
14.0
17.24
19.23
20.05
19.81
18.61
16.6
13.97
11.06
8.26
5.91
4.24
3.28
2.95
3.07
3.51
4.15
4.87
5.52
5.91
5.83
5.17
3.94
2.33
0.62
-0.91
-2.1
-2.96
-3.65
-4.39
-5.34
-6.51
-7.78
-9.0
-10.09
-11.08
-12.14
-13.39
-14.92
-16.64
-18.41
-19.99
-21.15
-21.65
-21.22
-19.6
-16.65
-12.41
-7.16
-1.42
4.24
9.27
13.3
16.12
17.67
18.01
17.23
15.49
13.05
10.23
7.41
4.95
3.12
2.07
1.8
2.22
3.16
4.35
5.52
6.4
6.79
6.63
5.99
5.06
4.04
3.07
2.14
1.15
-0.02
-1.4
-2.98
-4.65
-6.32
-7.87
-9.23
-10.34
-11.16
-11.73
-12.19
-12.77
-13.77
-15.36
-17.51
-19.87
-21.88
-22.88
-22.36
-20.09
-16.23
-11.21
-5.64
-0.1
4.98
9.31
12.77
15.27
16.78
17.29
16.82
15.5
13.53
11.21
8.83
6.67
4.99
3.95
3.64
4.0
4.86
5.93
6.92
7.62
7.96
7.94
7.62
7.02
6.13
4.94
3.5
1.98
0.54
-0.69
-1.75
-2.76
-3.88
-5.16
-6.5
-7.71
-8.66
-9.4
-10.12
-11.08
-12.43
-14.22
-16.3
-18.46
-20.42
-21.85
-22.4
-21.7
-19.48
-15.7
-10.6
-4.7
1.34
6.91
11.57
15.09
17.45
18.73
19.02
18.43
16.99
14.83
12.11
9.15
6.34
4.06
2.58
1.98
2.13
2.76
3.6
4.37
4.94
5.24
5.22
4.86
4.16
3.16
1.96
0.72
-0.4
-1.29
-1.96
-2.56
-3.3
-4.33
-5.68
-7.21
-8.74
-10.14
-11.37
-12.53
-13.73
-15.04
-16.41
-17.69
-18.72
-19.3
-19.22
-18.26
-16.23
-13.03
-8.78
-3.79
1.48
6.54
10.95
14.42
16.71
17.72
17.41
15.87
13.37
10.3
7.13
4.33
2.23
1.02
0.69
1.11
2.01
3.11
4.14
4.96
5.49
5.74
5.73
5.48
5.01
4.38
3.68
3.04
2.51
2.04
1.49
0.68
-0.48
-1.96
-3.63
-5.29
-6.84
-8.26
-9.66
-11.14
-12.74
-14.3
-15.46
-15.79
-14.86
-12.46
-8.62
-3.67
1.86
7.37
12.37
16.48
19.48
21.3
21.95
21.52
20.12
17.96
15.25
12.25
9.27
6.6
4.5
3.17
2.65
2.85
3.52
4.33
4.96
5.21
5.03
4.55
3.92
3.29
2.65
1.89
0.83
-0.61
-2.41
-4.37
-6.25
-7.87
-9.21
-10.37
-11.52
-12.78
-14.21
-15.84
-17.66
-19.59
-21.47
-22.95
-23.56
-22.79
-20.31
-16.1
-10.49
-4.07
2.47
8.55
13.74
17.77
20.5
21.89
21.97
20.86
18.79
16.06
13.06
10.12
7.55
5.52
4.1
3.29
3.07
3.36
4.05
4.97
5.89
6.59
6.9
6.75
6.14
5.15
3.88
2.41
0.87
-0.65
-2.08
-3.37
-4.56
-5.71
-6.9
-8.17
-9.54
-11.04
-12.73
-14.69
-16.91
-19.17
-21.02
-21.84
-21.03
-18.28
-13.71
-7.81
-1.33
5.05
10.77
15.51
19.03
21.18
21.79
20.86
18.59
15.4
11.89
8.61
5.98
4.17
3.19
2.89
3.07
3.54
4.09
4.58
4.9
5.01
4.94
4.67
4.23
3.58
2.73
1.68
0.48
-0.83
-2.19
-3.61
-5.06
-6.56
-8.06
-9.52
-10.91
-12.22
-13.57
-15.11
-16.95
-19.05
-21.11
-22.54
-22.66
-20.96
-17.28
-11.96
-5.68
0.76
6.62
11.46
15.02
17.26
18.18
17.85
16.37
13.99
11.01
7.83
4.81
2.27
0.44
-0.56
-0.74
-0.23
0.76
1.96
3.14
4.1
4.67
4.77
4.32
3.31
1.82
0.04
-1.72
-3.22
-4.3
-5.02
-5.59
-6.25
-7.24
-8.63
-10.41
-12.46
-14.64
-16.8
-18.77
-20.27
-20.97
-20.52
-18.67
-15.43
-11.09
-6.17
-1.2
3.44
7.6
11.29
14.52
17.12
18.75
19.06
17.88
15.4
12.11
8.62
5.5
3.1
1.54
0.78
0.68
1.07
1.78
2.63
3.5
4.27
4.82
4.99
4.59
3.52
1.8
-0.33
-2.52
-4.36
-5.67
-6.44
-6.96
-7.53
-8.47
-9.92
-11.85
-14.1
-16.38
-18.31
-19.45
-19.36
-17.69
-14.3
-9.36
-3.37
2.97
8.94
13.99
17.81
20.38
21.77
22.04
21.19
19.2
16.24
12.68
9.1
6.09
4.04
2.99
2.75
2.98
3.41
3.87
4.32
4.71
4.96
4.91
4.45
3.47
2.01
0.16
-1.93
-4.07
-6.08
-7.84
-9.32
-10.63
-11.97
-13.55
-15.48
-17.75
-20.16
-22.43
-24.17
-24.98
-24.48
-22.41
-18.66
-13.38
-6.96
-0.01
6.8
12.85
17.66
20.96
22.65
22.78
21.48
19.01
15.69
11.97
8.36
5.41
3.48
2.71
2.93
3.75
4.74
5.56
6.13
6.48
6.71
6.79
6.58
5.92
4.7
2.95
0.83
-1.44
-3.64
-5.64
-7.37
-8.81
-10.0
-11.04
-12.05
-13.19
-14.6
-16.34
-18.32
-20.25
-21.65
-21.94
-20.59
-17.3
-12.19
-5.77
1.16
7.74
13.3
17.42
20.0
21.07
20.79
19.38
17.08
14.23
11.18
8.33
6.02
4.52
3.98
4.34
5.37
6.71
7.98
8.94
9.5
9.75
9.73
9.42
8.68
7.37
5.45
3.08
0.51
-1.94
-4.09
-5.88
-7.37
-8.66
-9.85
-11.04
-12.32
-13.82
-15.63
-17.75
-20.0
-22.04
-23.36
-23.43
-21.81
-18.33
-13.12
-6.67
0.31
7.07
12.96
17.53
20.57
22.04
22.03
20.7
18.3
15.14
11.63
8.27
5.5
3.71
3.0
3.21
3.96
4.8
5.4
5.65
5.67
5.63
5.6
5.46
4.96
3.83
1.99
-0.41
-3.03
-5.5
-7.54
-9.07
-10.24
-11.25
-12.31
-13.53
-14.93
-16.45
-17.99
-19.45
-20.59
-21.04
-20.38
-18.21
-14.4
-9.2
-3.21
2.79
8.13
12.43
15.6
17.76
18.98
19.25
18.47
16.59
13.79
10.47
7.21
4.59
3.0
2.56
3.1
4.22
5.46
6.48
7.1
7.38
7.46
7.46
7.33
6.88
5.9
4.29
2.2
-0.06
-2.12
-3.76
-5.01
-6.16
-7.5
-9.23
-11.38
-13.75
-16.1
-18.14
-19.59
-20.17
-19.6
-17.58
-13.95
-8.77
-2.44
4.38
10.92
16.47
20.55
22.97
23.78
23.15
21.31
18.52
15.14
11.6
8.4
5.95
4.49
4.04
4.38
5.18
6.11
6.93
7.46
7.64
7.43
6.83
5.88
4.64
3.18
1.56
-0.19
-2.05
-3.99
-5.95
-7.86
-9.64
-11.28
-12.8
-14.27
-15.79
-17.41
-19.19
-21.05
-22.74
-23.8
-23.66
-21.79
-17.88
-12.09
-4.99
2.54
9.56
15.35
19.55
22.12
23.23
23.08
21.78
19.45
16.25
12.55
8.91
5.93
4.09
3.55
4.1
5.29
6.63
7.74
8.4
8.57
8.27
7.55
6.48
5.13
3.63
2.11
0.67
-0.7
-2.05
-3.49
-5.1
-6.89
-8.78
-10.6
-12.16
-13.37
-14.25
-14.99
-15.85
-17.02
-18.54
-20.11
-21.25
-21.37
-19.95
-16.75
-11.9
-5.81
0.87
7.46
13.34
18.1
21.5
23.41
23.82
22.74
20.34
17.0
13.27
9.8
7.14
5.59
5.12
5.45
6.24
7.18
8.12
8.99
9.65
9.94
9.66
8.71
7.19
5.37
3.6
2.11
0.98
0.07
-0.91
-2.2
-3.93
-6.04
-8.3
-10.41
-12.09
-13.21
-13.78
-14.01
-14.22
-14.77
-15.92
-17.71
-19.85
-21.77
-22.68
-21.9
-19.02
-14.15
-7.87
-1.02
5.52
11.08
15.28
17.99
19.23
19.17
18.01
16.03
13.53
10.8
8.12
5.75
3.89
2.71
2.24
2.36
2.83
3.37
3.73
3.78
3.57
3.18
2.71
2.17
1.51
0.64
-0.5
-1.9
-3.42
-4.9
-6.16
-7.13
-7.83
-8.37
-8.85
-9.36
-9.95
-10.62
-11.47
-12.61
-14.09
-15.81
-17.44
-18.49
-18.45
-16.97
-13.99
-9.76
-4.74
0.53
5.52
9.82
13.2
15.61
17.11
17.83
17.85
17.2
15.89
14.0
11.7
9.32
7.21
5.66
4.79
4.53
4.73
5.15
5.62
5.97
6.15
6.11
5.86
5.4
4.7
3.67
2.3
0.6
-1.3
-3.17
-4.84
-6.21
-7.35
-8.44
-9.67
-11.13
-12.83
-14.66
-16.48
-18.11
-19.37
-20.02
-19.79
-18.39
-15.64
-11.53
-6.33
-0.58
5.01
9.75
13.18
15.21
16.08
16.16
15.77
14.98
13.67
11.75
9.28
6.62
4.25
2.61
1.83
1.79
2.13
2.54
2.86
3.1
3.33
3.57
3.73
3.62
3.06
2.04
0.68
-0.79
-2.16
-3.33
-4.35
-5.35
-6.48
-7.8
-9.25
-10.75
-12.23
-13.72
-15.3
-17.05
-18.9
-20.58
-21.66
-21.61
-20.01
-16.72
-11.94
-6.19
-0.19
5.34
9.89
13.2
15.26
16.22
16.29
15.6
14.23
12.29
9.94
7.51
5.39
3.91
3.26
3.38
4.02
4.82
5.51
5.96
6.18
6.26
6.26
6.14
5.8
5.16
4.21
3.05
1.81
0.67
-0.32
-1.14
-1.87
-2.6
-3.42
-4.41
-5.63
-7.11
-8.88
-10.92
-13.18
-15.5
-17.66
-19.29
-19.97
-19.33
-17.17
-13.6
-8.99
-3.9
1.13
5.69
9.55
12.64
14.91
16.25
16.55
15.71
13.84
11.23
8.35
5.72
3.73
2.54
2.05
2.01
2.14
2.28
2.43
2.66
3.01
3.41
3.69
3.61
3.08
2.14
0.95
-0.31
-1.52
-2.65
-3.72
-4.77
-5.82
-6.9
-8.05
-9.32
-10.76
-12.34
-13.95
-15.42
-16.54
-17.1
-16.95
-15.98
-14.15
-11.52
-8.24
-4.54
-0.65
3.22
6.87
10.12
12.78
14.62
15.45
15.19
13.88
11.73
9.06
6.26
3.72
1.72
0.44
-0.1
-0.01
0.52
1.25
1.98
2.55
2.87
2.91
2.64
2.09
1.35
0.52
-0.3
-1.05
-1.75
-2.47
-3.28
-4.25
-5.42
-6.83
-8.46
-10.28
-12.1
-13.64
-14.55
-14.47
-13.22
-10.78
-7.34
-3.22
1.16
5.42
9.18
12.11
14.04
14.9
14.79
13.9
12.45
10.69
8.81
6.99
5.38
4.08
3.13
2.55
2.28
2.3
2.53
2.92
3.33
3.64
3.67
3.32
2.56
1.45
0.14
-1.21
-2.42
-3.44
-4.26
-5.0
-5.85
-7.0
-8.54
-10.44
-12.49
-14.39
-15.77
-16.31
-15.75
-13.94
-10.88
-6.73
-1.85
3.23
7.95
11.85
14.69
16.43
17.14
16.94
15.91
14.13
11.77
9.14
6.65
4.7
3.52
3.1
3.23
3.62
4.01
4.26
4.33
4.2
3.83
3.18
2.21
1.01
-0.33
-1.69
-3.0
-4.26
-5.54
-6.86
-8.22
-9.57
-10.91
-12.29
-13.82
-15.52
-17.26
-18.69
-19.33
-18.78
-16.85
-13.61
-9.33
-4.42
0.75
5.8
10.41
14.25
17.03
18.54
18.71
17.65
15.62
13.02
10.32
8.0
6.4
5.66
5.7
6.25
6.94
7.47
7.68
7.63
7.46
7.27
7.08
6.73
6.03
4.86
3.26
1.41
-0.44
-2.15
-3.7
-5.19
-6.74
-8.35
-9.9
-11.28
-12.45
-13.53
-14.7
-16.05
-17.44
-18.51
-18.74
-17.73
-15.35
-11.75
-7.34
-2.6
2.08
6.41
10.17
13.17
15.19
16.05
15.69
14.26
12.1
9.63
7.25
5.25
3.77
2.83
2.43
2.55
3.13
4.05
5.08
5.94
6.38
6.27
5.62
4.6
3.4
2.16
0.95
-0.28
-1.58
-2.96
-4.38
-5.75
-6.98
-8.05
-8.99
-9.84
-10.67
-11.52
-12.44
-13.48
-14.64
-15.87
-16.99
-17.68
-17.57
-16.36
-13.87
-10.16
-5.56
-0.56
4.31
8.57
11.87
14.08
15.21
15.35
14.61
13.08
10.89
8.27
5.6
3.34
1.88
1.38
1.71
2.52
3.42
4.14
4.59
4.81
4.86
4.75
4.38
3.66
2.55
1.12
-0.42
-1.87
-3.06
-3.94
-4.6
-5.21
-5.92
-6.8
-7.76
-8.67
-9.44
-10.13
-10.92
-11.97
-13.22
-14.3
-14.66
-13.79
-11.51
-8.0
-3.77
0.65
4.87
8.67
11.96
14.6
16.37
17.0
16.38
14.65
12.15
9.38
6.81
4.78
3.45
2.81
2.76
3.13
3.78
4.57
5.39
6.15
6.73
7.01
6.86
6.16
4.91
3.2
1.25
-0.63
-2.22
-3.41
-4.29
-5.14
-6.24
-7.75
-9.65
-11.72
-13.64
-15.15
-16.08
-16.35
-15.87
-14.54
-12.22
-8.9
-4.73
-0.05
4.67
9.0
12.59
15.22
16.79
17.22
16.49
14.67
12.0
8.85
5.73
3.11
1.34
0.57
0.7
1.5
2.62
3.71
4.54
4.94
4.88
4.43
3.67
2.69
1.53
0.21
-1.21
-2.7
-4.13
-5.43
-6.56
-7.61
-8.71
-10.0
-11.55
-13.35
-15.26
-17.1
-18.66
-19.77
-20.21
-19.76
-18.14
-15.2
-10.94
-5.67
0.05
5.52
10.14
13.57
15.73
16.75
16.8
15.99
14.39
12.08
9.32
6.51
4.17
2.7
2.3
2.85
4.04
5.45
6.79
7.85
8.58
8.96
8.89
8.31
7.17
5.56
3.71
1.84
0.12
-1.45
-2.97
-4.54
-6.14
-7.69
-9.08
-10.32
-11.53
-12.87
-14.49
-16.29
-18.05
-19.39
-19.97
-19.45
-17.63
-14.43
-9.93
-4.51
1.28
6.75
11.33
14.69
16.78
17.76
17.82
17.12
15.72
13.75
11.44
9.14
7.18
5.81
5.09
4.94
5.17
5.64
6.23
6.83
7.33
7.59
7.48
6.96
6.04
4.84
3.47
2.02
0.54
-0.95
-2.42
-3.77
-4.89
-5.76
-6.41
-7.05
-7.84
-8.92
-10.28
-11.81
-13.33
-14.73
-15.89
-16.66
-16.81
-16.02
-14.07
-10.91
-6.85
-2.41
1.79
5.3
7.96
9.86
11.19
12.03
12.35
11.98
10.81
8.96
6.76
4.66
3.08
2.26
2.16
2.61
3.36
4.14
4.81
5.2
5.19
4.7
3.76
2.48
1.11
-0.11
-1.04
-1.66
-2.08
-2.48
-2.99
-3.69
-4.58
-5.62
-6.78
-8.02
-9.3
-10.54
-11.7
-12.67
-13.36
-13.63
-13.33
-12.29
-10.43
-7.81
-4.64
-1.2
2.24
5.5
8.5
11.18
13.37
14.81
15.21
14.39
12.45
9.78
7.0
4.7
3.31
2.87
3.2
3.9
4.62
5.14
5.38
5.37
5.14
4.73
4.13
3.32
2.35
1.27
0.18
-0.89
-1.92
-2.93
-3.92
-4.87
-5.78
-6.69
-7.69
-8.9
-10.39
-12.04
-13.58
-14.62
-14.77
-13.8
-11.68
-8.55
-4.69
-0.46
3.78
7.65
10.86
13.21
14.61
15.09
14.73
13.66
12.0
9.9
7.62
5.46
3.75
2.7
2.35
2.56
3.04
3.52
3.78
3.77
3.53
3.15
2.67
2.07
1.28
0.26
-0.98
-2.35
-3.7
-4.96
-6.08
-7.13
-8.21
-9.44
-10.91
-12.63
-14.54
-16.5
-18.32
-19.66
-20.22
-19.67
-17.83
-14.71
-10.53
-5.66
-0.59
4.19
8.25
11.34
13.35
14.35
14.51
14.02
13.04
11.64
9.91
7.97
6.0
4.31
3.16
2.72
2.98
3.73
4.67
5.5
5.98
6.05
5.71
5.02
4.04
2.84
1.51
0.17
-1.05
-2.04
-2.84
-3.51
-4.24
-5.15
-6.34
-7.78
-9.44
-11.27
-13.22
-15.18
-16.88
-17.97
-18.02
-16.72
-13.97
-9.96
-5.09
0.08
5.01
9.26
12.54
14.74
15.89
16.12
15.6
14.5
12.95
11.07
9.06
7.13
5.53
4.46
3.97
3.98
4.26
4.53
4.59
4.37
3.93
3.4
2.89
2.43
1.93
1.25
0.23
-1.14
-2.76
-4.4
-5.83
-6.87
-7.47
-7.73
-7.83
-8.01
-8.47
-9.37
-10.72
-12.39
-14.14
-15.63
-16.46
-16.3
-14.94
-12.34
-8.67
-4.25
0.5
5.12
9.18
12.39
14.57
15.69
15.81
15.07
13.65
11.75
9.62
7.53
5.73
4.43
3.67
3.38
3.37
3.45
3.5
3.51
3.53
3.59
3.64
3.49
2.98
2.01
0.67
-0.83
-2.22
-3.3
-4.06
-4.62
-5.15
-5.77
-6.52
-7.35
-8.18
-9.01
-9.87
-10.78
-11.66
-12.32
-12.49
-11.94
-10.57
-8.41
-5.62
-2.42
0.95
4.26
7.26
9.7
11.38
12.18
12.15
11.43
10.23
8.7
6.95
5.14
3.47
2.17
1.46
1.41
1.86
2.55
3.18
3.55
3.61
3.41
3.05
2.56
1.9
1.1
0.18
-0.72
-1.45
-1.94
-2.2
-2.39
-2.72
-3.38
-4.47
-5.95
-7.62
-9.18
-10.35
-10.86
-10.57
-9.43
-7.5
-4.92
-1.95
1.14
4.08
6.66
8.78
10.37
11.44
11.93
11.85
11.19
10.05
8.61
7.11
5.82
4.93
4.51
4.48
4.69
4.91
5.03
4.99
4.86
4.66
4.39
3.92
3.1
1.89
0.37
-1.2
-2.55
-3.54
-4.22
-4.81
-5.6
-6.7
-8.06
-9.47
-10.71
-11.67
-12.32
-12.66
-12.59
-11.92
-10.46
-8.14
-5.12
-1.77
1.48
4.22
6.28
7.64
8.39
8.64
8.45
7.82
6.78
5.46
4.05
2.81
1.97
1.64
1.77
2.21
2.77
3.26
3.63
3.87
4.02
4.06
3.93
3.5
2.72
1.59
0.27
-1.0
-2.03
-2.74
-3.17
-3.53
-4.08
-5.0
-6.38
-8.12
-10.02
-11.83
-13.28
-14.15
-14.27
-13.53
-11.92
-9.51
-6.48
-3.09
0.29
3.34
5.82
7.59
8.65
9.08
8.98
8.47
7.65
6.65
5.62
4.7
4.0
3.6
3.48
3.57
3.8
4.08
4.31
4.43
4.4
4.21
3.89
3.48
3.05
2.59
2.08
1.46
0.73
-0.11
-1.0
-1.89
-2.79
-3.72
-4.73
-5.83
-6.98
-8.15
-9.33
-10.54
-11.77
-12.89
-13.66
-13.79
-13.01
-11.25
-8.61
-5.4
-1.98
1.35
4.34
6.87
8.81
10.04
10.47
10.02
8.7
6.65
4.14
1.5
-0.89
-2.63
-3.43
-3.13
-1.81
0.25
2.61
4.79
6.46
7.41
7.64
7.23
6.3
4.97
3.36
1.59
-0.22
-1.95
-3.56
-5.06
-6.5
-7.9
-9.25
-10.44
-11.35
-11.91
-12.12
-12.07
-11.88
-11.63
-11.29
-10.67
-9.56
-7.78
-5.3
-2.32
0.82
3.76
6.23
8.13
9.46
10.32
10.75
10.74
10.28
9.34
7.97
6.3
4.53
2.89
1.58
0.73
0.35
0.35
0.55
0.77
0.93
0.97
0.97
0.96
0.98
0.97
0.82
0.49
-0.03
-0.65
-1.27
-1.79
-2.21
-2.61
-3.09
-3.77
-4.68
-5.8
-7.08
-8.47
-9.89
-11.21
-12.21
-12.64
-12.26
-10.97
-8.85
-6.13
-3.12
-0.08
2.8
5.42
7.75
9.73
11.24
12.13
12.28
11.67
10.4
8.73
7.02
5.62
4.78
4.52
4.68
5.01
5.26
5.34
5.28
5.2
5.18
5.19
5.08
4.71
4.02
3.06
1.99
0.96
0.05
-0.76
-1.58
-2.53
-3.64
-4.89
-6.22
-7.6
-9.03
-10.55
-12.11
-13.54
-14.55
-14.79
-13.97
-12.0
-8.97
-5.19
-1.04
3.07
6.79
9.83
12.0
13.21
13.5
12.97
11.8
10.17
8.26
6.28
4.46
3.03
2.18
1.97
2.26
2.8
3.29
3.52
3.45
3.2
2.93
2.74
2.64
2.48
2.14
1.49
0.56
-0.58
-1.78
-2.95
-4.02
-5.03
-6.06
-7.17
-8.42
-9.79
-11.24
-12.72
-14.2
-15.63
-16.87
-17.67
-17.63
-16.38
-13.65
-9.49
-4.33
1.14
6.17
10.17
12.88
14.38
14.94
14.86
14.35
13.47
12.24
10.68
8.97
7.32
6.0
5.17
4.92
5.18
5.81
6.6
7.34
7.89
8.16
8.19
8.02
7.69
7.17
6.36
5.13
3.46
1.46
-0.66
-2.69
-4.51
-6.18
-7.78
-9.37
-10.89
-12.2
-13.2
-13.93
-14.51
-15.09
-15.62
-15.79
-15.1
-13.1
-9.61
-4.87
0.53
5.8
10.29
13.56
15.53
16.3
16.08
15.06
13.4
11.24
8.79
6.28
3.98
2.09
0.76
0.03
-0.13
0.18
0.83
1.61
2.29
2.69
2.76
2.56
2.19
1.73
1.16
0.36
-0.78
-2.25
-3.94
-5.65
-7.24
-8.68
-10.06
-11.5
-13.06
-14.73
-16.39
-17.9
-19.12
-19.91
-20.1
-19.44
-17.77
-14.99
-11.23
-6.81
-2.18
2.21
6.03
9.08
11.28
12.59
12.97
12.44
11.09
9.15
6.99
5.0
3.48
2.53
2.09
1.99
2.05
2.21
2.48
2.92
3.52
4.15
4.61
4.69
4.28
3.46
2.38
1.22
0.12
-0.87
-1.79
-2.68
-3.65
-4.78
-6.17
-7.86
-9.8
-11.77
-13.44
-14.41
-14.35
-13.08
-10.62
-7.19
-3.09
1.33
5.7
9.68
12.95
15.25
16.47
16.59
15.68
13.86
11.34
8.4
5.44
2.91
1.21
0.52
0.76
1.56
2.47
3.14
3.41
3.35
3.11
2.75
2.24
1.53
0.58
-0.5
-1.53
-2.42
-3.19
-4.03
-5.2
-6.84
-8.91
-11.21
-13.43
-15.34
-16.76
-17.53
-17.49
-16.42
-14.18
-10.8
-6.52
-1.76
2.98
7.34
11.1
14.18
16.49
17.93
18.32
17.58
15.78
13.24
10.44
7.9
6.02
4.96
4.65
4.87
5.35
5.86
6.29
6.54
6.55
6.27
5.59
4.51
3.07
1.41
-0.33
-1.99
-3.51
-4.86
-6.07
-7.21
-8.38
-9.69
-11.27
-13.15
-15.24
-17.29
-18.87
-19.52
-18.82
-16.55
-12.74
-7.69
-1.92
3.96
9.36
13.84
17.14
19.21
20.13
20.0
18.87
16.83
14.05
10.86
7.75
5.24
3.69
3.18
3.47
4.17
4.88
5.36
5.62
5.75
5.86
5.93
5.81
5.28
4.19
2.55
0.5
-1.72
-3.85
-5.72
-7.25
-8.51
-9.63
-10.8
-12.19
-13.88
-15.78
-17.71
-19.31
-20.22
-20.04
-18.51
-15.5
-11.11
-5.63
0.41
6.39
11.65
15.67
18.17
19.16
18.84
17.57
15.69
13.51
11.24
9.08
7.2
5.83
5.09
5.03
5.55
6.38
7.22
7.81
8.04
7.88
7.43
6.76
5.96
5.06
4.06
2.97
1.8
0.59
-0.62
-1.81
-2.96
-4.12
-5.36
-6.73
-8.27
-9.95
-11.67
-13.33
-14.8
-15.97
-16.68
-16.7
-15.76
-13.6
-10.14
-5.56
-0.34
4.85
9.38
12.86
15.2
16.53
17.03
16.78
15.74
13.89
11.35
8.52
5.92
4.07
3.2
3.23
3.84
4.61
5.26
5.66
5.77
5.61
5.17
4.47
3.53
2.46
1.34
0.22
-0.94
-2.22
-3.61
-5.04
-6.35
-7.43
-8.26
-8.95
-9.68
-10.59
-11.75
-13.06
-14.39
-15.52
-16.2
-16.18
-15.19
-13.06
-9.77
-5.58
-0.97
3.51
7.42
10.51
12.76
14.26
15.02
14.99
14.11
12.42
10.14
7.68
5.48
3.87
2.96
2.67
2.85
3.32
3.97
4.69
5.34
5.75
5.8
5.49
4.9
4.16
3.31
2.3
1.01
-0.63
-2.52
-4.47
-6.19
-7.56
-8.62
-9.61
-10.77
-12.25
-13.97
-15.62
-16.77
-17.0
-16.05
-13.84
-10.53
-6.52
-2.32
1.54
4.73
7.13
8.81
9.88
10.36
10.09
8.85
6.54
3.35
-0.18
-3.36
-5.53
-6.32
-5.72
-4.04
-1.75
0.71
3.03
5.05
6.72
7.98
8.75
8.84
8.1
6.51
4.19
1.47
-1.22
-3.5
-5.14
-6.11
-6.58
-6.81
-7.06
-7.5
-8.18
-9.0
-9.77
-10.29
-10.36
-9.8
-8.51
-6.42
-3.57
-0.15
3.55
7.14
10.3
12.83
14.64
15.76
16.19
15.9
14.9
13.29
11.31
9.32
7.68
6.6
6.12
6.15
6.54
7.15
7.84
8.49
8.94
9.11
8.94
8.5
7.86
7.03
5.94
4.49
2.67
0.59
-1.47
-3.23
-4.57
-5.58
-6.51
-7.63
-9.06
-10.76
-12.59
-14.34
-15.83
-16.86
-17.16
-16.46
-14.54
-11.37
-7.21
-2.59
1.89
5.66
8.41
10.06
10.76
10.69
10.07
9.03
7.69
6.16
4.63
3.29
2.3
1.75
1.59
1.73
2.01
2.33
2.65
2.95
3.23
3.41
3.38
3.04
2.35
1.35
0.18
-0.99
-2.02
-2.84
-3.48
-4.07
-4.75
-5.67
-6.87
-8.38
-10.1
-11.91
-13.64
-15.05
-15.94
-16.11
-15.41
-13.78
-11.25
-7.97
-4.2
-0.27
3.45
6.66
9.12
10.73
11.46
11.39
10.6
9.24
7.53
5.74
4.2
3.17
2.75
2.85
3.21
3.58
3.78
3.73
3.54
3.3
3.07
2.85
2.55
2.06
1.31
0.25
-1.05
-2.47
-3.82
-4.96
-5.81
-6.43
-6.96
-7.58
-8.43
-9.52
-10.82
-12.23
-13.67
-14.99
-16.02
-16.47
-16.01
-14.39
-11.57
-7.78
-3.53
0.6
4.13
6.77
8.55
9.62
10.2
10.39
10.21
9.6
8.56
7.2
5.73
4.41
3.43
2.9
2.77
2.97
3.36
3.83
4.27
4.59
4.74
4.69
4.44
3.99
3.31
2.37
1.17
-0.19
-1.55
-2.71
-3.57
-4.19
-4.71
-5.33
-6.18
-7.24
-8.45
-9.75
-11.1
-12.4
-13.51
-14.13
-13.96
-12.82
-10.73
-7.89
-4.65
-1.29
1.95
4.93
7.46
9.35
10.38
10.48
9.72
8.37
6.78
5.26
4.0
3.02
2.27
1.68
1.22
0.97
0.96
1.22
1.69
2.2
2.59
2.75
2.66
2.32
1.77
0.97
-0.07
-1.29
-2.57
-3.72
-4.59
-5.16
-5.53
-5.86
-6.34
-7.08
-8.1
-9.31
-10.54
-11.5
-11.85
-11.29
-9.66
-7.08
-3.85
-0.39
2.92
5.83
8.25
10.13
11.44
12.12
12.07
11.29
9.88
8.03
6.03
4.18
