0
28.85
20.88
12.21
2.99
-6.33
-15.18
-23.27
-30.79
-38.39
-46.97
-57.38
-70.14
-85.3
-102.23
-119.57
-135.22
-146.63
-151.29
-147.44
-134.64
-113.96
-87.67
-58.59
-29.33
-1.92
22.37
42.82
59.09
71.1
79.04
83.47
85.25
85.5
85.37
85.74
87.16
89.57
92.49
95.2
97.03
97.59
96.87
95.06
92.37
88.72
83.84
77.39
69.31
59.93
50.03
40.5
31.95
24.47
17.54
10.32
2.01
-7.66
-18.34
-29.24
-39.54
-48.83
-57.33
-65.88
-75.57
-87.41
-101.93
-118.94
-137.33
-155.14
-169.67
-177.98
-177.63
-167.37
-147.65
-120.46
-88.82
-55.91
-24.27
4.48
29.52
50.52
67.36
79.93
88.33
92.97
94.73
94.89
94.81
95.54
97.5
100.34
103.22
105.23
105.86
105.15
103.53
101.44
99.0
95.91
91.68
85.95
78.74
70.45
61.69
52.99
44.67
36.74
29.0
21.09
12.64
3.38
-6.7
-17.35
-28.13
-38.61
-48.6
-58.28
-68.17
-79.03
-91.67
-106.67
-124.12
-143.23
-162.19
-178.23
-188.13
-189.14
-179.81
-160.57
-133.59
-102.13
-69.57
-38.55
-10.62
13.66
34.3
51.42
65.03
75.06
81.57
85.08
86.48
86.92
87.44
88.66
90.58
92.78
94.72
95.98
96.46
96.27
95.52
94.15
91.93
88.46
83.51
77.03
69.29
60.85
52.37
44.51
37.63
31.69
26.2
20.41
13.61
5.44
-3.88
-13.72
-23.36
-32.26
-40.37
-48.1
-56.22
-65.56
-76.89
-90.63
-106.6
-123.8
-140.29
-153.32
-160.02
-158.08
-146.55
-126.18
-99.23
-68.85
-38.2
-9.74
15.11
35.78
52.26
64.72
73.35
78.43
80.51
80.44
79.35
78.31
78.02
78.62
79.81
81.05
81.96
82.41
82.52
82.41
82.02
80.93
78.53
74.26
67.89
59.69
50.39
40.9
31.97
23.86
16.32
8.77
0.62
-8.41
-18.15
-28.11
-37.7
-46.59
-54.87
-63.1
-72.21
-83.21
-96.85
-113.14
-131.02
-148.29
-161.92
-168.82
-166.74
-154.94
-134.46
-107.79
-78.05
-48.24
-20.53
3.87
24.56
41.56
54.97
64.8
71.15
74.36
75.22
74.87
74.53
75.1
76.82
79.32
81.86
83.75
84.66
84.64
83.92
82.64
80.6
77.4
72.59
66.0
57.91
48.95
39.93
31.5
23.94
17.06
10.28
2.89
-5.59
-15.26
-25.74
-36.36
-46.46
-55.72
-64.26
-72.69
-81.89
-92.8
-106.09
-121.89
-139.41
-156.83
-171.44
-180.18
-180.46
-171.05
-152.5
-126.97
-97.58
-67.34
-38.53
-12.38
10.67
30.52
46.97
59.74
68.63
73.86
76.17
76.77
76.97
77.76
79.57
82.19
85.08
87.59
89.36
90.37
90.82
90.85
90.37
88.98
86.1
81.34
74.69
66.61
57.9
49.4
41.75
35.09
29.1
23.13
16.45
8.57
-0.6
-10.7
-21.1
-31.14
-40.47
-49.17
-57.77
-67.11
-78.12
-91.43
-107.09
-124.23
-141.02
-154.83
-162.85
-162.78
-153.56
-135.73
-111.27
-83.06
-54.0
-26.43
-1.76
19.36
36.76
50.43
60.37
66.76
70.06
71.2
71.36
71.76
73.21
75.92
79.54
83.41
86.87
89.54
91.31
92.2
92.22
91.22
88.97
85.25
80.02
73.49
66.11
58.48
51.1
44.2
37.66
31.03
23.73
15.36
5.88
-4.32
-14.62
-24.5
-33.84
-42.99
-52.64
-63.57
-76.33
-91.1
-107.35
-123.82
-138.44
-148.63
-151.94
-146.76
-132.97
-111.99
-86.39
-59.09
-32.55
-8.41
12.5
29.85
43.49
53.39
59.73
62.99
64.05
63.99
63.87
64.44
66.09
68.72
71.91
75.08
77.71
79.47
80.24
79.98
78.62
75.98
71.89
66.3
59.46
51.92
44.35
37.26
30.8
24.63
18.18
10.85
2.36
-7.12
-17.07
-26.84
-35.97
-44.44
-52.64
-61.33
-71.35
-83.33
-97.45
-113.27
-129.55
-144.26
-154.87
-158.89
-154.58
-141.54
-120.94
-95.17
-67.19
-39.64
-14.4
7.53
25.79
40.35
51.33
58.99
63.89
66.84
68.83
70.71
72.98
75.71
78.61
81.24
83.2
84.39
84.9
84.96
84.72
84.1
82.72
80.01
75.46
68.92
60.67
51.37
41.86
32.77
24.42
16.67
9.12
1.3
-7.09
-16.03
-25.21
-34.22
-42.79
-51.08
-59.63
-69.26
-80.73
-94.46
-110.27
-127.28
-143.89
-157.92
-166.92
-168.72
-162.02
-146.96
-125.1
-99.03
-71.54
-44.88
-20.36
1.52
20.62
36.79
49.69
59.07
64.97
67.98
69.07
69.39
69.88
71.03
72.85
74.98
76.94
78.33
79.0
78.98
78.36
77.07
74.85
71.33
66.3
59.92
52.76
45.61
39.15
33.62
28.74
23.9
18.48
12.06
4.63
-3.48
-11.76
-19.81
-27.44
-34.82
-42.41
-50.84
-60.76
-72.61
-86.41
-101.52
-116.48
-129.03
-136.52
-136.64
-128.16
-111.52
-88.73
-62.77
-36.62
-12.43
8.72
26.59
41.27
52.76
60.94
65.81
67.82
67.94
67.4
67.32
68.27
70.27
72.9
75.57
77.79
79.28
79.96
79.81
78.76
76.59
73.05
67.96
61.38
53.72
45.6
37.66
30.23
23.25
16.31
8.91
0.75
-8.11
-17.3
-26.3
-34.76
-42.69
-50.52
-58.98
-68.91
-80.95
-95.27
-111.22
-127.28
-141.18
-150.35
-152.52
-146.41
-132.14
-111.24
-86.27
-60.09
-35.06
-12.62
6.73
23.13
36.84
47.95
56.35
62.04
65.38
67.13
68.29
69.68
71.64
74.02
76.34
78.15
79.25
79.73
79.78
79.48
78.67
76.93
73.77
68.89
62.31
54.48
46.17
38.15
30.97
24.68
18.85
12.75
5.72
-2.58
-12.02
-22.06
-32.03
-41.38
-49.94
-58.02
-66.38
-75.97
-87.62
-101.51
-116.93
-132.04
-144.34
-151.27
-150.9
-142.56
-126.98
-105.98
-81.91
-57.02
-33.01
-10.98
8.49
25.09
38.54
48.7
55.66
59.88
62.18
63.6
65.01
66.91
69.33
71.93
74.29
76.17
77.47
78.24
78.55
78.35
77.49
75.72
72.78
68.52
63.01
56.56
49.74
43.14
37.15
31.78
26.66
21.21
14.97
7.84
0.1
-7.73
-15.22
-22.19
-28.81
-35.56
-43.16
-52.29
-63.4
-76.49
-90.83
-105.01
-117.02
-124.71
-126.25
-120.61
-107.95
-89.56
-67.57
-44.45
-22.35
-2.67
14.04
27.89
39.22
48.25
55.05
59.61
62.08
62.95
62.88
62.52
62.28
62.29
62.5
62.84
63.31
63.91
64.57
65.02
64.81
63.41
60.33
55.38
48.76
41.08
33.25
26.08
20.04
14.93
10.09
4.73
-1.65
-8.93
-16.54
-23.82
-30.4
-36.5
-42.77
-50.03
-58.94
-69.74
-82.15
-95.36
-108.02
-118.39
-124.57
-124.98
-118.75
-106.07
-88.17
-66.99
-44.64
-22.96
-3.22
13.93
28.24
39.63
48.03
53.45
56.09
56.61
55.96
55.34
55.63
57.18
59.67
62.38
64.59
65.92
66.35
66.1
65.35
64.01
61.8
58.42
53.76
47.96
41.41
34.59
27.9
21.62
15.81
10.28
4.72
-1.22
-7.78
-14.95
-22.49
-30.02
-37.26
-44.17
-51.03
-58.45
-67.22
-78.07
-91.28
-106.35
-121.85
-135.51
-144.8
-147.6
-142.91
-131.08
-113.69
-92.95
-71.12
-50.04
-30.8
-13.92
0.54
12.74
22.84
30.95
37.14
41.51
44.35
46.23
47.79
49.59
51.9
54.65
57.5
60.14
62.39
64.26
65.8
66.92
67.34
66.64
64.39
60.36
54.65
47.68
40.14
32.84
26.4
21.11
16.79
12.84
8.57
3.37
-3.03
-10.56
-18.76
-27.1
-35.12
-42.62
-49.77
-57.11
-65.31
-75.04
-86.56
-99.49
-112.78
-124.71
-133.24
-136.49
-133.22
-123.16
-107.18
-87.03
-64.92
-42.97
-22.73
-5.05
9.79
21.77
30.97
37.51
41.62
43.87
45.04
46.04
47.56
49.86
52.77
55.9
58.84
61.33
63.34
64.87
65.85
66.05
65.12
62.81
59.01
53.93
47.98
41.7
35.47
29.38
23.27
16.76
9.58
1.67
-6.72
-15.18
-23.36
-31.1
-38.62
-46.4
-55.12
-65.49
-77.95
-92.5
-108.41
-124.17
-137.57
-146.17
-147.97
-142.02
-128.71
-109.71
-87.42
-64.28
-42.16
-22.1
-4.43
10.94
24.14
35.06
43.49
49.31
52.68
54.25
54.9
55.52
56.73
58.67
61.09
63.6
65.83
67.65
69.09
70.2
70.92
71.02
70.13
67.91
64.23
59.24
53.4
47.32
41.48
36.06
30.82
25.21
18.62
10.71
1.56
-8.35
-18.32
-27.7
-36.24
-44.12
-52.0
-60.82
-71.51
-84.69
-100.3
-117.44
-134.33
-148.61
-157.71
-159.59
-153.19
-138.79
-117.92
-92.94
-66.41
-40.53
-16.67
4.51
22.88
38.46
51.19
60.95
67.82
72.18
74.86
76.84
78.95
81.6
84.67
87.73
90.27
92.04
93.08
93.61
93.83
93.72
93.01
91.24
87.94
82.85
76.02
67.88
59.1
50.35
42.13
34.59
27.49
20.4
12.84
4.54
-4.58
-14.35
-24.47
-34.63
-44.56
-54.19
-63.71
-73.61
-84.59
-97.32
-112.1
-128.41
-144.82
-159.06
-168.6
-171.23
-165.76
-152.32
-132.26
-107.75
-81.14
-54.44
-29.08
-5.94
14.44
31.69
45.54
55.97
63.31
68.25
71.71
74.59
77.55
80.89
84.55
88.25
91.66
94.55
96.83
98.56
99.78
100.46
100.31
98.9
95.8
90.79
84.09
76.37
68.52
61.3
55.04
49.48
43.93
37.58
29.91
20.94
11.16
1.34
-7.86
-16.21
-23.98
-31.91
-40.92
-51.88
-65.22
-80.76
-97.46
-113.47
-126.34
-133.52
-133.01
-124.0
-107.17
-84.51
-58.8
-32.78
-8.59
12.57
30.28
44.54
55.47
63.18
67.88
69.98
70.24
69.68
69.29
69.82
71.49
74.1
77.1
79.88
81.97
83.14
83.31
82.41
80.26
76.62
71.25
64.19
55.8
46.71
37.61
28.97
20.87
13.09
5.25
-2.95
-11.55
-20.41
-29.26
-37.83
-46.02
-53.96
-62.1
-71.14
-81.96
-95.19
-110.88
-128.1
-144.85
-158.36
-165.82
-165.11
-155.47
-137.72
-113.96
-86.89
-59.09
-32.43
-7.99
13.78
32.64
48.34
60.53
69.01
74.03
76.33
77.08
77.49
78.41
80.17
82.58
85.24
87.71
89.75
91.22
92.06
92.06
90.93
88.37
84.14
78.21
70.85
62.56
53.97
45.65
37.92
30.68
23.5
15.76
7.01
-2.82
-13.36
-23.96
-33.98
-43.05
-51.3
-59.27
-67.83
-77.95
-90.35
-105.3
-122.24
-139.64
-155.08
-165.7
-168.93
-163.2
-148.53
-126.52
-99.84
-71.43
-43.77
-18.45
3.8
22.83
38.73
51.56
61.35
68.32
72.91
75.85
77.98
80.01
82.31
84.91
87.53
89.81
91.44
92.37
92.72
92.7
92.37
91.51
89.64
86.23
80.96
73.97
65.87
57.5
49.58
42.43
35.91
29.53
22.7
15.09
6.63
-2.42
-11.7
-20.83
-29.61
-38.09
-46.53
-55.45
-65.45
-77.06
-90.56
-105.64
-121.22
-135.45
-145.94
-150.32
-146.89
-135.23
-116.37
-92.55
-66.55
-40.88
-17.27
3.46
21.13
35.84
47.62
56.41
62.28
65.53
66.91
67.39
67.92
69.18
71.38
74.29
77.36
80.02
81.75
82.28
81.5
79.43
76.12
71.61
66.0
59.48
52.39
45.12
37.96
31.01
24.13
16.96
9.25
0.87
-8.01
-17.01
-25.69
-33.8
-41.43
-49.14
-57.83
-68.41
-81.4
-96.49
-112.35
-126.72
-136.92
-140.56
-136.18
-123.74
-104.57
-81.01
-55.75
-31.16
-8.88
10.23
25.88
38.14
47.18
53.28
56.95
58.88
59.91
60.78
61.95
63.56
65.46
67.46
69.37
71.1
72.59
73.66
74.07
73.49
71.64
68.28
63.44
57.31
50.34
43.0
35.66
28.41
21.09
13.38
5.05
-3.89
-13.17
-22.41
-31.29
-39.77
-48.07
-56.68
-66.28
-77.55
-90.92
-106.27
-122.63
-138.11
-150.14
-156.08
-154.02
-143.39
-125.19
-101.69
-75.77
-50.09
-26.49
-5.79
11.96
27.08
39.78
50.02
57.68
62.75
65.65
67.14
68.05
69.05
70.37
71.94
73.56
75.14
76.69
78.28
79.8
80.81
80.69
78.78
74.72
68.62
61.11
53.06
45.28
38.19
31.67
25.19
18.1
10.02
1.03
-8.39
-17.67
-26.4
-34.51
-42.34
-50.38
-59.23
-69.41
-81.29
-94.81
-109.37
-123.55
-135.29
-142.23
-142.38
-134.72
-119.56
-98.5
-73.93
-48.41
-24.06
-2.25
16.42
31.87
44.25
53.72
60.43
64.6
66.74
67.62
68.17
69.19
71.12
73.9
77.15
80.35
83.06
84.99
85.95
85.83
84.5
81.96
78.33
73.88
68.95
63.83
58.61
53.17
47.14
40.0
31.26
20.64
8.2
-5.61
-20.11
-34.67
-49.06
-63.47
-78.39
-94.11
-110.18
-125.21
-137.09
-143.48
-142.66
-133.99
-118.21
-97.15
-73.25
-48.94
-26.17
-6.15
10.52
23.74
33.64
40.49
44.66
46.74
47.46
47.7
48.23
49.6
51.95
55.02
58.29
61.13
63.07
63.84
63.36
61.72
59.03
55.39
50.9
45.66
39.81
33.44
26.58
19.1
10.86
1.77
-8.09
-18.41
-28.77
-38.81
-48.32
-57.39
-66.38
-75.87
-86.5
-98.75
-112.55
-127.03
-140.4
-150.22
-154.08
-150.27
-138.41
-119.6
-96.03
-70.3
-44.76
-21.02
0.02
18.03
32.89
44.59
53.16
58.86
62.24
64.11
65.33
66.59
68.18
70.03
71.89
73.5
74.77
75.74
76.45
76.74
76.24
74.51
71.21
66.31
60.09
53.02
45.57
38.0
30.39
22.67
14.73
6.52
-1.89
-10.33
-18.62
-26.67
-34.56
-42.59
-51.26
-61.17
-72.82
-86.39
-101.49
-116.95
-130.91
-141.02
-145.06
-141.48
-130.0
-111.69
-88.7
-63.63
-38.82
-15.91
4.25
21.43
35.57
46.68
54.8
60.11
63.11
64.55
65.29
66.02
67.12
68.59
70.21
71.72
72.97
73.89
74.48
74.63
74.1
72.56
69.75
65.6
60.28
54.27
48.03
41.92
36.03
30.19
24.07
17.39
10.04
2.18
-5.84
-13.63
-20.98
-28.01
-35.2
-43.26
-52.85
-64.3
-77.37
-91.08
-103.74
-113.22
-117.37
-114.67
-104.67
-88.28
-67.54
-45.06
-23.26
-3.79
12.67
26.16
36.97
45.28
51.05
54.27
55.18
54.51
53.28
52.45
52.64
53.92
55.92
58.06
59.82
60.83
60.94
60.13
58.41
55.81
52.35
48.08
43.03
37.21
30.57
23.04
14.62
5.49
-3.99
-13.29
-21.92
-29.65
-36.66
-43.57
-51.22
-60.41
-71.62
-84.81
-99.28
-113.67
-126.11
-134.41
-136.6
-131.42
-118.72
-99.67
-76.43
-51.61
-27.57
-5.9
12.65
27.93
40.11
49.41
56.02
60.26
62.65
63.9
64.74
65.76
67.2
69.0
70.86
72.42
73.43
73.8
73.56
72.77
71.38
69.17
65.81
61.05
54.87
47.6
39.83
32.17
24.95
18.15
11.41
4.3
-3.44
-11.73
-20.26
-28.64
-36.77
-44.84
-53.44
-63.27
-74.96
-88.78
-104.44
-120.87
-136.26
-148.27
-154.44
-152.95
-143.09
-125.67
-102.68
-76.82
-50.6
-25.84
-3.45
16.3
33.36
47.6
58.76
66.74
71.76
74.47
75.87
76.87
78.12
79.75
81.52
83.01
83.85
83.92
83.36
82.36
81.05
79.26
76.62
72.66
67.11
60.1
52.18
44.16
36.75
30.25
24.43
18.71
12.47
5.31
-2.73
-11.3
-19.88
-28.07
-35.73
-43.05
-50.49
-58.77
-68.63
-80.58
-94.63
-109.96
-124.8
-136.71
-143.08
-141.88
-132.3
-115.07
-92.22
-66.49
-40.53
-16.31
5.13
23.43
38.56
50.56
59.4
65.18
68.33
69.63
70.06
70.48
71.41
72.95
74.86
76.79
78.49
79.76
80.48
80.48
79.52
77.35
73.81
68.94
63.02
56.54
49.98
43.69
37.72
31.8
25.52
18.54
10.91
2.98
-4.71
-11.79
-18.32
-24.76
-31.84
-40.26
-50.44
-62.43
-75.74
-89.3
-101.42
-109.93
-112.66
-108.06
-95.82
-77.14
-54.42
-30.56
-8.05
11.48
27.43
39.87
49.1
55.4
59.04
60.4
60.07
58.88
57.71
57.2
57.62
58.85
60.47
61.97
62.95
63.19
62.62
61.23
58.95
55.67
51.32
45.89
39.61
32.78
25.71
18.56
11.32
3.88
-3.82
-11.69
-19.55
-27.2
-34.58
-41.84
-49.31
-57.47
-66.75
-77.47
-89.6
-102.65
-115.45
-126.27
-133.06
-133.93
-127.76
-114.58
-95.62
-73.03
-49.21
-26.23
-5.47
12.43
27.34
39.32
48.46
54.9
58.92
61.04
61.96
62.35
62.74
63.42
64.42
65.63
66.88
68.01
68.82
69.14
68.71
67.26
64.53
60.36
54.72
47.89
40.41
32.95
26.08
20.0
14.46
8.91
2.75
-4.27
-12.0
-19.99
-27.75
-35.04
-42.01
-49.16
-57.19
-66.75
-78.21
-91.41
-105.46
-118.65
-128.7
-133.3
-130.74
-120.57
-103.85
-82.73
-59.84
-37.49
-17.09
0.84
16.34
29.5
40.16
48.03
52.91
55.12
55.45
55.05
54.93
55.62
57.06
58.8
60.33
61.41
62.09
62.56
62.84
62.7
61.66
59.28
55.39
50.2
44.24
38.16
32.42
27.15
22.15
17.03
11.45
5.23
-1.53
-8.52
-15.37
-21.81
-27.8
-33.57
-39.63
-46.61
-55.1
-65.4
-77.32
-90.01
-101.92
-110.98
-115.09
-112.65
-103.13
-87.3
-67.03
-44.81
-22.98
-3.3
13.33
26.7
36.99
44.46
49.38
52.03
52.83
52.4
51.52
50.86
50.85
51.56
52.77
54.17
55.43
56.36
56.83
56.67
55.63
53.47
50.03
45.41
39.91
34.02
28.18
22.66
17.45
12.29
6.81
0.73
-6.03
-13.29
-20.63
-27.69
-34.32
-40.75
-47.6
-55.61
-65.37
-76.97
-89.79
-102.43
-112.96
-119.25
-119.53
-112.91
-99.7
-81.33
-59.96
-37.85
-16.79
2.15
18.5
32.1
42.74
50.21
54.4
55.52
54.25
51.62
48.76
46.52
45.39
45.39
46.21
47.42
48.61
49.53
50.06
50.14
49.62
48.24
45.68
41.75
36.54
30.49
24.23
18.31
12.98
8.01
2.97
-2.66
-9.13
-16.33
-23.92
-31.45
-38.6
-45.32
-51.84
-58.59
-66.2
-75.27
-86.11
-98.58
-111.75
-123.93
-132.82
-136.19
-132.43
-121.21
-103.6
-81.83
-58.56
-36.13
-16.0
1.27
15.76
27.73
37.27
44.36
48.97
51.39
52.31
52.62
53.12
54.26
56.04
58.07
59.91
61.25
62.03
62.39
62.49
62.31
61.59
59.91
56.85
52.28
46.42
39.81
33.12
26.86
21.27
16.23
11.35
6.15
0.24
-6.54
-14.1
-22.09
-30.08
-37.74
-45.01
-52.17
-59.79
-68.51
-78.82
-90.9
-104.41
-118.42
-131.45
-141.52
-146.55
-144.86
-135.73
-119.71
-98.59
-74.79
-50.74
-28.22
-8.17
9.11
23.59
35.26
44.02
49.9
53.25
54.81
55.62
56.67
58.58
61.5
65.11
68.84
72.15
74.78
76.64
77.77
78.12
77.42
75.31
71.51
66.05
59.38
52.24
45.39
39.24
33.79
28.62
23.12
16.77
9.39
1.2
-7.32
-15.6
-23.3
-30.41
-37.33
-44.75
-53.37
-63.74
-75.94
-89.45
-102.99
-114.67
-122.22
-123.58
-117.49
-103.99
-84.48
-61.38
-37.4
-14.84
4.87
21.14
33.97
43.57
50.16
53.97
55.45
55.3
54.41
53.67
53.74
54.9
57.03
59.74
62.55
65.03
66.89
67.97
68.19
67.39
65.33
61.75
56.54
49.89
42.31
34.48
27.03
20.23
13.98
7.86
1.42
-5.64
-13.27
-21.2
-29.03
-36.48
-43.49
-50.35
-57.61
-66.01
-76.28
-88.77
-103.2
-118.41
-132.39
-142.62
-146.65
-142.83
-130.86
-111.93
-88.36
-62.91
-37.95
-15.01
5.31
22.98
38.01
50.26
59.43
65.35
68.32
69.19
69.11
69.19
70.07
71.78
73.92
75.9
77.28
77.92
77.88
77.26
76.06
74.03
70.89
66.42
60.65
53.91
46.75
39.66
32.99
26.75
20.71
14.45
7.61
-0.08
-8.59
-17.63
-26.74
-35.47
-43.64
-51.43
-59.42
-68.37
-78.99
-91.63
-106.03
-121.19
-135.36
-146.27
-151.58
-149.46
-139.16
-121.32
-97.87
-71.47
-44.81
-19.95
1.94
20.47
35.72
47.86
57.05
63.45
67.42
69.53
70.56
71.31
72.38
74.09
76.37
78.98
81.53
83.71
85.3
86.21
86.3
85.36
83.1
79.17
73.47
66.2
57.99
49.65
41.89
35.06
28.97
23.07
16.73
9.54
1.47
-7.15
-15.85
-24.23
-32.18
-39.91
-47.97
-57.05
-67.71
-80.21
-94.13
-108.35
-121.02
-129.94
-132.98
-128.7
-116.69
-97.81
-74.01
-47.83
-21.89
1.74
21.78
37.76
49.8
58.27
63.68
66.51
67.37
66.95
66.03
65.3
65.27
66.14
67.86
70.14
72.62
74.81
76.22
76.35
74.88
71.66
66.83
60.74
53.87
46.64
39.34
32.03
24.64
17.04
9.15
1.04
-7.1
-15.06
-22.7
-30.05
-37.38
-45.15
-53.93
-64.29
-76.53
-90.44
-105.05
-118.56
-128.52
-132.48
-128.71
-116.8
-97.92
-74.43
-49.16
-24.59
-2.36
16.8
32.79
45.74
55.76
62.94
67.45
69.69
70.36
70.26
70.17
70.62
71.8
73.56
75.51
77.23
78.35
78.67
78.02
76.3
73.32
68.95
63.16
56.18
48.47
40.58
32.94
25.66
18.52
11.09
2.99
-5.85
-15.23
-24.65
-33.65
-41.99
-49.84
-57.79
-66.71
-77.44
-90.46
-105.46
-121.25
-135.71
-146.25
-150.37
-146.39
-133.95
-114.22
-89.55
-62.87
-36.85
-13.35
6.8
23.58
37.31
48.28
56.54
62.09
65.04
65.89
65.48
64.73
64.38
64.68
65.49
66.42
67.09
67.31
67.12
66.57
65.67
64.19
61.81
58.26
53.44
47.6
41.25
34.92
28.97
23.38
17.82
11.79
4.94
-2.74
-10.9
-19.05
-26.8
-34.05
-41.08
-48.47
-56.93
-67.07
-79.16
-92.82
-106.88
-119.39
-127.96
-130.4
-125.33
-112.67
-93.71
-70.7
-46.19
-22.44
-0.98
17.46
32.72
44.93
54.26
60.89
65.01
66.98
67.41
67.1
66.87
67.27
68.51
70.44
72.68
74.81
76.49
77.45
77.44
76.19
73.43
69.07
63.23
56.25
48.64
40.85
33.2
25.77
18.42
10.96
3.32
-4.46
-12.2
-19.78
-27.23
-34.84
-43.13
-52.67
-63.87
-76.74
-90.66
-104.3
-115.68
-122.56
-122.94
-115.71
-101.06
-80.6
-56.84
-32.53
-9.9
9.74
25.95
38.85
48.7
55.74
60.22
62.54
63.34
63.37
63.42
63.94
65.08
66.65
68.33
69.76
70.72
71.04
70.63
69.39
67.16
63.76
59.04
52.95
45.7
37.67
29.43
21.46
14.04
7.12
0.4
-6.43
-13.59
-21.08
-28.77
-36.54
-44.42
-52.65
-61.57
-71.61
-83.08
-96.0
-109.89
-123.56
-135.1
-142.22
-142.8
-135.67
-121.07
-100.63
-76.89
-52.47
-29.37
-8.65
9.37
24.7
37.31
47.01
53.67
57.42
58.86
58.94
58.69
58.87
59.78
61.26
62.88
64.25
65.15
65.58
65.61
65.24
64.26
62.33
59.11
54.41
48.37
41.42
34.19
27.24
20.96
15.33
10.03
4.56
-1.5
-8.32
-15.72
-23.25
-30.46
-37.1
-43.27
-49.44
-56.24
-64.37
-74.35
-86.33
-99.89
-113.81
-126.13
-134.41
-136.42
-130.78
-117.55
-98.21
-75.23
-51.29
-28.58
-8.39
8.79
23.02
34.52
43.45
49.99
54.4
57.15
58.92
60.44
62.22
64.5
67.14
69.86
72.37
74.48
76.15
77.29
77.74
77.21
75.39
72.11
67.47
61.82
55.65
49.44
43.44
37.66
31.87
25.79
19.23
12.19
4.9
-2.31
-9.19
-15.75
-22.31
-29.42
-37.69
-47.58
-59.2
-72.18
-85.48
-97.46
-106.09
-109.33
-105.83
-95.43
-79.22
-59.38
-38.37
-18.35
-0.7
13.97
25.59
34.19
39.87
42.83
43.49
42.59
41.03
39.63
38.94
39.16
40.14
41.6
43.21
44.74
46.04
47.04
47.6
47.5
46.39
43.94
40.01
34.76
28.63
22.17
15.81
9.66
3.58
-2.73
-9.48
-16.66
-24.02
-31.25
-38.06
-44.45
-50.68
-57.34
-65.16
-74.81
-86.5
-99.77
-113.31
-125.12
-132.93
-134.72
-129.31
-116.68
-98.1
-75.74
-52.13
-29.51
-9.32
7.87
22.08
33.59
42.53
48.89
52.72
54.42
54.79
54.87
55.54
57.18
59.59
62.24
64.5
66.02
66.68
66.53
65.65
64.03
61.53
57.98
53.31
47.59
41.12
34.4
27.9
21.92
16.41
10.97
5.05
-1.77
-9.58
-18.05
-26.64
-34.87
-42.53
-49.8
-57.17
-65.37
-75.12
-86.93
-100.76
-115.7
-129.95
-140.99
-146.31
-144.13
-133.99
-116.87
-94.89
-70.59
-46.32
-23.77
-3.88
12.95
26.69
37.38
45.16
50.32
53.37
55.02
56.09
57.3
59.02
61.24
63.63
65.77
67.32
68.19
68.48
68.28
67.55
66.03
63.35
59.18
53.51
46.67
39.35
32.33
26.19
21.1
16.71
12.34
7.29
1.2
-5.83
-13.36
-20.9
-28.16
-35.19
-42.33
-50.04
-58.74
-68.76
-80.13
-92.41
-104.55
-114.76
-120.87
-120.94
-113.9
-99.97
-80.64
-58.18
-34.92
-12.74
7.21
24.38
38.54
49.53
57.27
61.73
63.22
62.44
60.44
58.39
57.27
57.57
59.21
61.7
64.35
66.57
67.97
68.29
67.35
64.98
61.07
55.71
49.19
41.96
34.48
27.02
19.65
12.21
4.56
-3.41
-11.57
-19.63
-27.27
-34.32
-40.92
-47.52
-54.92
-63.89
-74.9
-87.82
-101.64
-114.68
-124.66
-129.33
-126.95
-116.84
-99.68
-77.35
-52.46
-27.65
-5.04
14.18
29.61
41.41
49.94
55.61
58.83
60.12
60.17
59.74
59.51
59.91
61.02
62.64
64.45
66.13
67.44
68.21
68.25
67.37
65.34
62.01
57.37
51.61
45.12
38.33
31.54
24.85
18.11
11.06
3.47
-4.71
-13.32
-21.98
-30.25
-37.84
-44.8
-51.61
-59.11
-68.26
-79.7
-93.42
-108.45
-122.84
-134.01
-139.36
-137.0
-126.31
-108.19
-84.78
-58.91
-33.28
-9.87
10.37
27.3
41.26
52.56
61.38
67.79
72.0
74.54
76.2
77.8
79.79
82.16
84.53
86.36
87.33
87.46
87.04
86.38
85.6
84.44
82.4
78.96
73.79
67.0
59.13
50.97
43.24
36.31
30.07
23.91
17.17
9.37
0.54
-8.85
-18.14
-26.79
-34.71
-42.26
-50.14
-59.16
-69.94
-82.64
-96.81
-111.22
-123.94
-132.71
-135.48
-130.92
-118.91
-100.56
-77.92
-53.44
-29.34
-7.31
11.71
27.36
39.65
48.77
54.98
58.66
60.4
60.94
61.1
61.58
62.75
64.6
66.83
69.03
70.89
72.29
73.2
73.58
73.23
71.83
69.05
64.74
59.06
52.53
45.81
39.54
34.01
29.12
24.38
19.25
13.37
6.73
-0.35
-7.43
-14.19
-20.66
-27.19
-34.37
-42.82
-53.05
-65.24
-79.07
-93.54
-106.9
-116.91
-121.29
-118.42
-107.85
-90.57
-68.67
-44.82
-21.5
-0.49
17.24
31.39
42.04
49.36
53.57
55.08
54.58
52.99
51.31
50.34
50.43
51.46
53.03
54.67
56.08
57.13
57.79
57.96
57.42
55.88
53.03
48.7
42.95
36.07
28.53
20.86
13.5
6.59
-0.02
-6.7
-13.86
-21.63
-29.81
-37.94
-45.59
-52.66
-59.47
-66.72
-75.27
-85.71
-98.2
-112.16
-126.27
-138.54
-146.65
-148.41
-142.48
-128.73
-108.41
-83.86
-57.79
-32.6
-9.93
9.5
25.61
38.61
48.72
56.06
60.84
63.48
64.67
65.27
66.05
67.46
69.51
71.89
74.22
76.25
77.97
79.45
80.71
81.47
81.19
79.22
75.12
68.96
61.34
53.27
45.82
39.68
34.89
30.83
26.46
20.8
13.29
4.1
-6.09
-16.39
-26.18
-35.37
-44.42
-54.09
-65.16
-78.05
-92.59
-107.88
-122.29
-133.7
-139.85
-139.0
-130.39
-114.58
-93.4
-69.38
-45.11
-22.63
-3.12
13.02
25.89
35.74
42.82
47.4
49.9
50.94
51.34
51.92
53.23
55.4
58.11
60.84
63.09
64.64
65.52
65.9
65.84
65.14
63.37
60.13
55.26
49.0
41.94
34.78
28.02
21.81
15.97
10.15
4.1
-2.24
-8.67
-14.9
-20.66
-25.93
-30.91
-36.11
-42.22
-49.91
-59.68
-71.51
-84.63
-97.51
-107.98
-113.71
-112.83
-104.51
-89.29
-68.93
-45.95
-22.93
-1.85
16.18
30.85
42.36
51.0
56.95
60.33
61.36
60.58
58.84
57.13
56.28
56.67
58.22
60.39
62.5
63.92
64.18
62.98
60.12
55.49
49.14
41.39
32.85
24.25
16.23
9.08
2.6
-3.66
-10.17
-17.15
-24.44
-31.62
-38.32
-44.38
-50.06
-55.94
-62.78
-71.28
-81.84
-94.28
-107.65
-120.17
-129.43
-132.99
-129.1
-117.26
-98.5
-75.13
-49.97
-25.64
-3.95
14.31
29.16
40.98
50.13
56.82
61.17
63.41
64.01
63.7
63.23
63.13
63.56
64.34
65.13
65.61
65.62
65.09
63.91
61.86
58.65
54.05
48.06
41.0
33.34
25.56
17.93
10.41
2.79
-5.16
-13.5
-22.05
-30.41
-38.24
-45.38
-52.09
-58.95
-66.74
-76.22
-87.84
-101.49
-116.28
-130.49
-141.75
-147.54
-145.94
-136.24
-119.27
-97.14
-72.59
-48.17
-25.69
-6.04
10.59
24.28
35.14
43.25
48.77
52.12
53.96
55.1
56.32
58.06
60.43
63.21
65.93
68.15
69.55
70.0
69.54
68.22
66.04
62.92
58.8
53.75
48.03
42.0
35.98
30.07
24.11
17.87
11.15
4.01
-3.33
-10.56
-17.44
-23.96
-30.39
-37.19
-44.97
-54.3
-65.44
-78.06
-90.98
-102.24
-109.45
-110.53
-104.33
-91.12
-72.54
-51.02
-29.08
-8.66
9.15
24.02
36.03
45.31
51.9
55.81
57.23
56.69
55.07
53.33
52.25
52.16
52.88
53.92
54.7
54.76
53.91
52.18
49.72
46.69
43.24
39.4
35.07
30.08
24.21
17.34
9.63
1.49
-6.51
-13.85
-20.3
-26.05
-31.62
-37.74
-45.16
-54.39
-65.53
-78.04
-90.69
-101.52
-108.3
-109.02
-102.6
-89.25
-70.54
-48.86
-26.76
-6.3
11.37
25.94
37.58
46.62
53.27
57.67
59.97
60.58
60.11
59.31
58.83
59.07
60.02
61.37
62.58
63.16
62.78
61.36
58.99
55.87
52.18
47.98
43.21
37.73
31.44
24.39
16.78
8.92
1.1
-6.47
-13.74
-20.78
-27.8
-35.13
-43.2
-52.55
-63.57
-76.26
-89.91
-102.97
-113.28
-118.54
-117.06
-108.23
-92.84
-72.77
-50.47
-28.28
-7.87
9.86
24.7
36.76
46.24
53.29
58.03
60.78
62.05
62.47
62.68
63.06
63.69
64.43
65.06
65.39
65.31
64.77
63.64
61.76
58.96
55.11
50.26
44.6
38.43
32.09
25.8
19.61
13.36
6.79
-0.36
-8.13
-16.35
-24.63
-32.54
-39.8
-46.48
-52.96
-59.89
-67.99
-77.76
-89.24
-101.75
-113.8
-123.26
-127.87
-125.82
-116.45
-100.46
-79.75
-56.82
-34.01
-12.97
5.47
21.09
33.92
43.96
51.15
55.55
57.51
57.77
57.28
56.97
57.43
58.78
60.72
62.79
64.54
65.74
66.28
66.1
64.99
62.64
58.82
53.56
47.27
40.64
34.32
28.67
23.68
18.93
13.97
8.46
2.3
-4.36
-11.26
-18.13
-24.84
-31.47
-38.38
-46.11
-55.22
-65.91
-77.77
-89.56
-99.31
-104.85
-104.33
-96.93
-83.04
-64.24
-42.82
-21.16
-1.16
16.0
29.83
40.32
47.64
52.06
53.92
53.76
52.38
50.64
49.33
48.9
49.44
50.77
52.53
54.37
55.89
56.72
56.43
54.74
51.53
46.95
41.42
35.36
29.11
22.8
16.35
9.63
2.55
-4.8
-12.26
-19.61
-26.73
-33.61
-40.41
-47.44
-55.13
-63.94
-74.24
-86.08
-98.99
-111.76
-122.47
-128.84
-128.79
-121.16
-106.13
-85.33
-61.33
-36.84
-14.04
5.9
22.64
36.33
47.17
55.25
60.57
63.34
64.15
63.87
63.43
63.55
64.47
66.05
67.87
69.51
70.69
71.28
71.16
70.16
67.99
64.36
59.19
52.71
45.48
38.15
31.18
24.66
18.31
11.66
4.33
-3.74
-12.27
-20.79
-28.8
-36.1
-42.78
-49.35
-56.62
-65.48
-76.59
-89.95
-104.62
-118.69
-129.55
-134.59
-131.95
-121.11
-103.08
-80.11
-55.0
-30.36
-8.03
11.1
26.88
39.61
49.57
56.93
61.8
64.39
65.14
64.66
63.63
62.55
61.63
60.92
60.33
59.81
59.36
59.0
58.62
57.89
56.36
53.54
49.13
43.18
36.16
28.75
21.59
15.04
8.98
2.96
-3.59
-10.93
-18.93
-27.1
-34.88
-41.95
-48.41
-54.77
-61.8
-70.17
-80.36
-92.33
-105.42
-118.16
-128.44
-133.83
-132.29
-122.82
-105.86
-83.31
-57.85
-32.24
-8.63
11.81
28.7
42.17
52.46
59.71
64.02
65.55
64.76
62.5
59.82
57.75
56.99
57.64
59.28
61.13
62.39
62.5
61.26
58.76
55.26
50.98
46.08
40.6
34.56
27.94
20.74
13.02
4.93
-3.31
-11.4
-19.17
-26.56
-33.75
-41.11
-49.09
-58.16
-68.63
-80.51
-93.18
-105.35
-115.03
-120.03
-118.43
-109.37
-93.28
-71.89
-47.71
-23.28
-0.69
18.76
34.48
46.4
54.71
59.75
61.97
62.01
60.67
58.84
57.36
56.84
57.49
59.08
61.09
62.9
63.99
64.06
63.02
60.91
57.81
53.75
