0
-60.15
-53.02
-41.84
-28.16
-13.86
-0.64
10.42
18.87
24.81
28.48
30.12
29.96
28.29
25.69
22.98
21.07
20.61
21.81
24.26
27.14
29.55
30.81
30.68
29.38
27.35
25.02
22.58
20.02
17.1
13.6
9.39
4.56
-0.63
-5.77
-10.49
-14.53
-17.94
-21.02
-24.3
-28.39
-33.8
-40.81
-49.28
-58.56
-67.41
-74.19
-77.17
-75.03
-67.37
-54.95
-39.53
-23.35
-8.48
3.83
13.24
20.11
25.07
28.57
30.8
31.74
31.53
30.57
29.52
29.08
29.67
31.29
33.52
35.77
37.47
38.26
37.99
36.66
34.38
31.32
27.72
23.82
19.84
15.84
11.77
7.5
2.97
-1.77
-6.54
-11.08
-15.28
-19.14
-22.86
-26.73
-31.06
-36.17
-42.31
-49.59
-57.76
-65.97
-72.78
-76.44
-75.42
-68.99
-57.66
-43.01
-27.21
-12.29
0.39
10.37
17.78
22.95
26.11
27.36
26.86
25.1
22.96
21.44
21.33
22.86
25.64
28.82
31.53
33.17
33.59
33.04
31.89
30.4
28.58
26.23
23.06
18.89
13.79
8.15
2.54
-2.46
-6.46
-9.46
-11.91
-14.5
-17.94
-22.73
-29.05
-36.62
-44.75
-52.4
-58.19
-60.73
-58.91
-52.28
-41.35
-27.55
-12.76
1.15
12.93
22.03
28.5
32.59
34.57
34.63
33.07
30.46
27.66
25.57
24.86
25.76
27.94
30.75
33.43
35.42
36.41
36.33
35.26
33.35
30.76
27.64
24.11
20.23
15.94
11.21
6.03
0.53
-4.97
-10.09
-14.55
-18.3
-21.59
-24.88
-28.73
-33.62
-39.87
-47.52
-56.2
-65.01
-72.48
-76.86
-76.54
-70.66
-59.53
-44.62
-28.09
-12.1
1.8
12.93
21.33
27.36
31.43
33.73
34.46
33.95
32.74
31.52
30.9
31.25
32.6
34.69
37.11
39.46
41.44
42.89
43.72
43.81
43.05
41.3
38.53
34.83
30.44
25.63
20.62
15.52
10.34
5.11
-0.11
-5.13
-9.75
-13.84
-17.45
-20.83
-24.33
-28.43
-33.6
-40.23
-48.32
-57.38
-66.21
-73.08
-76.16
-74.1
-66.53
-54.25
-39.01
-22.95
-7.96
4.73
14.7
22.03
27.04
29.97
30.99
30.28
28.25
25.64
23.36
22.23
22.66
24.54
27.27
30.01
32.04
32.98
32.88
32.04
30.82
29.38
27.61
25.17
21.76
17.31
12.09
6.62
1.47
-2.91
-6.46
-9.43
-12.29
-15.56
-19.66
-24.87
-31.27
-38.66
-46.42
-53.47
-58.42
-59.84
-56.72
-48.92
-37.24
-23.25
-8.87
4.18
14.81
22.56
27.59
30.23
30.9
29.88
27.51
24.33
21.1
18.75
18.02
19.21
21.93
25.33
28.34
30.13
30.39
29.34
27.48
25.26
22.86
20.14
16.81
12.63
7.58
1.9
-3.95
-9.52
-14.44
-18.57
-22.01
-25.1
-28.32
-32.19
-37.18
-43.59
-51.37
-59.94
-68.18
-74.5
-77.23
-75.12
-67.75
-55.76
-40.7
-24.57
-9.27
3.85
14.12
21.52
26.37
29.08
30.12
29.88
28.79
27.38
26.22
25.87
26.68
28.71
31.67
35.0
38.07
40.36
41.57
41.62
40.59
38.58
35.71
32.13
28.05
23.68
19.22
14.77
10.32
5.8
1.17
-3.5
-8.08
-12.42
-16.5
-20.41
-24.44
-28.93
-34.28
-40.81
-48.59
-57.25
-65.81
-72.68
-76.0
-74.26
-66.86
-54.5
-39.04
-22.85
-8.03
4.16
13.44
20.16
24.76
27.47
28.33
27.48
25.4
23.0
21.36
21.23
22.81
25.64
28.92
31.81
33.76
34.63
34.55
33.82
32.64
31.1
29.14
26.59
23.28
19.12
14.12
8.54
2.82
-2.54
-7.15
-10.88
-13.98
-17.0
-20.58
-25.29
-31.39
-38.67
-46.5
-53.8
-59.25
-61.49
-59.55
-53.15
-42.86
-29.97
-16.15
-2.96
8.48
17.57
24.14
28.21
29.89
29.43
27.3
24.27
21.32
19.39
19.06
20.39
22.94
25.94
28.57
30.29
30.93
30.64
29.69
28.33
26.54
24.12
20.78
16.29
10.66
4.26
-2.33
-8.43
-13.57
-17.64
-20.96
-24.16
-27.94
-32.95
-39.46
-47.4
-56.15
-64.6
-71.24
-74.42
-72.82
-65.88
-54.1
-39.01
-22.73
-7.38
5.61
15.57
22.61
27.17
29.72
30.53
29.88
28.12
25.93
24.18
23.67
24.81
27.46
30.93
34.28
36.68
37.65
37.24
35.83
33.94
31.96
29.94
27.65
24.71
20.79
15.81
10.04
3.99
-1.73
-6.67
-10.74
-14.15
-17.36
-20.92
-25.31
-30.9
-37.85
-46.02
-54.79
-63.0
-68.99
-71.03
-67.85
-59.16
-45.94
-30.16
-14.1
0.32
12.04
20.84
27.04
30.99
32.93
33.01
31.52
29.13
26.78
25.46
25.84
27.98
31.34
35.02
38.08
39.92
40.37
39.62
38.12
36.25
34.18
31.84
28.91
25.08
20.21
14.45
8.24
2.19
-3.22
-7.77
-11.61
-15.21
-19.14
-23.91
-29.77
-36.71
-44.34
-51.94
-58.42
-62.48
-62.86
-58.72
-50.01
-37.59
-23.03
-8.19
5.27
16.27
24.28
29.25
31.32
30.8
28.22
24.46
20.63
17.92
17.1
18.35
21.13
24.49
27.45
29.4
30.2
30.11
29.48
28.51
27.08
24.83
21.4
16.63
10.79
4.45
-1.64
-6.95
-11.33
-15.09
-18.88
-23.42
-29.22
-36.38
-44.47
-52.51
-59.12
-62.83
-62.39
-57.23
-47.63
-34.76
-20.31
-6.09
6.51
16.71
24.35
29.59
32.63
33.64
32.81
30.52
27.47
24.68
23.14
23.45
25.62
28.97
32.5
35.22
36.53
36.35
35.0
32.87
30.24
27.1
23.29
18.6
13.07
6.97
0.76
-5.01
-9.98
-14.05
-17.47
-20.78
-24.64
-29.66
-36.22
-44.3
-53.31
-62.19
-69.44
-73.46
-72.99
-67.45
-57.24
-43.65
-28.47
-13.56
-0.24
10.77
19.36
25.69
29.96
32.31
32.89
32.07
30.53
29.11
28.64
29.58
31.84
34.84
37.75
39.82
40.65
40.29
39.08
37.44
35.58
33.36
30.44
26.43
21.24
15.09
8.54
2.25
-3.3
-7.89
-11.65
-14.99
-18.46
-22.64
-28.06
-34.96
-43.16
-51.93
-59.97
-65.67
-67.48
-64.41
-56.39
-44.38
-30.04
-15.33
-1.88
9.29
17.84
23.87
27.7
29.62
29.89
28.86
27.11
25.41
24.52
24.94
26.68
29.31
32.07
34.29
35.55
35.8
35.26
34.13
32.45
29.98
26.44
21.62
15.7
9.2
2.88
-2.65
-7.09
-10.64
-13.85
-17.45
-22.02
-27.93
-35.14
-43.17
-51.05
-57.36
-60.47
-59.0
-52.37
-41.11
-26.77
-11.47
2.8
14.68
23.59
29.55
32.8
33.63
32.38
29.57
26.12
23.12
21.53
21.83
23.79
26.67
29.49
31.52
32.39
32.19
31.15
29.49
27.23
24.19
20.14
15.01
9.03
2.63
-3.64
-9.31
-14.2
-18.48
-22.58
-27.11
-32.6
-39.32
-47.08
-55.12
-62.16
-66.68
-67.32
-63.3
-54.75
-42.64
-28.56
-14.21
-1.0
10.22
19.16
25.81
30.31
32.76
33.31
32.27
30.24
28.06
26.61
26.51
27.87
30.28
32.94
35.05
36.08
35.9
34.77
33.02
30.87
28.31
25.12
21.08
16.14
10.55
4.78
-0.64
-5.34
-9.25
-12.65
-16.11
-20.22
-25.53
-32.24
-40.23
-48.84
-56.94
-63.03
-65.58
-63.46
-56.42
-45.2
-31.42
-17.08
-3.92
7.0
15.38
21.44
25.52
27.88
28.72
28.27
27.06
25.78
25.14
25.57
27.05
29.19
31.39
33.1
34.03
34.16
33.6
32.49
30.84
28.55
25.43
21.34
16.32
10.68
4.94
-0.32
-4.71
-8.2
-11.16
-14.28
-18.33
-23.85
-30.98
-39.21
-47.44
-54.15
-57.77
-57.09
-51.68
-42.06
-29.53
-15.82
-2.62
8.9
18.1
24.85
29.19
31.19
30.95
28.77
25.31
21.64
18.89
17.95
19.07
21.75
25.05
27.91
29.62
29.98
29.21
27.66
25.53
22.79
19.24
14.79
9.63
4.19
-0.99
-5.54
-9.41
-12.92
-16.62
-21.09
-26.69
-33.49
-41.13
-48.76
-55.14
-58.84
-58.6
-53.78
-44.63
-32.32
-18.57
-5.09
6.82
16.53
23.9
29.04
32.06
33.02
32.14
29.91
27.16
24.86
23.8
24.33
26.24
28.89
31.44
33.17
33.73
33.12
31.65
29.74
27.63
25.32
22.52
18.9
14.27
8.79
2.96
-2.6
-7.32
-11.05
-14.02
-16.82
-20.1
-24.45
-30.17
-37.31
-45.51
-54.03
-61.65
-66.85
-68.12
-64.49
-55.9
-43.4
-28.77
-14.04
-0.84
9.99
18.34
24.51
28.86
31.61
32.8
32.54
31.17
29.29
27.66
26.94
27.44
28.97
30.97
32.67
33.49
33.19
31.95
30.18
28.21
26.14
23.74
20.64
16.56
11.51
5.84
0.1
-5.18
-9.68
-13.33
-16.32
-19.0
-21.81
-25.19
-29.56
-35.16
-41.91
-49.3
-56.3
-61.46
-63.33
-60.85
-53.76
-42.81
-29.45
-15.47
-2.46
8.53
17.07
23.1
26.74
28.13
27.5
25.31
22.33
19.53
17.81
17.7
19.1
21.41
23.8
25.54
26.28
26.1
25.3
24.18
22.79
20.94
18.31
14.64
10.01
4.74
-0.59
-5.41
-9.38
-12.47
-15.01
-17.53
-20.64
-24.87
-30.5
-37.43
-45.05
-52.19
-57.35
-59.07
-56.43
-49.36
-38.76
-26.2
-13.4
-1.74
7.97
15.51
20.91
24.31
25.76
25.39
23.51
20.74
17.97
16.09
15.73
17.0
19.48
22.36
24.71
25.88
25.69
24.41
22.58
20.65
18.76
16.65
13.88
10.09
5.25
-0.24
-5.74
-10.62
-14.52
-17.49
-19.85
-22.17
-25.04
-28.93
-34.2
-40.91
-48.71
-56.65
-63.32
-67.06
-66.51
-61.02
-51.03
-37.92
-23.57
-9.83
2.02
11.37
18.28
23.05
26.03
27.49
27.63
26.73
25.28
23.9
23.23
23.68
25.29
27.69
30.28
32.42
33.7
34.03
33.52
32.38
30.69
28.4
25.42
21.74
17.48
12.93
8.38
4.03
-0.08
-4.02
-7.84
-11.53
-15.02
-18.21
-21.15
-24.06
-27.3
-31.38
-36.73
-43.56
-51.58
-59.84
-66.78
-70.58
-69.71
-63.59
-52.83
-39.15
-24.71
-11.42
-0.47
7.88
13.87
17.86
20.05
20.53
19.48
17.45
15.33
14.07
14.29
16.02
18.71
21.53
23.76
25.06
25.53
25.47
25.12
24.51
23.36
21.3
18.04
13.57
8.22
2.57
-2.72
-7.17
-10.58
-13.2
-15.53
-18.27
-22.0
-27.06
-33.36
-40.4
-47.33
-53.02
-56.27
-56.03
-51.73
-43.47
-32.12
-19.12
-6.15
5.37
14.54
21.01
24.86
26.35
25.8
23.6
20.34
16.88
14.17
13.01
13.72
15.99
18.99
21.77
23.57
24.07
23.42
21.94
19.88
17.26
13.94
9.73
4.69
-0.86
-6.4
-11.4
-15.59
-19.02
-22.09
-25.33
-29.34
-34.54
-41.11
-48.82
-56.97
-64.35
-69.43
-70.81
-67.64
-59.95
-48.75
-35.6
-22.16
-9.69
1.16
10.16
17.3
22.5
25.62
26.7
26.09
24.53
22.97
22.25
22.87
24.79
27.49
30.23
32.28
33.22
32.99
31.82
30.06
27.95
25.49
22.43
18.5
13.6
7.95
2.09
-3.36
-7.92
-11.54
-14.55
-17.6
-21.41
-26.51
-33.14
-41.17
-50.05
-58.81
-66.17
-70.66
-71.03
-66.62
-57.6
-45.03
-30.53
-15.85
-2.4
9.01
18.02
24.64
28.93
31.03
31.23
30.08
28.35
26.85
26.22
26.73
28.21
30.25
32.33
33.98
34.89
34.89
33.9
31.91
28.93
25.02
20.32
15.05
9.56
4.31
-0.27
-3.97
-6.93
-9.73
-13.21
-18.12
-24.8
-32.89
-41.25
-48.25
-52.18
-51.74
-46.47
-36.82
-24.04
-9.82
4.14
16.49
26.37
33.36
37.44
38.83
38.0
35.66
32.7
30.05
28.49
28.39
29.61
31.6
33.6
35.0
35.48
35.07
34.0
32.45
30.39
27.6
23.76
18.78
12.85
6.53
0.46
-4.85
-9.27
-13.13
-17.05
-21.69
-27.53
-34.64
-42.56
-50.24
-56.25
-59.06
-57.51
-51.21
-40.77
-27.6
-13.51
-0.09
11.67
21.41
29.12
34.84
38.52
40.09
39.75
38.13
36.21
34.96
35.02
36.45
38.77
41.29
43.33
44.49
44.67
43.93
42.44
40.31
37.59
34.24
30.15
25.28
19.72
13.74
7.75
2.15
-2.83
-7.26
-11.5
-16.13
-21.67
-28.47
-36.48
-45.18
-53.56
-60.23
-63.79
-63.14
-57.92
-48.59
-36.39
-22.89
-9.57
2.48
12.68
20.83
26.89
30.84
32.72
32.76
31.47
29.6
27.99
27.28
27.7
29.05
30.83
32.51
33.69
34.24
34.17
33.52
32.22
30.06
26.82
22.41
17.02
11.11
5.27
0.03
-4.33
-7.92
-11.16
-14.67
-19.12
-24.91
-32.09
-40.1
-47.82
-53.75
-56.41
-54.77
-48.61
-38.68
-26.42
-13.52
-1.42
8.94
17.13
23.03
26.65
28.07
27.51
25.49
22.85
20.56
19.39
19.67
21.19
23.35
25.45
26.95
27.63
27.53
26.77
25.46
23.53
20.82
17.14
12.46
6.94
0.98
-4.89
-10.17
-14.63
-18.34
-21.72
-25.38
-29.96
-35.96
-43.48
-52.15
-61.02
-68.67
-73.48
-74.02
-69.63
-60.56
-48.03
-33.84
-19.74
-7.04
3.64
12.22
18.85
23.68
26.73
28.05
27.91
26.87
25.71
25.2
25.84
27.71
30.51
33.64
36.45
38.42
39.22
38.77
37.19
34.71
31.63
28.21
24.55
20.58
16.16
11.19
5.75
0.12
-5.32
-10.27
-14.68
-18.73
-22.89
-27.6
-33.3
-40.21
-48.33
-57.25
-66.14
-73.69
-78.35
-78.7
-74.0
-64.51
-51.44
-36.59
-21.75
-8.22
3.3
12.61
19.71
24.57
27.19
27.76
26.82
25.26
24.09
24.13
25.75
28.77
32.59
36.41
39.55
41.5
42.05
41.24
39.29
36.51
33.16
29.43
25.32
20.76
15.66
10.06
4.17
-1.65
-7.02
-11.76
-15.93
-19.85
-23.98
-28.76
-34.53
-41.47
-49.43
-57.96
-66.11
-72.48
-75.58
-74.15
-67.73
-56.79
-42.71
-27.26
-12.12
1.46
12.82
21.66
27.89
31.47
32.59
31.67
29.52
27.17
25.66
25.68
27.44
30.59
34.39
37.99
40.63
41.87
41.66
40.23
37.96
35.09
31.67
27.53
22.51
16.6
10.11
3.54
-2.6
-8.02
-12.77
-17.26
-22.01
-27.52
-34.17
-42.14
-51.3
-61.05
-70.25
-77.22
-80.18
-77.7
-69.38
-56.01
-39.45
-21.95
-5.54
8.56
19.95
28.76
35.31
39.79
42.3
43.0
42.33
40.98
39.77
39.41
40.26
42.32
45.21
48.35
51.08
52.9
53.47
52.71
50.72
47.72
43.92
39.52
34.65
29.48
24.14
18.75
13.34
7.85
2.17
-3.78
-9.89
-15.95
-21.74
-27.14
-32.33
-37.84
-44.37
-52.5
-62.33
-73.16
-83.42
-90.98
-93.74
-90.27
-80.36
-65.13
-46.63
-27.24
-9.04
6.67
19.34
29.01
35.91
40.29
42.37
42.47
41.13
39.13
37.39
36.72
37.57
39.85
43.07
46.43
49.17
50.74
50.91
49.71
47.36
44.14
40.32
36.14
31.74
27.17
22.35
17.19
11.61
5.67
-0.37
-6.19
-11.56
-16.42
-21.04
-25.86
-31.4
-38.13
-46.29
-55.73
-65.74
-75.01
-81.78
-84.19
-80.94
-71.73
-57.49
-40.11
-21.88
-4.81
9.77
21.28
29.65
35.0
37.52
37.43
35.26
31.88
28.47
26.2
25.85
27.58
30.82
34.59
37.85
39.89
40.5
39.87
38.41
36.38
33.83
30.58
26.37
21.07
14.78
7.88
0.9
-5.7
-11.59
-16.77
-21.5
-26.22
-31.43
-37.61
-45.08
-53.89
-63.67
-73.44
-81.63
-86.34
-85.86
-79.3
-67.0
-50.48
-32.0
-13.81
2.42
15.87
26.34
33.96
38.9
41.3
41.42
39.78
37.25
34.8
33.34
33.42
35.16
38.22
41.93
45.48
48.11
49.35
49.03
47.32
44.54
41.0
36.85
32.11
26.74
20.81
14.49
8.07
1.78
-4.23
-9.95
-15.44
-20.81
-26.15
-31.58
-37.37
-43.88
-51.55
-60.6
-70.75
-80.95
-89.46
-94.23
-93.52
-86.53
-73.73
-56.75
-37.87
-19.32
-2.78
10.9
21.57
29.49
34.98
38.36
39.82
39.65
38.31
36.53
35.13
34.89
36.18
38.85
42.24
45.4
47.48
48.05
47.2
45.38
43.07
40.53
37.64
34.02
29.35
23.6
17.11
10.52
4.38
-0.99
-5.64
-9.91
-14.29
-19.2
-24.97
-31.83
-39.85
-48.92
-58.44
-67.38
-74.16
-77.13
-74.97
-67.26
-54.7
-38.93
-22.11
-6.21
7.4
18.12
25.91
30.99
33.58
33.9
32.29
29.38
26.11
23.56
22.59
23.6
26.3
29.94
33.53
36.25
37.66
37.75
36.76
34.96
32.47
29.22
25.05
19.91
13.87
7.23
0.42
-6.1
-12.0
-17.15
-21.74
-26.24
-31.29
-37.53
-45.28
-54.31
-63.79
-72.26
-77.99
-79.37
-75.38
-65.97
-52.07
-35.43
-18.15
-2.1
11.47
22.08
29.84
35.08
38.1
39.11
38.33
36.22
33.55
31.29
30.27
30.88
32.94
35.79
38.56
40.55
41.43
41.23
40.16
38.42
36.06
32.94
28.92
23.98
18.26
12.06
5.74
-0.42
-6.22
-11.56
-16.43
-20.95
-25.35
-30.03
-35.46
-42.07
-50.04
-59.13
-68.53
-76.87
-82.5
-83.8
-79.69
-70.03
-55.78
-38.76
-21.2
-5.01
8.62
19.38
27.53
33.47
37.41
39.38
39.44
37.97
35.78
33.89
33.21
34.14
36.46
39.54
42.59
45.01
46.45
46.84
46.17
44.5
41.89
38.49
34.5
30.17
25.68
21.15
16.53
11.75
6.73
1.46
-3.98
-9.43
-14.68
-19.55
-23.98
-28.12
-32.35
-37.33
-43.64
-51.57
-60.8
-70.19
-77.99
-82.25
-81.46
-74.99
-63.39
-48.2
-31.43
-15.0
-0.35
11.73
20.96
27.33
30.94
31.95
30.71
27.87
24.37
21.33
19.73
20.14
22.49
26.05
29.8
32.76
34.39
34.7
34.05
32.85
31.26
29.05
25.84
21.39
15.78
9.48
3.11
-2.78
-7.96
-12.54
-16.79
-21.14
-25.99
-31.73
-38.61
-46.54
-54.94
-62.61
-67.9
-69.2
-65.43
-56.48
-43.41
-28.04
-12.41
1.78
13.56
22.63
29.13
33.28
35.28
35.27
33.59
30.85
27.89
25.65
24.81
25.6
27.75
30.58
33.26
35.07
35.6
34.84
33.08
30.72
28.03
25.03
21.49
17.06
11.57
5.17
-1.66
-8.27
-14.12
-19.05
-23.25
-27.2
-31.46
-36.58
-42.96
-50.82
-60.01
-69.87
-79.1
-85.87
-88.32
-85.11
-75.97
-61.93
-44.95
-27.39
-11.24
2.23
12.64
20.18
25.36
28.6
30.22
30.44
29.57
28.03
26.45
25.47
25.6
26.96
29.29
31.97
34.29
35.72
36.01
35.24
33.71
31.63
29.05
25.77
21.54
16.2
9.87
2.99
-3.84
-10.02
-15.24
-19.52
-23.21
-26.79
-30.77
-35.56
-41.45
-48.55
-56.69
-65.25
-73.11
-78.72
-80.5
-77.3
-68.87
-55.99
-40.36
-24.04
-8.93
3.7
13.34
20.06
24.26
26.38
26.77
25.77
23.88
21.77
20.24
19.96
21.18
23.64
26.7
29.58
31.73
32.95
33.29
32.91
31.74
29.48
25.76
20.38
13.57
5.98
-1.49
-8.04
-13.3
-17.45
-21.17
-25.36
-30.86
-38.11
-46.98
-56.64
-65.64
-72.15
-74.41
-71.27
-62.58
-49.3
-33.25
-16.52
-0.9
12.5
23.28
31.42
37.03
40.15
40.84
39.4
36.51
33.21
30.64
29.69
30.69
33.36
36.86
40.19
42.51
43.42
42.98
41.59
39.65
37.33
34.5
30.79
25.9
19.81
12.9
5.78
-0.91
-6.79
-11.78
-16.16
-20.39
-25.02
-30.61
-37.61
-46.18
-56.0
-66.1
-74.91
-80.5
-81.17
-75.98
-65.15
-50.02
-32.64
-15.19
0.61
13.79
24.1
31.73
36.98
40.14
41.45
41.23
39.99
38.48
37.52
37.77
39.44
42.21
45.32
47.9
49.29
49.33
48.32
46.78
45.07
43.12
40.48
36.59
31.07
24.05
16.15
8.22
1.05
-4.94
-9.79
-13.89
-17.87
-22.34
-27.83
-34.7
-42.99
-52.29
-61.62
-69.5
-74.18
-74.21
-68.85
-58.41
-44.16
-27.95
-11.66
3.25
15.9
25.87
33.03
37.29
38.75
37.74
34.97
31.47
28.35
26.51
26.39
27.87
30.36
33.1
35.39
36.8
37.25
36.82
35.6
33.5
30.29
25.67
19.65
12.59
5.22
-1.64
-7.44
-12.13
-16.16
-20.24
-25.08
-31.16
-38.57
-46.99
-55.62
-63.23
-68.24
-69.13
-64.87
-55.39
-41.72
-25.7
-9.42
5.45
17.91
27.71
34.94
39.79
42.33
42.68
41.16
38.43
35.42
33.14
32.35
33.32
35.79
39.08
42.25
44.48
45.21
44.31
42.03
38.86
35.29
31.57
27.64
23.29
18.2
12.28
5.74
-0.97
-7.32
-12.88
-17.59
-21.68
-25.66
-30.13
-35.66
-42.65
-51.25
-61.15
-71.43
-80.55
-86.55
-87.55
-82.4
-71.17
-55.21
-36.77
-18.31
-1.81
11.65
21.9
29.3
34.39
37.59
39.13
39.19
38.13
36.53
35.13
34.61
35.37
37.35
40.07
42.8
44.84
45.75
45.38
43.86
41.44
38.4
34.91
31.04
26.78
22.04
16.78
11.06
5.08
-0.78
-6.19
-10.94
-15.11
-19.04
-23.27
-28.31
-34.55
-42.11
-50.84
-60.14
-69.02
-76.02
-79.5
-78.07
-71.08
-58.97
-43.22
-25.93
-9.21
5.41
17.18
25.96
31.89
35.14
35.84
34.29
31.16
27.48
24.4
22.8
22.99
24.62
26.96
29.26
30.99
32.0
32.35
32.11
31.27
29.69
27.17
23.59
18.93
13.32
7.09
0.63
-5.6
-11.26
-16.21
-20.7
-25.26
-30.6
-37.33
-45.62
-54.98
-64.19
-71.48
-74.98
-73.31
-65.97
-53.63
-37.94
-21.02
-4.89
9.04
20.16
28.46
34.23
37.71
39.05
38.38
36.1
32.96
29.95
28.03
27.8
29.24
31.79
34.62
36.96
38.33
38.62
37.9
36.36
34.13
31.27
27.76
23.58
18.68
13.07
6.84
0.22
-6.35
-12.4
-17.58
-21.85
-25.56
-29.35
-33.94
-39.88
-47.41
-56.29
-65.76
-74.51
-80.85
-83.02
-79.78
-70.87
-57.26
-40.85
-23.93
-8.42
4.6
14.87
22.63
28.18
31.61
32.91
32.26
30.23
27.76
25.91
25.42
26.48
28.67
31.22
33.33
34.5
34.65
34.03
33.04
31.96
30.74
29.1
26.59
22.81
17.65
11.37
4.54
-2.15
-8.11
-13.13
-17.39
-21.38
-25.77
-31.13
-37.78
-45.66
-54.24
-62.46
-68.9
-72.03
-70.58
-64.02
-52.77
-38.17
-22.06
-6.33
7.59
18.87
27.24
32.75
35.53
35.85
34.12
31.07
27.68
24.98
23.75
24.21
26.03
28.46
30.71
32.19
32.7
32.28
31.11
29.3
26.78
23.42
19.1
13.87
7.96
1.87
-3.91
-9.0
-13.34
-17.3
-21.51
-26.75
-33.56
-42.0
-51.47
-60.68
-67.93
-71.45
-69.92
-62.89
-51.01
-35.87
-19.59
-4.14
9.14
19.73
27.73
33.51
37.25
38.99
38.7
36.66
33.58
30.54
28.62
28.47
30.12
32.95
36.06
38.57
39.96
40.12
39.26
37.65
35.51
32.87
29.57
25.45
20.44
14.6
8.23
1.75
-4.41
-9.94
-14.7
-18.83
-22.63
-26.56
-31.11
-36.7
-43.56
-51.57
-60.1
-67.99
-73.68
-75.53
-72.33
-63.74
-50.55
-34.49
-17.71
-2.2
10.78
20.85
28.26
33.51
36.91
38.57
38.48
36.92
34.55
32.33
31.14
31.46
33.12
35.47
37.74
39.33
40.04
39.96
39.27
38.03
36.09
33.24
29.33
24.45
18.87
13.0
7.24
1.84
-3.06
-7.41
-11.28
-14.83
-18.37
-22.28
-27.04
-33.01
-40.26
-48.38
-56.35
-62.7
-65.79
-64.36
-57.94
-47.1
-33.32
-18.51
-4.44
7.69
17.37
24.58
29.45
32.11
32.64
31.34
28.76
25.76
23.22
21.77
21.64
22.61
24.22
25.95
27.44
28.45
28.92
28.85
28.21
26.94
24.9
21.88
17.78
12.65
6.78
0.69
-4.99
-9.82
-13.66
-16.73
-19.6
-22.94
-27.37
-33.2
-40.34
-48.13
-55.42
-60.71
-62.48
-59.66
-52.02
-40.37
-26.37
-12.02
0.87
11.2
18.68
23.64
26.64
28.09
28.22
27.16
25.15
22.68
20.51
19.34
19.59
21.21
23.72
26.44
28.65
29.94
30.17
29.44
27.96
25.9
23.36
20.39
17.01
13.26
9.21
4.92
0.44
-4.15
-8.77
-13.25
-17.46
-21.33
-24.98
-28.7
-32.99
-38.31
-44.86
-52.31
-59.7
-65.6
-68.43
-67.01
-60.94
-50.81
-38.01
-24.3
-11.3
-0.13
8.71
15.22
19.64
22.3
23.45
23.33
22.29
20.8
19.42
18.7
18.93
20.07
21.73
23.36
24.51
24.97
24.81
24.23
23.33
21.98
19.85
16.58
12.07
6.58
0.7
-4.8
-9.32
-12.61
-14.85
-16.63
-18.73
-21.85
-26.4
-32.34
-39.05
-45.48
-50.23
-51.98
-49.81
-43.5
-33.71
-21.78
-9.35
2.13
11.72
19.06
24.21
27.38
28.77
28.49
26.74
23.94
20.8
18.16
16.75
16.95
18.55
20.9
23.12
24.48
24.64
23.71
22.13
20.33
18.46
16.33
13.56
9.8
5.07
-0.22
-5.41
-9.87
-13.35
-16.0
-18.4
-21.21
-25.02
-30.08
-36.32
-43.29
-50.21
-56.05
-59.56
-59.59
-55.45
-47.17
-35.63
-22.35
-9.0
3.06
13.04
20.77
26.4
30.12
32.03
32.19
30.82
28.39
25.64
23.35
22.09
22.05
22.96
24.3
25.47
26.03
25.82
24.95
23.68
22.27
20.79
19.05
16.74
13.51
9.29
4.29
-0.94
-5.82
-9.92
-13.16
-15.81
-18.37
-21.39
-25.29
-30.25
-36.22
-42.78
-49.09
-53.98
-56.12
-54.47
-48.66
-39.2
-27.42
-14.98
-3.42
6.25
13.64
18.8
21.98
23.45
23.42
22.19
20.14
17.8
15.75
14.41
14.03
14.58
15.79
17.24
18.51
19.32
19.64
19.61
19.33
18.77
17.66
15.57
12.24
7.76
2.68
-2.23
-6.35
-9.49
-11.95
-14.43
-17.61
-21.92
-27.34
-33.41
-39.28
-43.88
-46.12
-45.15
-40.59
-32.75
-22.6
-11.55
-1.01
7.98
14.94
19.88
23.06
24.75
25.08
24.15
22.17
19.62
17.16
15.51
15.12
16.04
17.86
19.95
21.67
22.6
22.65
21.97
20.82
19.43
17.82
15.85
13.29
9.93
5.77
1.04
-3.79
-8.18
-11.72
-14.3
-16.19
-17.94
-20.18
-23.44
-27.97
-33.67
-40.06
-46.28
-51.18
-53.52
-52.28
-47.08
-38.34
-27.28
-15.55
-4.7
4.27
11.04
15.81
18.96
20.79
21.44
21.0
19.7
17.93
16.24
15.07
14.69
15.11
16.19
17.66
19.24
20.65
21.58
21.77
21.1
19.69
17.8
15.81
13.9
12.0
9.83
7.07
3.63
-0.32
-4.36
-8.09
-11.3
-14.07
-16.67
-19.41
-22.48
-26.01
-30.1
-34.86
-40.23
-45.81
-50.73
-53.71
-53.56
-49.51
-41.67
-31.06
-19.24
-7.88
1.79
9.18
14.31
17.52
19.21
19.66
19.1
17.75
16.02
14.36
13.26
12.98
13.53
14.63
15.89
16.93
17.53
17.68
17.47
16.98
16.18
14.87
12.8
9.72
5.64
0.86
-4.09
-8.65
-12.41
-15.34
-17.74
-20.14
-23.15
-27.15
-32.31
-38.42
-44.88
-50.69
-54.53
-55.23
-51.99
-44.88
-34.79
-23.2
-11.68
-1.42
6.97
13.41
18.02
20.99
22.38
22.28
20.93
18.75
16.37
14.41
13.36
13.42
14.45
16.05
17.73
19.03
19.68
19.7
19.31
18.72
18.01
16.94
15.13
12.22
8.07
2.95
-2.59
-7.9
-12.47
-16.15
-19.11
-21.81
-24.76
-28.46
-33.24
-39.19
-46.11
-53.29
-59.58
-63.53
-63.78
-59.56
-50.99
-39.18
-25.79
-12.58
-0.89
8.58
15.69
20.59
23.51
24.65
24.24
22.67
20.5
18.38
16.88
16.34
16.84
18.1
19.74
21.27
22.36
22.87
22.89
22.64
22.25
21.64
20.44
18.21
14.62
9.7
3.9
-2.09
-7.63
-12.33
-16.22
-19.64
-23.07
-27.0
-31.79
-37.59
-44.25
-51.23
-57.54
-61.92
-63.13
-60.29
-53.26
-42.69
-29.85
-16.27
-3.34
7.9
16.81
23.17
26.96
28.39
27.85
25.92
23.28
20.59
18.44
17.23
17.15
18.2
20.16
22.65
25.18
27.22
28.33
28.32
27.11
24.8
21.53
17.42
12.68
7.59
2.52
-2.2
-6.48
-10.56
-15.06
-20.63
-27.74
-36.26
-45.34
-53.54
-59.1
-60.49
-56.85
-48.24
-35.71
-20.96
-5.89
7.87
19.28
27.96
34.01
37.73
39.41
39.28
37.66
35.06
32.2
29.84
28.56
28.54
29.48
30.84
32.1
32.98
33.46
33.68
33.64
33.14
31.76
29.06
24.82
19.22
12.77
6.17
0.05
-5.3
-9.97
-14.35
-19.07
-24.7
-31.62
-39.8
-48.6
-56.86
-62.95
-65.25
-62.58
-54.66
-42.26
-27.04
-11.01
3.97
16.67
26.59
33.77
38.52
41.16
42.0
41.35
39.72
37.7
36.0
35.15
35.36
36.48
38.04
39.49
40.39
40.61
40.23
39.45
38.33
36.7
34.19
30.43
25.34
19.2
12.64
6.37
0.85
-3.84
-8.06
-12.42
-17.57
-23.97
-31.74
-40.43
-49.04
-56.09
-59.95
-59.3
-53.59
-43.3
-29.79
-14.95
-0.62
11.85
21.72
28.79
33.22
35.26
35.28
33.76
31.29
28.48
25.92
24.03
23.07
23.09
24.02
25.64
27.58
29.33
30.36
30.22
28.69
25.87
22.0
17.46
12.53
7.45
2.36
-2.66
-7.64
-12.72
-18.2
-24.36
-31.3
-38.64
-45.48
-50.42
-51.98
-49.09
-41.49
-29.93
-16.0
-1.67
11.27
21.64
28.97
33.37
35.32
35.33
33.85
31.29
28.09
24.76
21.86
19.85
18.97
19.18
20.16
21.47
22.67
23.43
23.54
22.84
21.19
18.45
14.59
9.73
4.19
-1.54
-6.99
-11.91
-16.43
-21.03
-26.35
-32.88
-40.62
-48.9
-56.39
-61.43
-62.53
-58.83
-50.36
-38.16
-23.78
-9.07
4.48
15.86
24.64
30.86
34.71
36.46
36.3
34.53
31.65
28.43
25.78
24.37
24.42
25.6
27.17
28.38
28.87
28.67
28.14
27.51
26.71
25.3
22.77
18.78
13.47
7.37
1.18
-4.46
-9.26
-13.3
-17.01
-21.01
-25.95
-32.25
-39.93
-48.37
-56.37
-62.37
-64.83
-62.76
-56.01
-45.39
-32.34
-18.55
-5.57
5.58
14.38
20.7
24.7
26.63
26.85
25.78
23.91
21.75
19.74
18.25
17.45
17.39
18.0
19.06
20.35
21.53
22.31
22.35
21.41
19.29
15.93
11.48
6.26
0.75
-4.57
-9.28
-13.28
-16.77
-20.27
-24.4
-29.65
-36.13
-43.38
-50.32
-55.5
-57.4
-54.94
-47.86
-36.87
-23.46
-9.5
3.33
13.84
21.57
26.56
29.12
29.61
28.41
25.95
22.87
19.9
17.72
16.68
16.71
17.37
18.09
18.5
18.54
18.41
18.3
18.15
17.61
16.15
13.33
9.1
3.79
-1.99
-7.64
-12.76
-17.29
-21.46
-25.7
-30.51
-36.28
-43.13
-50.7
-57.98
-63.48
-65.56
-62.98
-55.41
-43.64
-29.34
-14.53
-0.87
10.68
19.87
26.84
31.78
34.72
35.6
34.58
32.14
29.15
26.57
25.11
25.03
26.08
27.64
29.07
29.94
30.18
29.97
29.55
28.99
28.09
26.42
23.53
19.22
13.68
7.48
1.34
-4.16
-8.77
-12.67
-16.37
-20.48
-25.52
-31.82
-39.37
-47.77
-56.13
-63.18
-67.35
-67.3
-62.3
-52.6
-39.48
-24.84
-10.61
1.79
11.74
19.31
24.91
28.93
31.52
32.66
32.45
31.21
29.54
28.09
27.4
27.65
28.69
30.09
31.42
32.37
32.81
32.76
32.33
31.53
30.2
28.04
24.76
20.17
14.46
8.11
1.79
-3.9
-8.69
-12.69
-16.34
-20.19
-24.69
-30.13
-36.54
-43.76
-51.29
-58.25
-63.33
-65.13
-62.51
-55.13
-43.68
-29.65
-14.97
-1.29
10.26
19.25
25.64
29.58
31.19
30.65
28.36
24.99
21.39
18.41
16.59
16.06
16.55
17.63
18.88
20.11
21.24
22.26
23.01
23.15
22.21
19.8
15.85
10.7
5.01
-0.51
-5.35
-9.45
-13.19
-17.25
-22.33
-28.86
-36.76
-45.33
-53.32
-59.14
-61.24
-58.57
-50.94
-39.12
-24.67
-9.55
4.49
16.25
25.2
31.38
35.06
36.52
36.0
33.83
30.5
26.82
23.75
22.06
22.07
23.56
25.81
28.0
29.55
30.2
30.07
29.38
28.23
26.54
24.06
20.55
15.96
10.44
4.35
-1.82
-7.63
-12.84
-17.47
-21.86
-26.58
-32.24
-39.29
-47.77
-57.22
-66.53
-74.15
-78.39
-77.88
-71.97
-61.03
-46.42
-30.08
-14.02
0.19
11.79
20.64
27.06
31.41
33.91
34.66
33.79
31.64
28.88
26.32
24.77
24.66
25.93
28.07
30.37
32.22
33.3
33.62
33.32
32.47
30.97
28.51
24.83
19.9
14.0
7.64
1.44
-4.12
-8.9
-13.02
-16.95
-21.3
-26.69
-33.52
-41.76
-50.86
-59.67
-66.72
-70.48
-69.78
-64.16
-53.98
-40.35
-24.93
-9.44
4.61
16.22
24.97
30.86
34.16
35.17
34.26
31.89
28.68
25.44
