0
-59.87
-71.69
-80.45
-83.63
-79.46
-67.6
-49.29
-27.11
-4.17
16.73
33.74
46.05
53.74
57.24
57.09
53.9
48.45
41.91
35.63
30.9
28.53
28.61
30.56
33.49
36.53
39.05
40.65
41.02
39.83
36.75
31.57
24.38
15.6
5.97
-3.69
-12.68
-20.61
-27.61
-34.28
-41.64
-50.72
-62.19
-75.74
-89.83
-101.79
-108.53
-107.51
-97.68
-79.9
-56.74
-31.6
-7.77
12.49
28.13
39.17
46.11
49.54
49.98
47.96
44.24
39.92
36.21
34.17
34.26
36.22
39.21
42.16
44.26
45.16
44.97
44.02
42.48
40.18
36.64
31.35
24.07
15.07
5.1
-4.79
-13.69
-21.16
-27.41
-33.18
-39.54
-47.58
-57.99
-70.79
-85.0
-98.63
-108.92
-113.0
-108.77
-95.74
-75.33
-50.49
-24.83
-1.51
17.53
31.72
41.41
47.32
50.07
50.13
48.04
44.59
40.97
38.4
37.79
39.36
42.53
46.22
49.25
50.86
50.92
49.91
48.45
46.92
45.12
42.37
37.83
31.01
22.12
12.06
2.07
-6.77
-13.96
-19.76
-25.02
-30.79
-38.07
-47.47
-59.03
-72.1
-85.11
-95.75
-101.37
-99.75
-89.94
-72.76
-50.65
-26.92
-4.73
13.81
27.92
37.85
44.28
47.78
48.67
47.16
43.75
39.38
35.3
32.78
32.62
34.87
38.77
43.15
46.82
48.99
49.54
48.85
47.53
45.93
43.95
41.11
36.78
30.61
22.74
13.85
4.89
-3.3
-10.27
-16.02
-21.02
-26.01
-31.82
-39.25
-48.8
-60.41
-73.2
-85.3
-94.17
-97.26
-92.81
-80.54
-61.8
-39.16
-15.69
5.84
23.55
36.51
44.63
48.31
48.26
45.38
40.75
35.54
30.91
27.8
26.73
27.73
30.37
33.9
37.48
40.44
42.39
43.16
42.67
40.82
37.37
32.16
25.23
16.99
8.19
-0.34
-8.01
-14.67
-20.74
-27.1
-34.68
-44.21
-55.67
-68.12
-79.63
-87.67
-89.79
-84.42
-71.49
-52.55
-30.33
-7.88
12.18
28.25
39.75
46.81
49.93
49.68
46.74
41.98
36.49
31.49
27.98
26.51
27.01
28.85
31.2
33.34
34.83
35.59
35.64
34.87
32.96
29.4
23.78
16.08
6.79
-3.19
-12.82
-21.37
-28.64
-35.04
-41.43
-48.88
-58.27
-69.98
-83.5
-97.27
-108.82
-115.23
-114.04
-104.06
-86.01
-62.39
-36.66
-12.28
8.32
24.12
35.24
42.38
46.25
47.34
46.12
43.25
39.74
36.73
35.18
35.46
37.23
39.65
41.78
42.98
43.17
42.66
41.95
41.35
40.69
39.37
36.59
31.67
24.42
15.28
5.27
-4.41
-12.79
-19.53
-24.95
-29.92
-35.56
-42.84
-52.41
-64.28
-77.63
-90.7
-100.94
-105.54
-102.28
-90.46
-71.23
-47.46
-22.76
-0.39
17.63
30.78
39.61
45.07
47.9
48.48
47.08
44.19
40.73
37.86
36.59
37.37
39.83
43.04
45.92
47.65
47.99
47.19
45.73
44.04
42.19
39.85
36.51
31.66
25.08
17.01
8.1
-0.78
-8.83
-15.66
-21.38
-26.57
-31.99
-38.41
-46.38
-56.12
-67.41
-79.39
-90.47
-98.46
-100.98
-96.3
-83.96
-65.16
-42.45
-19.02
2.27
19.54
32.08
40.07
44.12
44.91
43.12
39.49
34.96
30.62
27.46
26.15
26.82
29.11
32.28
35.58
38.42
40.44
41.49
41.45
40.14
37.27
32.64
26.26
18.57
10.32
2.47
-4.3
-9.77
-14.4
-19.24
-25.42
-33.83
-44.56
-56.76
-68.63
-77.82
-81.96
-79.38
-69.6
-53.54
-33.35
-11.82
8.4
25.3
37.84
45.87
49.77
50.17
47.76
43.31
37.76
32.19
27.73
25.21
24.91
26.48
29.18
32.09
34.53
36.11
36.62
35.88
33.58
29.43
23.31
15.47
6.58
-2.46
-10.88
-18.31
-24.92
-31.42
-38.82
-48.06
-59.55
-72.77
-85.99
-96.57
-101.6
-98.85
-87.63
-69.14
-46.09
-21.78
0.82
19.78
34.33
44.48
50.58
52.98
52.13
48.78
44.03
39.31
35.91
34.65
35.6
38.14
41.25
43.96
45.65
46.16
45.72
44.68
43.17
40.97
37.47
32.06
24.41
14.79
4.09
-6.53
-16.03
-23.93
-30.42
-36.28
-42.54
-50.26
-60.25
-72.77
-87.17
-101.77
-113.83
-120.18
-118.25
-107.01
-87.51
-62.67
-36.25
-11.73
8.66
24.22
35.36
42.98
47.86
50.46
51.02
49.89
47.75
45.54
44.26
44.57
46.49
49.45
52.5
54.68
55.44
54.76
53.05
50.84
48.47
45.84
42.52
37.91
31.59
23.62
14.55
5.26
-3.36
-10.76
-16.94
-22.38
-27.85
-34.2
-42.13
-52.14
-64.28
-77.99
-91.78
-103.32
-109.8
-108.77
-99.05
-81.27
-57.87
-32.3
-8.01
12.54
28.24
39.23
46.31
50.35
51.96
51.52
49.44
46.42
43.48
41.72
41.91
44.12
47.73
51.65
54.81
56.54
56.74
55.71
53.83
51.37
48.32
44.5
39.68
33.71
26.58
18.46
9.75
0.97
-7.3
-14.68
-21.09
-26.8
-32.39
-38.51
-45.81
-54.85
-65.92
-78.81
-92.42
-104.64
-112.64
-113.64
-105.94
-89.73
-67.11
-41.5
-16.48
5.21
22.23
34.47
42.52
47.05
48.62
47.65
44.72
40.76
36.99
34.57
34.26
36.15
39.59
43.48
46.75
48.72
49.25
48.65
47.36
45.67
43.55
40.66
36.58
30.98
23.84
15.55
6.79
-1.64
-9.05
-15.13
-20.07
-24.44
-29.06
-34.74
-42.13
-51.6
-63.01
-75.47
-87.24
-95.87
-98.79
-94.15
-81.54
-62.31
-39.2
-15.44
6.14
23.76
36.7
45.03
49.11
49.4
46.53
41.38
35.2
29.37
25.14
23.26
23.82
26.27
29.64
32.94
35.47
36.96
37.45
37.09
35.86
33.47
29.51
23.75
16.42
8.19
0.01
-7.36
-13.7
-19.41
-25.39
-32.68
-42.01
-53.48
-66.33
-78.83
-88.62
-93.2
-90.66
-80.34
-63.17
-41.44
-18.1
3.97
22.75
37.25
47.3
53.16
55.17
53.74
49.44
43.29
36.68
31.11
27.75
27.04
28.58
31.32
34.11
36.05
36.81
36.5
35.42
33.67
31.0
26.92
20.92
12.85
3.07
-7.5
-17.8
-26.9
-34.48
-40.91
-47.15
-54.4
-63.73
-75.62
-89.68
-104.43
-117.42
-125.71
-126.57
-118.42
-101.5
-77.9
-51.03
-24.54
-1.28
17.26
30.9
40.28
46.11
48.9
48.99
46.89
43.48
39.99
37.67
37.26
38.79
41.58
44.57
46.87
47.99
48.01
47.3
46.26
44.97
43.06
39.89
34.8
27.48
18.18
7.77
-2.58
-11.84
-19.48
-25.7
-31.36
-37.68
-45.85
-56.67
-70.16
-85.43
-100.48
-112.57
-118.69
-116.52
-105.16
-85.62
-60.63
-33.83
-8.67
12.44
28.63
40.23
48.15
53.22
55.91
56.4
54.97
52.27
49.41
47.54
47.48
49.31
52.43
55.84
58.56
60.04
60.18
59.27
57.64
55.48
52.66
48.84
43.61
36.69
28.16
18.54
8.64
-0.64
-8.69
-15.4
-21.2
-26.87
-33.3
-41.27
-51.35
-63.7
-77.84
-92.37
-104.92
-112.59
-112.73
-103.94
-86.74
-63.5
-37.69
-12.77
8.78
25.78
38.09
46.14
50.36
51.19
49.18
45.27
40.81
37.25
35.74
36.78
39.99
44.34
48.56
51.62
53.06
53.1
52.35
51.34
50.21
48.55
45.58
40.63
33.47
24.55
14.86
5.5
-2.71
-9.46
-15.05
-20.21
-25.83
-32.78
-41.65
-52.51
-64.66
-76.43
-85.44
-89.1
-85.51
-74.11
-56.07
-33.9
-10.69
10.71
28.4
41.52
49.95
54.03
54.3
51.52
46.69
41.06
35.97
32.46
31.08
31.73
33.8
36.45
38.85
40.45
41.04
40.6
39.16
36.67
32.9
27.64
20.85
12.84
4.28
-4.06
-11.59
-18.21
-24.34
-30.81
-38.55
-48.24
-59.96
-72.92
-85.34
-94.65
-98.18
-93.91
-81.4
-62.04
-38.72
-14.93
6.41
23.6
36.27
44.84
49.88
51.71
50.53
46.78
41.4
35.88
31.72
29.93
30.63
33.07
36.07
38.57
40.02
40.46
40.21
39.55
38.34
36.08
32.12
26.02
17.81
8.14
-2.0
-11.54
-19.74
-26.44
-32.09
-37.63
-44.3
-53.21
-64.97
-79.22
-94.43
-107.97
-116.67
-117.74
-109.69
-92.99
-69.99
-44.17
-19.12
2.51
19.46
31.71
39.95
44.99
47.4
47.56
45.93
43.28
40.66
39.16
39.43
41.45
44.53
47.61
49.77
50.53
50.05
48.85
47.47
46.12
44.49
41.91
37.59
31.03
22.32
12.15
1.62
-8.1
-16.27
-22.75
-28.15
-33.57
-40.28
-49.32
-61.19
-75.54
-91.0
-105.22
-115.28
-118.37
-112.73
-98.2
-76.59
-51.06
-25.2
-2.03
16.7
30.58
40.11
46.05
49.04
49.53
47.95
45.02
41.74
39.26
38.53
39.94
43.18
47.4
51.48
54.45
55.76
55.45
53.95
51.79
49.28
46.31
42.4
36.95
29.63
20.6
10.61
0.71
-8.17
-15.55
-21.6
-26.96
-32.59
-39.4
-48.06
-58.84
-71.54
-85.18
-97.99
-107.49
-111.09
-106.8
-94.04
-73.96
-49.23
-23.18
1.05
21.31
36.59
46.86
52.59
54.45
53.16
49.57
44.82
40.18
36.86
35.64
36.68
39.43
42.91
46.12
48.42
49.67
50.14
50.13
49.61
48.15
45.02
39.59
31.81
22.29
12.19
2.75
-5.19
-11.56
-17.02
-22.73
-29.93
-39.6
-51.96
-66.28
-80.74
-92.61
-98.92
-97.31
-86.91
-68.76
-45.52
-20.62
2.81
22.66
38.07
49.02
55.81
58.69
57.87
53.9
47.83
41.27
35.93
33.1
33.22
35.78
39.61
43.39
46.11
47.32
47.14
45.9
43.9
41.08
37.09
31.44
23.81
14.35
3.7
-7.13
-17.18
-25.79
-32.97
-39.24
-45.6
-53.15
-62.84
-75.16
-89.76
-105.26
-119.19
-128.45
-130.1
-122.36
-105.35
-81.19
-53.39
-25.69
-1.05
18.98
34.11
44.84
51.78
55.31
55.75
53.58
49.79
45.77
42.96
42.37
44.15
47.6
51.48
54.54
56.06
56.01
54.95
53.54
52.12
50.43
47.68
42.97
35.73
26.06
14.78
3.11
-7.75
-17.03
-24.64
-31.11
-37.42
-44.73
-54.07
-65.99
-80.25
-95.52
-109.37
-118.77
-120.83
-113.82
-97.83
-74.84
-48.15
-21.37
2.58
22.0
36.44
46.32
52.31
54.99
54.82
52.32
48.3
43.97
40.72
39.69
41.35
45.26
50.22
54.73
57.61
58.39
57.37
55.32
52.94
50.46
47.56
43.55
37.83
30.18
20.93
10.93
1.11
-7.73
-15.27
-21.68
-27.56
-33.7
-40.95
-49.91
-60.91
-73.65
-87.07
-99.3
-107.85
-110.19
-104.59
-90.74
-69.99
-45.09
-19.35
4.29
23.9
38.64
48.56
54.09
55.75
54.13
50.03
44.57
39.2
35.31
33.84
35.0
38.14
42.18
45.94
48.67
50.18
50.71
50.58
49.84
48.1
44.7
39.04
30.93
20.87
9.89
-0.7
-9.89
-17.26
-23.2
-28.71
-35.08
-43.53
-54.69
-68.31
-82.99
-96.3
-105.25
-107.07
-100.12
-84.55
-62.36
-36.82
-11.48
10.82
28.54
41.38
49.83
54.53
55.97
54.49
50.58
45.18
39.63
35.43
33.68
34.69
37.82
41.78
45.18
47.06
47.16
45.84
43.77
41.38
38.73
35.39
30.83
24.6
16.66
7.39
-2.55
-12.38
-21.53
-29.71
-37.01
-43.9
-51.07
-59.3
-69.3
-81.39
-95.16
-109.24
-121.28
-128.35
-127.79
-118.1
-99.64
-74.69
-46.8
-19.7
3.75
22.1
35.3
44.05
49.22
51.41
51.03
48.61
45.09
41.75
39.93
40.44
43.25
47.51
51.87
55.14
56.65
56.46
55.12
53.3
51.33
49.09
46.01
41.38
34.72
26.03
15.93
5.38
-4.59
-13.29
-20.61
-26.99
-33.26
-40.35
-49.05
-59.78
-72.42
-86.03
-98.84
-108.4
-112.08
-107.94
-95.45
-75.8
-51.64
-26.26
-2.65
17.16
32.3
42.81
49.15
51.87
51.57
48.97
45.09
41.14
38.3
37.39
38.58
41.39
44.85
47.93
49.92
50.59
50.19
49.11
47.56
45.34
41.94
36.77
29.64
20.89
11.42
2.36
-5.42
-11.67
-16.84
-21.89
-28.0
-36.1
-46.6
-59.1
-72.23
-83.79
-91.1
-91.77
-84.43
-69.4
-48.63
-25.15
-2.12
18.04
34.12
45.9
53.62
57.55
57.85
54.83
49.31
42.7
36.78
33.04
32.24
34.12
37.66
41.49
44.52
46.22
46.58
45.91
44.43
42.07
38.45
33.09
25.72
16.54
6.24
-4.2
-13.79
-21.92
-28.61
-34.43
-40.38
-47.63
-57.14
-69.27
-83.47
-98.07
-110.45
-117.62
-117.03
-107.52
-89.76
-66.17
-40.13
-15.07
6.5
23.32
35.28
42.89
46.82
47.68
46.04
42.68
38.66
35.24
33.53
34.07
36.66
40.42
44.14
46.84
48.06
47.98
47.12
45.92
44.42
42.15
38.33
32.35
24.08
14.08
3.44
-6.61
-15.17
-21.96
-27.43
-32.56
-38.54
-46.43
-56.86
-69.71
-83.99
-97.72
-108.25
-112.81
-109.34
-97.22
-77.67
-53.43
-27.94
-4.37
15.22
30.04
40.32
46.73
49.91
50.35
48.53
45.21
41.46
38.51
37.4
38.57
41.7
45.79
49.57
52.01
52.68
51.81
50.02
47.93
45.72
43.06
39.24
33.62
25.98
16.74
6.84
-2.55
-10.56
-16.88
-21.9
-26.54
-31.96
-39.2
-48.8
-60.63
-73.69
-86.12
-95.51
-99.4
-95.96
-84.62
-66.41
-43.72
-19.7
2.7
21.42
35.51
44.99
50.26
51.85
50.25
46.19
40.69
35.14
30.97
29.13
29.83
32.49
36.05
39.39
41.8
43.07
43.38
42.93
41.76
39.57
35.88
30.36
23.02
14.36
5.24
-3.42
-11.02
-17.47
-23.25
-29.21
-36.36
-45.47
-56.73
-69.46
-81.98
-91.78
-96.13
-92.93
-81.53
-63.11
-40.38
-16.72
4.89
22.57
35.8
44.88
50.36
52.58
51.67
47.93
42.16
35.83
30.63
27.97
28.3
31.07
34.93
38.39
40.41
40.69
39.58
37.69
35.43
32.78
29.3
24.43
17.8
9.49
0.03
-9.71
-18.84
-26.72
-33.23
-38.76
-44.18
-50.57
-58.95
-69.86
-83.13
-97.54
-110.92
-120.4
-123.27
-117.69
-103.5
-82.38
-57.39
-32.08
-9.35
9.11
22.96
32.71
39.05
42.48
43.33
42.0
39.3
36.42
34.6
34.66
36.7
40.02
43.5
46.13
47.37
47.31
46.47
45.39
44.31
42.93
40.55
36.45
30.15
21.76
12.04
2.1
-6.91
-14.28
-19.95
-24.57
-29.23
-35.13
-43.19
-53.79
-66.54
-80.18
-92.63
-101.31
-103.78
-98.4
-85.06
-65.28
-41.88
-18.11
3.27
20.58
33.31
41.71
46.36
47.83
46.75
43.88
40.25
37.01
35.12
35.03
36.61
39.23
42.13
44.65
46.46
47.47
47.6
46.68
44.31
40.09
33.83
25.74
16.54
7.23
-1.25
-8.39
-14.27
-19.59
-25.43
-32.85
-42.57
-54.57
-67.82
-80.3
-89.36
-92.38
-87.64
-74.96
-55.91
-33.3
-10.3
10.44
27.37
40.0
48.52
53.29
54.63
52.86
48.59
42.94
37.38
33.4
31.94
33.04
35.92
39.25
41.83
42.98
42.71
41.47
39.7
37.5
34.52
30.15
23.95
15.91
6.52
-3.32
-12.71
-21.06
-28.23
-34.64
-41.08
-48.54
-57.91
-69.65
-83.38
-97.66
-110.04
-117.58
-117.72
-109.21
-92.64
-70.26
-45.34
-21.11
0.1
17.14
29.98
39.13
45.2
48.66
49.86
49.27
47.61
45.84
44.92
45.54
47.8
51.22
54.83
57.62
58.86
58.4
56.61
54.08
51.23
48.06
44.15
38.91
31.99
23.49
14.01
4.47
-4.31
-11.85
-18.18
-23.83
-29.62
-36.43
-45.06
-55.93
-68.92
-83.04
-96.43
-106.52
-110.64
-106.91
-94.91
-75.95
-52.76
-28.62
-6.42
12.04
26.2
36.41
43.37
47.67
49.66
49.59
47.9
45.34
42.93
41.65
42.14
44.39
47.8
51.44
54.4
56.08
56.31
55.27
53.25
50.47
46.98
42.69
37.43
31.08
23.69
15.58
7.22
-0.82
-8.05
-14.24
-19.55
-24.47
-29.71
-36.08
-44.25
-54.61
-66.98
-80.36
-92.79
-101.63
-104.25
-98.85
-85.27
-65.14
-41.45
-17.54
3.87
21.18
34.02
42.67
47.66
49.44
48.51
45.6
41.73
38.11
35.75
35.15
36.2
38.35
40.89
43.3
45.34
46.9
47.85
47.82
46.21
42.46
36.28
27.91
18.12
7.98
-1.45
-9.46
-15.97
-21.54
-27.17
-34.06
-43.11
-54.57
-67.61
-80.33
-90.04
-93.95
-90.11
-78.08
-59.23
-36.28
-12.5
9.26
27.18
40.6
49.64
54.74
56.33
54.85
50.91
45.52
40.05
35.87
33.92
34.36
36.53
39.27
41.48
42.48
42.23
41.12
39.56
37.67
35.14
31.36
25.73
18.04
8.58
-1.85
-12.22
-21.63
-29.58
-36.17
-42.08
-48.4
-56.36
-66.91
-80.26
-95.55
-110.63
-122.46
-127.79
-124.27
-111.31
-90.39
-64.62
-37.73
-12.96
7.68
23.56
35.05
42.9
47.78
50.16
50.37
48.89
46.45
44.05
42.69
43.01
45.11
48.38
51.84
54.46
55.65
55.4
54.18
52.52
50.66
48.32
44.9
39.73
32.5
23.42
13.17
2.69
-7.14
-15.78
-23.11
-29.5
-35.64
-42.38
-50.55
-60.74
-73.02
-86.73
-100.28
-111.26
-116.93
-114.95
-104.3
-85.73
-61.68
-35.6
-10.84
10.21
26.51
38.13
45.72
49.86
51.0
49.56
46.27
42.32
39.08
37.7
38.61
41.38
44.97
48.21
50.34
51.18
51.07
50.45
49.5
47.92
45.07
40.3
33.35
24.6
14.97
5.59
-2.6
-9.24
-14.67
-19.79
-25.76
-33.59
-43.84
-56.29
-69.78
-82.2
-90.85
-93.09
-87.2
-73.07
-52.38
-28.14
-3.75
17.98
35.4
48.11
56.38
60.72
61.51
59.11
54.18
47.83
41.54
36.77
34.4
34.5
36.28
38.53
40.23
40.82
40.43
39.44
38.15
36.41
33.66
29.12
22.31
13.29
2.76
-8.16
-18.31
-26.9
-33.82
-39.69
-45.68
-53.23
-63.5
-76.86
-92.46
-108.09
-120.54
-126.46
-123.34
-110.43
-89.09
-62.39
-34.19
-8.03
13.77
30.35
41.99
49.46
53.52
54.66
53.31
50.12
46.13
42.59
40.63
40.77
42.79
45.79
48.65
50.42
50.71
49.73
48.01
46.11
44.23
42.08
38.93
34.0
26.79
17.44
6.74
-4.12
-13.99
-22.25
-29.0
-35.03
-41.49
-49.48
-59.77
-72.47
-86.89
-101.38
-113.5
-120.4
-119.52
-109.59
-91.1
-66.36
-38.88
-12.27
10.74
28.73
41.51
49.57
53.56
54.05
51.65
47.28
42.21
37.87
35.36
35.1
36.76
39.45
42.21
44.42
45.93
46.94
47.65
48.02
47.62
45.79
41.93
35.85
27.87
18.78
9.63
1.29
-5.8
-11.8
-17.44
-23.77
-31.87
-42.43
-55.36
-69.49
-82.55
-91.56
-93.72
-87.25
-72.18
-50.41
-25.13
0.14
22.55
40.42
53.25
61.15
64.53
63.79
59.49
52.6
44.53
36.93
31.21
28.17
27.74
29.18
31.42
33.59
35.24
36.27
36.73
36.39
34.75
31.12
25.04
16.64
6.66
-3.77
-13.52
-21.96
-29.1
-35.53
-42.24
-50.31
-60.62
-73.51
-88.33
-103.22
-115.26
-121.12
-118.17
-105.49
-84.37
-57.93
-30.1
-4.35
17.11
33.52
45.12
52.47
56.05
56.26
53.59
48.98
43.74
39.29
36.72
36.44
38.1
40.78
43.44
45.28
46.04
45.95
45.47
44.85
43.88
41.81
37.73
31.02
21.77
10.85
-0.4
-10.68
-19.24
-26.16
-32.23
-38.63
-46.55
-56.86
-69.84
-84.89
-100.38
-113.65
-121.58
-121.38
-111.64
-92.9
-67.68
-39.63
-12.47
10.99
29.33
42.3
50.35
54.17
54.52
52.17
48.12
43.55
39.58
37.1
36.49
37.62
39.9
42.57
44.94
46.55
47.29
47.24
46.48
44.88
42.02
37.43
30.8
22.36
12.9
3.51
-4.84
-11.73
-17.49
-23.11
-29.86
-38.77
-50.24
-63.66
-77.33
-88.67
-94.75
-93.21
-82.95
-64.72
-40.96
-15.12
9.39
30.06
45.63
55.99
61.62
63.13
61.18
56.51
50.12
43.3
37.34
33.21
31.31
31.43
32.96
35.15
37.34
39.05
39.91
39.64
37.9
34.43
29.03
21.81
13.13
3.67
-5.81
-14.63
-22.54
-29.89
-37.54
-46.64
-58.13
-72.14
-87.58
-102.06
-112.35
-115.27
-108.81
-92.84
-69.34
-41.79
-14.09
10.5
30.1
44.15
53.05
57.51
58.23
55.85
51.21
45.48
40.1
36.32
34.84
35.5
37.45
39.58
41.02
41.45
41.07
40.22
39.02
37.12
33.82
28.46
20.77
11.14
0.5
-9.92
-19.13
-26.68
-32.88
-38.71
-45.56
-54.76
-67.07
-82.14
-98.23
-112.38
-121.11
-121.42
-111.86
-93.09
-67.74
-39.54
-12.2
11.51
30.26
43.83
52.68
57.37
58.43
56.48
52.4
47.44
42.99
40.17
39.45
40.55
42.61
44.63
45.9
46.26
45.99
45.49
44.91
43.9
41.75
37.71
31.4
23.03
13.39
3.54
-5.59
-13.52
-20.38
-26.81
-33.77
-42.28
-53.03
-66.06
-80.42
-94.1
-104.3
-108.13
-103.57
-90.19
-69.46
-44.31
-18.31
5.39
24.76
39.06
48.53
53.86
55.76
54.84
51.65
46.92
41.64
36.89
33.67
32.58
33.67
36.47
40.21
43.99
47.04
48.72
48.57
46.27
41.76
35.19
27.1
18.23
9.4
1.22
-6.11
-12.93
-20.05
-28.49
-39.02
-51.66
-65.33
-77.81
-86.16
-87.57
-80.34
-64.59
-42.36
-17.07
7.61
28.72
44.72
55.35
61.19
63.03
61.52
57.27
51.15
44.46
38.69
35.15
34.35
35.86
38.46
40.78
41.89
41.62
40.35
38.62
36.62
34.02
30.09
24.2
16.12
6.35
-4.16
-14.22
-22.99
-30.24
-36.4
-42.51
-49.78
-59.27
-71.47
-85.89
-100.94
-113.98
-121.89
-121.87
-112.46
-94.11
-69.19
-41.29
-14.22
9.11
27.22
39.96
48.02
52.25
53.42
52.13
49.12
45.38
42.07
40.22
40.29
42.04
44.59
46.88
48.13
48.17
47.37
46.29
45.21
43.82
41.33
36.79
29.69
20.24
9.44
-1.33
-10.8
-18.36
-24.28
-29.58
-35.64
-43.77
-54.68
-68.16
-82.9
-96.59
-106.31
-109.33
-103.9
-89.9
-69.01
-44.24
-19.08
3.5
21.66
34.8
43.27
47.82
49.25
48.3
45.73
42.4
39.15
36.8
35.82
36.29
37.95
40.27
42.67
44.64
45.83
46.01
45.02
42.66
38.81
33.42
26.65
18.98
11.04
3.46
-3.43
-9.75
-16.07
-23.26
-32.14
-43.12
-55.84
-68.9
-80.0
-86.39
-85.68
-76.64
-59.85
-37.57
-13.08
10.23
29.87
44.61
54.32
59.5
60.73
58.61
53.81
47.33
40.5
34.74
31.09
29.89
30.67
32.49
34.31
35.51
35.95
35.77
35.1
33.69
30.95
26.26
19.3
10.36
0.28
-9.83
-19.01
-26.79
-33.36
-39.5
-46.3
-54.91
-66.09
-79.79
-94.79
-108.73
-118.47
-120.99
-114.42
-98.75
-76.02
-49.6
-23.23
0.11
18.78
32.39
41.41
46.53
48.39
47.58
44.85
41.27
38.06
36.22
36.2
37.74
39.96
41.91
42.95
43.0
42.45
41.72
40.89
39.51
36.78
31.95
24.78
15.71
5.75
-3.89
-12.32
-19.2
-24.88
-30.22
-36.34
-44.31
-54.82
-67.81
-82.15
-95.62
-105.28
-108.26
-102.72
-88.58
-67.65
-43.06
-18.29
3.81
21.57
34.5
42.88
47.34
48.52
47.12
43.95
40.03
36.42
34.02
33.3
34.24
36.37
39.02
41.61
43.71
45.11
45.64
45.06
43.08
39.41
33.98
27.06
19.19
11.03
3.16
-4.15
-10.93
-17.64
-24.99
-33.8
-44.62
-57.21
-70.25
-81.27
-87.31
-85.8
-75.66
-57.78
-34.87
-10.56
11.74
29.78
42.75
50.93
55.06
55.84
53.79
49.49
43.86
38.19
33.83
31.73
32.04
34.09
36.73
38.84
39.82
39.59
38.43
36.56
33.89
30.01
24.44
16.97
7.87
-2.07
-11.87
-20.65
-28.1
-34.55
-40.95
-48.5
-58.27
-70.68
-85.15
-99.9
-112.22
-119.03
-117.79
-107.37
-88.53
-63.83
-36.84
-11.1
10.8
27.71
39.65
47.32
51.46
52.66
51.4
48.36
44.5
41.0
38.82
38.42
39.51
41.32
42.93
43.74
43.6
42.74
41.41
39.61
36.99
32.96
27.11
19.4
10.31
0.65
-8.68
-17.05
-24.28
-30.65
-36.89
-43.95
-52.74
-63.81
-76.93
-90.72
-102.73
-109.9
-109.49
-100.08
-82.2
-58.3
-32.01
-6.99
14.09
29.98
40.69
46.97
49.72
49.71
47.63
44.18
40.25
36.78
34.57
34.06
35.16
37.39
40.08
42.59
44.44
45.32
45.0
43.22
39.75
34.48
27.6
19.61
11.29
3.37
-3.71
-10.01
-16.12
-22.96
-31.48
-42.26
-55.11
-68.72
-80.72
-88.17
-88.4
-80.02
-63.49
-41.13
-16.33
7.48
27.74
43.17
53.52
59.12
60.46
58.11
53.01
46.49
40.19
35.56
33.43
33.73
35.6
37.86
39.53
40.17
39.9
39.09
38.01
36.53
34.14
30.07
23.77
15.17
4.84
-6.2
-16.77
-26.04
-33.84
-40.71
-47.78
-56.31
-67.29
-80.81
-95.82
-110.07
-120.53
-124.19
-119.0
-104.64
-82.66
-56.15
-28.74
-3.63
17.13
32.83
43.71
50.51
53.96
54.64
53.1
50.07
46.59
43.84
42.78
43.77
46.35
49.44
51.81
52.61
51.77
49.82
47.51
45.3
42.98
39.84
35.04
28.09
19.18
9.1
-1.0
-10.13
-17.76
-23.97
-29.38
-34.97
-41.82
-50.84
-62.39
-76.06
-90.41
-103.01
-111.0
-111.82
-104.02
-87.9
-65.43
-39.78
-14.34
8.14
26.02
38.85
46.98
51.11
51.95
50.25
46.82
42.69
39.0
36.76
36.52
38.15
40.98
44.08
46.73
48.6
49.77
50.38
50.32
49.09
45.96
40.43
32.56
23.06
13.16
4.04
-3.56
-9.63
-14.85
-20.4
-27.49
-37.06
-49.2
-62.98
-76.3
-86.28
-90.02
-85.54
-72.59
-52.78
-29.17
-5.23
16.12
33.18
45.44
53.21
57.07
57.58
55.26
50.82
45.32
40.07
36.37
34.99
36.02
38.63
41.51
43.39
43.52
41.99
39.52
37.0
34.81
32.63
29.51
24.41
16.86
7.24
-3.29
-13.42
-22.16
-29.36
-35.57
-41.8
-49.14
-58.45
-70.17
-84.1
-99.16
-113.24
-123.45
-126.77
-121.09
-106.07
-83.43
-56.47
-29.0
-4.21
16.06
31.33
42.03
48.88
52.49
53.3
51.85
48.89
45.52
42.93
42.08
43.36
46.42
50.27
53.68
55.58
55.56
53.89
51.34
48.65
46.15
43.5
39.91
34.56
27.04
17.6
7.09
-3.41
-12.98
-21.16
-28.03
-34.17
-40.39
-47.55
-56.4
-67.34
-80.12
-93.61
-105.74
-113.83
-115.28
-108.45
-93.25
-71.39
-45.86
-20.07
3.05
21.74
35.39
44.28
49.13
50.63
49.44
46.3
42.15
38.14
35.37
34.56
35.77
38.38
41.44
44.07
45.84
46.78
47.16
47.13
46.44
44.48
40.64
34.63
26.76
17.88
9.05
1.13
-5.53
-11.2
-16.62
-22.8
-30.66
-40.73
-52.79
-65.71
-77.33
-84.96
-86.07
-79.18
-64.53
-44.11
-21.04
1.42
20.87
36.14
47.15
54.3
57.94
58.21
55.3
49.81
43.0
36.53
31.93
30.12
31.04
33.8
37.13
39.89
41.47
41.82
41.22
39.94
37.93
34.77
29.87
22.81
13.67
3.15
-7.62
-17.46
-25.62
-32.1
-37.63
-43.48
-51.0
-61.14
-74.13
-89.11
-104.11
-116.31
-122.61
-120.56
-109.19
-89.43
-63.98
-36.49
-10.48
11.55
28.49
40.42
48.02
52.03
53.04
51.54
48.2
43.99
40.09
37.62
37.25
39.0
42.21
45.83
48.83
50.49
50.62
49.49
47.57
45.23
42.49
39.0
34.2
27.62
19.17
9.31
-1.14
-11.2
-20.09
-27.54
-33.84
-39.75
-46.2
-54.14
-64.21
-76.57
-90.52
-104.4
-115.64
-121.3
-118.91
-107.42
-87.71
-62.48
-35.4
-10.0
11.32
27.62
39.11
46.58
50.77
52.17
51.15
48.27
44.46
40.86
38.54
38.19
39.77
42.69
45.97
48.7
50.31
50.7
50.14
48.97
47.37
45.12
41.73
36.64
29.54
20.69
10.87
1.18
-7.34
-14.18
-19.53
-24.19
-29.27
-35.79
-44.42
-55.29
-67.87
-80.87
-92.29
-99.62
-100.48
-93.3
-78.02
-56.29
-31.13
-5.93
16.44
34.27
47.07
55.15
59.05
59.26
56.32
51.0
44.48
38.25
33.65
31.47
31.73
33.69
36.3
38.56
39.92
40.33
40.03
39.26
37.99
35.8
32.08
26.32
18.45
8.97
-1.11
-10.7
-19.0
-25.89
-31.9
-38.1
-45.65
-55.48
-67.83
-82.01
-96.26
-107.95
-114.13
-112.4
-101.79
-83.16
-59.09
-33.09
-8.48
12.44
28.7
40.35
47.92
51.86
52.49
50.23
45.83
40.55
35.87
33.03
32.61
34.39
37.42
40.58
42.94
44.05
44.01
43.23
42.03
40.45
38.17
34.56
29.03
21.32
11.73
1.08
-9.5
-18.98
-26.82
-33.23
-39.01
-45.33
-53.29
-63.61
-76.3
-90.57
-104.65
-116.07
-122.03
-120.2
-109.51
-90.66
-66.06
-39.16
-13.41
8.64
25.83
38.19
46.36
51.11
52.97
52.37
49.85
46.3
42.86
40.64
40.34
41.99
44.91
48.05
50.41
51.44
51.17
50.05
48.57
46.9
44.66
41.14
35.57
27.6
17.59
6.55
-4.19
-13.47
-20.77
-26.37
-31.24
-36.7
-43.98
-53.8
-66.17
-80.17
-94.03
-105.25
-111.11
-109.38
-99.02
-80.75
-56.92
-30.98
-6.35
14.45
30.23
41.09
47.69
50.82
51.04
48.87
45.06
40.69
37.01
34.98
34.98
36.62
39.09
41.54
43.49
44.88
45.87
46.48
46.36
44.89
41.42
35.65
27.84
18.76
9.44
0.8
-6.65
-13.0
-18.88
-25.28
-33.25
-43.46
-55.79
-69.04
-80.95
-88.68
-89.58
-82.15
-66.61
-44.96
-20.41
3.57
24.19
39.82
50.1
55.49
56.86
55.12
51.13
45.8
40.12
35.05
31.45
29.78
29.99
31.57
33.77
35.86
37.28
37.77
37.14
35.18
31.6
26.08
18.61
9.54
-0.35
-10.09
-18.93
-26.63
-33.61
-40.85
-49.49
-60.43
-73.73
-88.33
-101.92
-111.41
-113.75
-106.97
-91.03
-67.95
-41.26
-14.87
8.12
26.06
38.72
46.76
50.98
52.08
50.59
47.17
42.8
38.63
35.69
34.5
34.98
36.54
38.42
40.04
41.13
41.63
41.51
40.51
38.2
34.02
27.66
19.25
9.44
-0.77
-10.33
-18.57
-25.42
-31.5
-37.97
-46.14
-56.94
-70.4
-85.3
-99.19
-108.95
-111.65
-105.54
-90.71
-69.11
-43.95
-18.68
3.86
22.02
35.33
44.1
49.03
50.87
50.36
48.31
45.63
43.28
42.05
42.35
44.08
46.61
49.14
50.96
51.72
51.49
50.53
48.98
46.7
43.23
38.08
31.09
22.62
13.48
4.63
-3.28
-10.14
-16.38
-22.82
-30.33
-39.63
-51.02
-64.14
-77.73
-89.69
-97.33
-98.19
-90.78
-75.34
-53.83
-29.38
-5.38
15.51
31.87
43.39
50.54
54.02
54.54
52.79
49.58
45.83
42.54
40.53
40.27
41.71
44.39
47.52
50.32
52.15
52.63
51.6
49.06
45.02
39.58
32.91
25.4
17.56
9.94
2.91
-3.55
-9.85
-16.82
-25.32
-35.89
-48.22
-60.95
-71.71
-77.74
-76.76
-67.8
-51.68
-30.78
-8.28
12.82
30.51
43.85
52.83
57.81
59.22
57.56
53.55
48.24
42.93
38.85
36.85
37.03
38.82
41.18
43.06
43.81
43.35
42.01
40.23
38.12
35.28
31.02
24.71
16.32
6.49
-3.65
-12.93
-20.65
-26.86
-32.29
-38.04
-45.26
-54.83
-67.04
-81.34
-96.08
-108.66
-116.1
-115.84
-106.72
-89.48
-66.63
-41.56
-17.53
3.25
19.89
32.51
41.64
47.73
51.02
51.69
50.26
47.69
45.25
44.1
44.86
47.31
50.58
53.43
54.89
54.57
52.73
50.09
47.3
44.65
41.88
38.35
33.34
26.5
18.03
8.62
-0.74
-9.19
-16.34
-22.32
-27.77
-33.57
-40.62
-49.6
-60.77
-73.68
-86.97
-98.43
-105.36
-105.39
-97.31
-81.61
-60.42
-36.83
-13.92
6.04
21.88
33.37
40.79
44.6
45.35
43.8
40.93
37.88
35.68
34.96
35.85
37.98
40.67
43.26
45.24
46.47
46.99
46.94
46.31
44.8
41.97
37.4
31.02
23.28
15.05
7.33
0.84
-4.33
-8.73
-13.43
-19.63
-28.24
-39.49
-52.63
-65.89
-76.73
-82.44
-80.98
-71.68
-55.56
-35.08
-13.37
6.75
23.48
36.12
44.85
50.06
52.11
51.21
47.74
42.56
37.02
32.67
30.68
31.38
34.14
37.67
40.56
41.89
41.43
39.6
37.07
34.35
31.5
28.13
23.61
17.38
9.39
0.12
-9.44
-18.21
-25.43
-30.98
-35.46
-39.95
-45.71
-53.71
-64.37
-77.31
-91.21
-103.92
-112.72
-114.99
-109.02
-94.72
-73.82
-49.43
-25.09
-3.66
13.35
25.8
34.44
40.23
43.77
45.34
45.09
43.39
40.98
38.87
37.92
38.58
40.65
43.43
46.0
47.64
47.98
47.1
45.38
43.21
40.78
37.98
34.42
29.63
23.33
15.56
