0
-0.5
-7.54
-13.67
-18.84
-23.27
-27.31
-31.48
-36.33
-42.38
-50.02
-59.17
-69.06
-78.1
-84.06
-84.62
-78.15
-64.42
-44.76
-21.78
1.42
22.12
38.62
50.36
57.64
61.2
61.79
60.11
56.77
52.55
48.21
44.53
42.01
40.85
40.89
41.77
43.07
44.41
45.5
46.13
46.1
45.23
43.36
40.42
36.45
31.57
25.95
19.81
13.3
6.57
-0.26
-7.06
-13.63
-19.76
-25.19
-29.79
-33.67
-37.26
-41.25
-46.41
-53.33
-61.99
-71.46
-79.87
-84.81
-83.99
-76.06
-61.18
-41.04
-18.35
4.0
23.63
39.19
50.26
57.04
59.99
59.52
56.13
50.49
43.58
36.59
30.69
26.8
25.28
25.88
27.87
30.3
32.32
33.44
33.6
32.97
31.81
30.1
27.52
23.64
18.11
11.01
2.88
-5.44
-13.15
-19.73
-25.15
-29.69
-33.89
-38.29
-43.4
-49.6
-56.99
-65.14
-72.91
-78.49
-79.8
-75.2
-64.1
-47.29
-26.72
-5.01
15.35
32.51
45.5
54.11
58.71
59.86
58.21
54.5
49.51
44.15
39.34
35.92
34.4
34.84
36.84
39.69
42.63
45.07
46.65
47.18
46.55
44.61
41.2
36.23
29.81
22.17
13.61
4.36
-5.39
-15.38
-25.26
-34.56
-42.77
-49.6
-55.04
-59.51
-63.72
-68.54
-74.76
-82.68
-91.86
-100.94
-107.76
-109.92
-105.55
-93.95
-75.96
-53.74
-30.14
-7.89
11.08
25.81
36.22
42.81
46.25
47.19
46.25
43.97
40.99
37.97
35.52
34.13
33.99
34.99
36.78
38.93
41.03
42.71
43.67
43.66
42.53
40.22
36.88
32.85
28.48
24.03
19.5
14.68
9.29
3.2
-3.51
-10.49
-17.27
-23.4
-28.59
-32.85
-36.48
-40.04
-44.33
-50.13
-57.87
-67.31
-77.25
-85.62
-89.88
-87.86
-78.48
-62.23
-41.11
-17.99
4.15
23.03
37.42
47.09
52.45
54.22
53.13
49.93
45.37
40.23
35.3
31.19
28.34
26.91
26.82
27.85
29.75
32.28
35.17
38.06
40.48
41.8
41.42
38.97
34.47
28.38
21.44
14.43
7.87
1.9
-3.66
-9.15
-14.83
-20.75
-26.77
-32.69
-38.41
-44.01
-49.73
-55.85
-62.5
-69.46
-76.04
-81.03
-82.95
-80.38
-72.4
-59.04
-41.31
-21.07
-0.6
17.97
33.09
44.04
50.88
54.29
55.16
54.37
52.61
50.28
47.64
44.89
42.3
40.11
38.51
37.42
36.56
35.49
33.83
31.44
28.44
25.14
21.84
18.72
15.75
12.8
9.69
6.39
3.01
-0.26
-3.29
-6.15
-9.17
-12.88
-17.85
-24.53
-33.11
-43.46
-55.03
-66.71
-76.82
-83.3
-84.1
-77.82
-64.42
-45.39
-23.48
-1.91
16.6
30.49
39.53
44.47
46.39
46.22
44.56
41.8
38.36
34.85
32.11
30.94
31.85
34.8
39.27
44.32
48.97
52.38
54.06
53.87
51.92
48.44
43.58
37.45
30.08
21.52
11.91
1.53
-9.19
-19.74
-29.57
-38.29
-45.68
-51.84
-57.11
-62.14
-67.65
-74.28
-82.25
-91.04
-99.25
-104.7
-105.07
-98.62
-84.91
-65.06
-41.49
-17.21
5.06
23.44
37.09
46.05
50.79
52.0
50.38
46.7
41.83
36.73
32.34
29.47
28.56
29.63
32.27
35.78
39.35
42.34
44.36
45.33
45.38
44.7
43.39
41.39
38.5
34.5
29.27
22.94
15.91
8.78
2.11
-3.7
-8.59
-12.75
-16.54
-20.39
-24.74
-30.04
-36.67
-44.67
-53.4
-61.4
-66.53
-66.57
-60.06
-46.84
-28.37
-7.21
13.72
31.93
45.9
55.11
59.8
60.65
58.41
53.86
47.76
40.93
34.21
28.38
24.06
21.54
20.76
21.34
22.68
24.17
25.28
25.68
25.19
23.8
21.6
18.64
14.93
10.33
4.69
-2.03
-9.62
-17.61
-25.32
-32.12
-37.65
-41.85
-45.01
-47.6
-50.25
-53.56
-58.05
-63.93
-70.8
-77.48
-82.1
-82.56
-77.23
-65.6
-48.55
-28.1
-6.85
12.82
29.17
41.3
48.99
52.46
52.11
48.56
42.65
35.48
28.38
22.62
19.11
18.14
19.32
21.76
24.48
26.73
28.2
29.02
29.44
29.55
29.12
27.62
24.47
19.33
12.3
3.93
-4.91
-13.3
-20.6
-26.6
-31.62
-36.38
-41.74
-48.37
-56.51
-65.68
-74.66
-81.58
-84.37
-81.36
-71.82
-56.34
-36.74
-15.6
4.54
21.73
35.03
44.37
50.15
52.86
52.93
50.75
46.86
42.07
37.37
33.72
31.81
31.93
33.94
37.47
42.04
47.18
52.4
57.14
60.81
62.76
62.45
59.5
53.77
45.41
34.83
22.71
9.96
-2.37
-13.35
-22.41
-29.55
-35.43
-41.22
-48.18
-57.24
-68.57
-81.33
-93.75
-103.48
-108.14
-106.05
-96.73
-81.17
-61.6
-40.93
-21.98
-6.75
3.86
10.04
12.68
12.84
11.46
9.31
6.93
4.9
3.83
4.21
6.32
10.03
14.8
19.82
24.25
27.43
29.02
28.98
27.46
24.66
20.71
15.65
9.45
2.08
-6.36
-15.59
-25.12
-34.33
-42.65
-49.66
-55.25
-59.55
-62.97
-66.04
-69.39
-73.7
-79.49
-86.75
-94.61
-101.19
-103.94
-100.4
-89.17
-70.55
-46.62
-20.59
4.18
25.1
40.83
51.25
57.01
59.08
58.46
56.07
52.76
49.42
46.89
45.86
46.69
49.34
53.36
58.05
62.69
66.76
70.03
72.51
74.25
75.19
75.13
73.78
70.9
66.42
60.51
53.51
45.82
37.85
29.89
22.11
14.59
7.27
-0.0
-7.46
-15.43
-24.33
-34.48
-46.03
-58.57
-70.99
-81.45
-87.76
-87.98
-81.11
-67.52
-48.91
-27.86
-7.07
11.26
25.84
36.18
42.41
44.94
44.35
41.4
37.03
32.41
28.66
26.69
26.86
28.94
32.13
35.42
37.89
39.04
38.8
37.48
35.45
32.89
29.67
25.39
19.65
12.34
3.81
-5.14
-13.5
-20.44
-25.58
-29.19
-32.06
-35.3
-39.99
-46.89
-56.16
-67.2
-78.53
-88.02
-93.25
-92.25
-84.09
-69.32
-49.92
-28.63
-8.19
9.38
23.05
32.66
38.52
41.12
40.97
38.72
35.19
31.39
28.31
26.73
27.03
29.13
32.55
36.56
40.32
43.08
44.34
43.94
42.07
39.15
35.62
31.75
27.55
22.92
17.76
12.11
6.18
0.35
-5.07
-9.84
-13.89
-17.35
-20.52
-23.87
-27.99
-33.54
-41.0
-50.45
-61.19
-71.68
-79.58
-82.35
-78.05
-66.08
-47.57
-25.14
-2.15
18.36
34.4
45.39
51.8
54.64
54.95
53.55
50.97
47.74
44.39
41.46
39.4
38.46
38.64
39.72
41.38
43.28
45.16
46.81
48.07
48.7
48.43
46.92
43.95
39.55
34.03
27.94
21.81
15.96
10.43
5.11
-0.15
-5.36
-10.41
-15.21
-19.84
-24.52
-29.57
-35.38
-42.28
-50.52
-60.03
-70.24
-79.81
-86.72
-88.7
-84.06
-72.46
-55.17
-34.77
-14.23
3.95
18.31
28.48
34.79
37.82
38.06
35.96
32.02
27.02
21.88
17.49
14.47
12.99
12.83
13.51
14.61
15.77
16.81
17.54
17.71
17.0
15.16
12.09
7.99
3.17
-2.02
-7.36
-12.74
-18.1
-23.35
-28.31
-32.79
-36.67
-39.89
-42.52
-44.71
-46.8
-49.24
-52.64
-57.59
-64.35
-72.53
-80.88
-87.51
-90.2
-87.15
-77.51
-61.73
-41.54
-19.51
1.63
19.71
33.48
42.76
48.06
50.14
49.65
47.03
42.74
37.39
31.93
27.47
24.9
24.61
26.29
29.07
31.88
33.86
34.6
34.23
33.14
31.73
30.1
27.98
24.88
20.31
14.21
7.0
-0.44
-7.2
-12.65
-16.73
-19.94
-23.1
-27.05
-32.38
-39.42
-48.08
-57.82
-67.52
-75.45
-79.55
-77.93
-69.6
-54.89
-35.53
-14.16
6.44
24.15
37.93
47.74
54.12
57.78
59.26
58.95
57.2
54.5
51.49
48.91
47.36
47.08
47.94
49.51
51.22
52.6
53.33
53.27
52.39
50.64
48.02
44.47
40.07
34.93
29.22
23.12
16.77
10.29
3.8
-2.56
-8.65
-14.33
-19.51
-24.19
-28.53
-32.83
-37.64
-43.64
-51.34
-60.72
-70.85
-79.81
-85.1
-84.43
-76.58
-61.9
-42.22
-20.27
1.18
19.98
34.96
45.73
52.43
55.51
55.52
53.2
49.43
45.19
41.34
38.48
36.83
36.3
36.6
37.36
38.31
39.25
40.03
40.5
40.43
39.56
37.68
34.67
30.62
25.76
20.42
14.92
9.46
4.05
-1.41
-7.03
-12.78
-18.47
-23.78
-28.46
-32.56
-36.42
-40.67
-46.03
-52.96
-61.37
-70.38
-78.38
-83.35
-83.42
-77.42
-65.33
-48.36
-28.58
-8.42
9.97
25.09
36.18
43.08
46.01
45.39
41.85
36.25
29.64
23.24
18.15
15.12
14.4
15.65
18.11
20.88
23.22
24.67
25.11
24.65
23.5
21.75
19.32
15.95
11.4
5.62
-1.13
-8.21
-14.82
-20.34
-24.54
-27.69
-30.47
-33.7
-38.1
-44.01
-51.29
-59.18
-66.32
-70.9
-71.09
-65.62
-54.23
-37.91
-18.67
1.02
18.89
33.35
43.7
49.96
52.61
52.34
49.9
46.05
41.54
37.09
33.35
30.83
29.78
30.16
31.64
33.65
35.59
36.95
37.4
36.79
35.17
32.57
29.05
24.69
19.57
13.84
7.68
1.3
-5.12
-11.38
-17.31
-22.72
-27.52
-31.69
-35.34
-38.77
-42.44
-46.91
-52.71
-60.13
-68.82
-77.66
-84.79
-88.01
-85.44
-76.17
-60.68
-40.73
-18.94
2.07
20.21
34.32
44.22
50.3
53.22
53.6
51.97
48.86
44.9
40.85
37.48
35.37
34.72
35.35
36.8
38.59
40.34
41.76
42.61
42.61
41.42
38.86
35.0
30.22
25.1
20.15
15.6
11.35
7.06
2.35
-2.95
-8.75
-14.75
-20.56
-25.8
-30.26
-33.89
-36.98
-40.11
-44.14
-49.88
-57.72
-67.07
-76.3
-82.93
-84.41
-79.04
-66.64
-48.73
-27.96
-7.25
11.06
25.64
36.14
42.83
46.13
46.42
44.11
39.79
34.34
28.89
24.54
22.05
21.69
23.17
25.79
28.71
31.15
32.65
33.07
32.54
31.3
29.52
27.16
23.99
19.71
14.12
7.3
-0.37
-8.22
-15.56
-21.83
-26.78
-30.53
-33.43
-36.1
-39.18
-43.26
-48.67
-55.26
-62.24
-68.12
-71.05
-69.28
-61.81
-48.82
-31.74
-12.86
5.34
20.84
32.46
39.92
43.6
44.17
42.37
38.88
34.38
29.55
25.1
21.6
19.48
18.88
19.67
21.53
23.95
26.37
28.24
29.16
28.92
27.59
25.44
22.78
19.79
16.44
12.45
7.54
1.55
-5.32
-12.59
-19.62
-25.81
-30.8
-34.64
-37.74
-40.77
-44.54
-49.74
-56.75
-65.3
-74.39
-82.24
-86.72
-85.89
-78.59
-64.96
-46.47
-25.54
-4.83
13.39
27.74
37.73
43.63
46.08
45.83
43.63
40.2
36.24
32.43
29.38
27.53
27.1
28.0
29.95
32.47
35.06
37.33
39.02
40.02
40.21
39.42
37.44
34.15
29.67
24.41
18.94
13.71
8.94
4.47
-0.04
-4.86
-10.05
-15.37
-20.49
-25.09
-29.07
-32.63
-36.23
-40.56
-46.29
-53.84
-62.95
-72.47
-80.41
-84.42
-82.5
-73.7
-58.58
-38.98
-17.55
3.04
20.68
34.1
42.92
47.4
48.2
46.19
42.35
37.66
33.07
29.36
27.05
26.32
27.07
28.94
31.51
34.41
37.35
40.14
42.52
44.16
44.64
43.59
40.85
36.57
31.22
25.39
19.62
14.22
9.22
4.42
-0.45
-5.54
-10.86
-16.22
-21.33
-25.94
-29.92
-33.37
-36.61
-40.16
-44.69
-50.74
-58.43
-67.12
-75.29
-80.8
-81.44
-75.75
-63.53
-46.06
-25.72
-5.25
12.97
27.43
37.57
43.53
45.83
45.12
42.07
37.34
31.78
26.3
21.82
19.08
18.44
19.8
22.71
26.49
30.51
34.23
37.26
39.24
39.82
38.75
35.98
31.73
26.48
20.77
15.0
9.33
3.7
-2.04
-7.93
-13.86
-19.59
-24.86
-29.43
-33.21
-36.35
-39.24
-42.57
-47.12
-53.51
-61.72
-70.84
-78.96
-83.67
-82.75
-74.9
-60.3
-40.62
-18.51
3.15
21.97
36.5
46.33
51.81
53.66
52.69
49.64
45.21
40.2
35.45
31.85
30.07
30.38
32.58
36.05
39.93
43.46
46.05
47.5
47.88
47.4
46.26
44.48
41.91
38.31
33.56
27.75
21.28
14.71
8.61
3.33
-1.11
-4.96
-8.61
-12.39
-16.45
-20.69
-24.86
-28.66
-31.99
-34.94
-37.88
-41.29
-45.73
-51.68
-59.52
-69.21
-80.04
-90.44
-98.18
-100.8
-96.41
-84.46
-65.95
-43.22
-19.22
3.28
22.23
36.55
45.94
50.78
51.79
49.93
46.28
41.87
37.59
34.12
31.95
31.36
32.42
34.93
38.41
42.25
45.75
48.42
50.02
50.59
50.23
49.09
47.17
44.37
40.61
35.88
30.39
24.49
18.64
13.25
8.59
4.65
1.19
-2.22
-6.01
-10.45
-15.49
-20.79
-25.82
-30.13
-33.58
-36.42
-39.23
-42.73
-47.52
-54.04
-62.33
-72.05
-82.24
-91.28
-97.05
-97.36
-90.71
-76.91
-57.31
-34.56
-11.7
8.69
25.05
36.98
44.87
49.27
50.65
49.33
45.72
40.59
35.05
30.36
27.5
26.95
28.45
31.31
34.67
37.82
40.46
42.53
44.13
45.2
45.49
44.53
41.91
37.47
31.46
24.57
17.69
11.64
6.89
3.39
0.66
-2.03
-5.35
-9.63
-14.84
-20.51
-26.04
-30.82
-34.54
-37.24
-39.35
-41.61
-44.89
-49.94
-57.11
-66.02
-75.4
-83.24
-87.17
-85.19
-76.32
-61.01
-41.1
-19.2
2.02
20.46
34.87
44.8
50.35
51.88
49.95
45.32
39.01
32.23
26.13
21.69
19.52
19.71
21.92
25.41
29.33
32.91
35.67
37.5
38.53
38.96
38.79
37.78
35.54
31.84
26.73
20.65
14.32
8.42
3.37
-0.79
-4.39
-7.92
-11.83
-16.33
-21.32
-26.4
-31.11
-35.09
-38.3
-40.99
-43.69
-47.04
-51.67
-58.11
-66.54
-76.63
-87.18
-96.22
-101.22
-99.89
-90.98
-74.79
-53.21
-29.13
-5.6
14.94
31.1
42.43
49.19
51.97
51.53
48.66
44.3
39.43
35.01
31.86
30.45
30.92
32.95
36.02
39.47
42.72
45.32
47.04
47.83
47.76
46.95
45.48
43.33
40.35
36.41
31.45
25.62
19.35
13.21
7.72
3.2
-0.38
-3.33
-6.06
-8.94
-12.18
-15.81
-19.74
-23.8
-27.83
-31.75
-35.59
-39.53
-43.91
-49.27
-56.15
-64.89
-75.18
-85.86
-94.85
-99.66
-98.07
-88.97
-72.79
-51.46
-27.82
-4.74
15.54
31.72
43.43
50.82
54.31
54.42
51.79
47.25
41.83
36.65
32.69
30.64
30.75
32.78
36.15
40.13
44.09
47.54
50.22
52.01
52.86
52.76
51.62
49.37
45.96
41.45
35.99
29.92
23.63
17.53
11.94
7.02
2.73
-1.17
-5.01
-9.07
-13.51
-18.31
-23.28
-28.17
-32.77
-36.92
-40.63
-44.12
-47.88
-52.59
-58.96
-67.35
-77.31
-87.36
-95.2
-98.27
-94.65
-83.71
-66.4
-44.9
-21.97
-0.16
18.63
33.4
43.81
49.98
52.26
51.21
47.52
42.1
36.0
30.25
25.73
23.02
22.32
23.46
26.05
29.56
33.53
37.56
41.31
44.44
46.53
47.1
45.7
42.11
36.49
29.41
21.81
14.64
8.57
3.71
-0.33
-4.26
-8.71
-13.96
-19.84
-25.82
-31.29
-35.81
-39.28
-41.94
-44.36
-47.32
-51.65
-57.95
-66.32
-75.96
-85.13
-91.38
-92.24
-86.03
-72.47
-52.91
-29.92
-6.52
14.65
31.81
44.19
51.79
55.05
54.6
51.21
45.76
39.33
33.06
28.0
24.87
23.97
25.08
27.68
31.12
34.8
38.36
41.6
44.4
46.6
47.96
48.09
46.67
43.51
38.67
32.48
25.51
18.4
11.74
5.91
0.93
-3.43
-7.6
-11.98
-16.8
-21.98
-27.2
-31.99
-36.0
-39.08
-41.44
-43.56
-46.14
-49.93
-55.55
-63.25
-72.54
-82.08
-89.71
-92.91
-89.54
-78.63
-60.75
-38.02
-13.39
10.16
30.33
45.88
56.49
62.47
64.4
62.98
58.97
53.33
47.11
41.44
37.32
35.38
35.77
38.08
41.54
45.23
48.44
50.75
52.12
52.71
52.61
51.74
49.81
46.49
41.61
35.32
28.06
20.49
13.27
6.83
1.36
-3.36
-7.74
-12.29
-17.43
-23.26
-29.53
-35.77
-41.47
-46.32
-50.34
-53.91
-57.63
-62.19
-68.21
-76.1
-85.77
-96.4
-106.29
-113.1
-114.44
-108.64
-95.41
-76.05
-53.06
-29.41
-7.7
10.34
24.01
33.31
38.69
40.71
39.98
37.2
33.16
28.79
24.99
22.49
21.66
22.52
24.76
27.95
31.64
35.49
39.16
42.3
44.51
45.34
44.5
41.94
37.88
32.75
26.98
20.95
14.86
8.77
2.72
-3.25
-9.01
-14.38
-19.15
-23.23
-26.67
-29.78
-33.14
-37.49
-43.56
-51.64
-61.26
-70.94
-78.39
-81.16
-77.38
-66.53
-49.69
-29.17
-7.76
12.03
28.55
41.03
49.37
53.81
54.71
52.63
48.36
42.91
37.35
32.6
29.23
27.5
27.41
28.81
31.46
34.97
38.83
42.36
44.86
45.81
44.9
42.18
37.98
32.79
27.06
21.1
14.99
8.65
1.92
-5.25
-12.76
-20.24
-27.24
-33.35
-38.36
-42.39
-45.9
-49.61
-54.4
-60.97
-69.48
-79.21
-88.43
-94.72
-95.61
-89.44
-75.95
-56.47
-33.44
-9.8
11.82
29.58
42.56
50.64
54.28
54.37
52.0
48.28
44.29
40.85
38.46
37.34
37.48
38.65
40.54
42.8
45.14
47.38
49.4
51.02
51.94
51.73
50.0
46.57
41.59
35.54
29.03
22.58
16.47
10.68
5.04
-0.65
-6.45
-12.2
-17.64
-22.47
-26.57
-30.08
-33.43
-37.33
-42.58
-49.82
-59.2
-70.07
-80.81
-89.0
-92.06
-88.02
-76.32
-58.08
-35.81
-12.63
8.67
26.21
39.27
47.91
52.64
54.05
52.77
49.5
45.08
40.42
36.34
33.45
32.04
32.08
33.29
35.29
37.62
39.91
41.78
42.97
43.26
42.46
40.43
37.1
32.59
27.18
21.26
15.21
9.26
3.44
-2.32
-8.02
-13.59
-18.79
-23.4
-27.26
-30.47
-33.34
-36.41
-40.36
-45.88
-53.34
-62.46
-72.06
-80.06
-84.0
-81.8
-72.56
-56.98
-37.15
-15.91
4.07
20.95
33.86
42.7
47.73
49.28
47.72
43.61
37.81
31.51
25.98
22.21
20.71
21.42
23.81
27.17
30.81
34.21
37.03
39.01
39.89
39.46
37.55
34.2
29.66
24.33
18.55
12.55
6.32
-0.19
-6.96
-13.77
-20.16
-25.69
-30.12
-33.61
-36.56
-39.63
-43.47
-48.66
-55.56
-64.11
-73.53
-82.2
-87.84
-88.13
-81.5
-67.86
-48.77
-26.94
-5.35
13.61
28.68
39.64
46.89
51.02
52.54
51.93
49.7
46.61
43.48
41.1
39.94
40.08
41.21
42.85
44.54
46.01
47.2
48.19
49.05
49.69
49.82
49.03
46.9
43.21
38.09
31.98
25.5
19.25
13.58
8.52
3.79
-0.98
-6.09
-11.55
-17.09
-22.28
-26.8
-30.54
-33.78
-37.09
-41.19
-46.81
-54.47
-64.17
-75.14
-85.7
-93.48
-96.01
-91.51
-79.6
-61.5
-39.65
-16.96
4.01
21.63
35.23
44.83
50.8
53.59
53.71
51.81
48.68
45.19
42.16
40.19
39.54
40.12
41.55
43.34
45.05
46.41
47.4
48.11
48.61
48.77
48.18
46.34
42.85
37.61
31.03
23.91
17.14
11.41
6.95
3.45
0.23
-3.4
-7.83
-13.06
-18.67
-24.05
-28.69
-32.33
-35.11
-37.5
-40.24
-44.19
-50.1
-58.24
-68.1
-78.24
-86.45
-90.29
-87.84
-78.39
-62.7
-42.8
-21.46
-1.35
15.49
27.98
35.96
39.89
40.53
38.68
35.12
30.55
25.71
21.35
18.18
16.75
17.26
19.49
22.92
26.83
30.55
33.53
35.42
36.05
35.34
33.37
30.26
26.24
21.54
16.35
10.77
4.88
-1.25
-7.47
-13.5
-19.06
-23.9
-27.95
-31.32
-34.37
-37.65
-41.85
-47.59
-55.13
-64.01
-72.87
-79.6
-81.86
-77.84
-66.95
-50.15
-29.74
-8.64
10.42
25.57
36.09
42.19
44.65
44.35
42.08
38.47
34.17
29.87
26.32
24.09
23.51
24.51
26.72
29.62
32.7
35.62
38.08
39.81
40.49
39.78
37.5
33.71
28.76
23.15
17.34
11.58
5.86
-0.03
-6.29
-12.95
-19.73
-26.19
-31.83
-36.35
-39.75
-42.44
-45.19
-48.97
-54.58
-62.34
-71.67
-80.93
-87.77
-89.72
-85.01
-73.24
-55.6
-34.48
-12.76
6.98
23.04
34.67
41.98
45.56
46.19
44.71
41.87
38.44
35.1
32.37
30.58
29.88
30.15
31.19
32.75
34.58
36.48
38.24
39.6
40.25
39.86
38.22
35.23
31.05
26.07
20.74
15.45
10.38
5.44
0.34
-5.15
-11.03
-17.0
-22.52
-27.13
-30.72
-33.62
-36.51
-40.25
-45.5
-52.58
-61.23
-70.51
-78.83
-84.17
-84.56
-78.59
-66.08
-48.21
-27.33
-6.25
12.49
27.24
37.42
43.34
45.76
45.51
43.35
39.85
35.61
31.22
27.34
24.55
23.27
23.65
25.49
28.35
31.56
34.44
36.43
37.19
36.64
34.91
32.2
28.69
24.52
19.72
14.29
8.26
1.76
-4.98
-11.58
-17.68
-22.95
-27.27
-30.7
-33.56
-36.33
-39.6
-43.97
-49.89
-57.34
-65.64
-73.32
-78.32
-78.57
-72.75
-60.81
-44.06
-24.79
-5.53
11.65
25.48
35.5
41.83
44.84
44.99
42.81
38.99
34.31
29.67
25.85
23.43
22.72
23.67
25.97
29.12
32.56
35.72
38.13
39.42
39.36
37.87
35.07
31.15
26.38
20.98
15.12
8.92
2.53
-3.91
-10.15
-15.98
-21.22
-25.83
-29.84
-33.46
-36.98
-40.86
-45.65
-51.87
-59.73
-68.78
-77.7
-84.39
-86.53
-82.36
-71.34
-54.54
-34.28
-13.42
5.5
20.88
32.12
39.46
43.47
44.78
43.91
41.39
37.85
34.04
30.71
28.5
27.75
28.47
30.34
32.84
35.44
37.76
39.64
41.11
42.19
42.76
42.49
40.96
37.83
33.06
27.03
20.44
14.07
8.53
3.96
0.05
-3.83
-8.3
-13.67
-19.73
-25.88
-31.35
-35.59
-38.52
-40.58
-42.6
-45.55
-50.24
-57.15
-66.1
-76.12
-85.4
-91.52
-92.08
-85.48
-71.58
-51.89
-29.12
-6.39
13.67
29.52
40.69
47.5
50.71
51.04
49.23
46.01
42.12
38.35
35.42
33.84
33.74
34.91
36.85
38.99
40.87
42.27
43.25
43.91
44.31
44.28
43.52
41.64
38.41
33.89
28.39
22.48
16.76
11.77
7.74
4.64
2.1
-0.4
-3.33
-6.95
-11.13
-15.53
-19.74
-23.52
-26.93
-30.3
-34.09
-38.8
-44.86
-52.55
-61.78
-71.83
-81.21
-87.77
-89.26
-84.09
-72.0
-54.3
-33.49
-12.44
6.44
21.72
32.96
40.34
44.28
45.19
43.49
39.75
34.77
29.52
24.93
21.66
19.99
19.86
20.98
23.02
25.59
28.37
31.03
33.22
34.59
34.76
33.51
30.79
26.77
21.83
16.41
10.88
5.41
-0.05
-5.55
-11.11
-16.52
-21.46
-25.66
-29.05
-31.86
-34.61
-37.94
-42.5
-48.72
-56.51
-65.02
-72.6
-77.1
-76.47
-69.53
-56.38
-38.56
-18.47
1.22
18.41
31.83
41.07
46.34
48.09
46.93
43.52
38.62
33.07
27.75
23.42
20.58
19.44
19.92
21.73
24.45
27.62
30.78
33.43
35.09
35.32
33.88
30.76
26.25
20.84
15.05
9.27
3.61
-2.01
-7.81
-13.87
-20.14
-26.36
-32.17
-37.26
-41.49
-45.01
-48.22
-51.76
-56.37
-62.66
-70.66
-79.53
-87.46
-92.02
-90.87
-82.66
-67.57
-47.36
-24.85
-2.95
16.04
30.86
41.28
47.68
50.69
50.97
49.14
45.92
42.05
38.3
35.28
33.35
32.55
32.7
33.5
34.69
36.13
37.73
39.38
40.83
41.68
41.39
39.55
35.95
30.81
24.65
18.25
12.26
7.08
2.67
-1.39
-5.63
-10.46
-15.89
-21.58
-26.9
-31.33
-34.7
-37.31
-39.87
-43.33
-48.55
-56.0
-65.45
-75.77
-84.99
-90.67
-90.61
-83.56
-69.75
-50.81
-29.34
-8.04
10.92
26.3
37.68
45.22
49.32
50.46
49.2
46.24
42.39
38.53
35.46
33.72
33.57
34.82
37.04
39.61
41.96
43.73
44.89
45.52
45.73
45.47
44.45
42.3
38.71
33.71
27.67
21.28
15.31
10.26
6.2
2.77
-0.68
-4.75
-9.69
-15.29
-20.99
-26.1
-30.17
-33.15
-35.46
-37.79
-40.94
-45.65
-52.35
-60.96
-70.7
-80.05
-86.87
-88.94
-84.66
-73.59
-56.67
-36.02
-14.33
5.86
22.68
35.16
43.19
47.15
47.7
45.57
41.56
36.52
31.4
27.1
24.34
23.41
24.17
26.15
28.79
31.6
34.36
36.97
39.29
41.01
41.62
40.65
37.88
33.49
28.01
22.16
16.54
11.46
6.87
2.44
-2.22
-7.35
-12.91
-18.56
-23.85
-28.38
-32.07
-35.15
-38.24
-42.15
-47.63
-55.06
-64.17
-73.79
-81.95
-86.32
-84.87
-76.6
-61.99
-42.89
-21.96
-1.87
15.41
28.9
38.42
44.31
46.98
46.83
44.34
40.22
35.42
31.01
27.88
26.49
26.77
28.26
30.38
32.72
35.1
37.5
39.91
42.01
43.28
43.08
40.99
36.96
31.45
25.19
18.95
13.27
8.29
3.77
-0.74
-5.64
-11.15
-17.14
-23.26
-29.03
-34.1
-38.33
-41.9
-45.31
-49.21
-54.29
-60.99
-69.3
-78.5
-87.04
-92.74
-93.33
-87.23
-74.12
-55.25
-33.07
-10.56
9.71
26.1
38.01
45.67
49.66
50.67
49.38
46.52
42.91
39.41
36.78
35.49
35.67
37.11
39.34
41.87
44.28
46.4
48.2
49.74
50.95
51.57
51.2
49.37
45.83
40.69
34.4
27.68
21.22
15.46
10.51
6.09
1.75
-2.92
-8.1
-13.61
-19.03
-23.88
-27.82
-30.91
-33.55
-36.38
-40.16
-45.52
-52.79
-61.82
-71.78
-81.12
-87.75
-89.47
-84.76
-73.27
-56.15
-35.68
-14.6
4.66
20.53
32.39
40.26
44.5
45.58
44.05
40.64
36.24
31.86
28.41
26.48
26.29
27.64
30.08
33.13
36.34
39.36
41.96
43.9
44.9
44.69
43.05
40.0
35.77
30.76
25.37
19.84
14.21
8.42
2.38
-3.81
-9.96
-15.78
-21.02
-25.5
-29.18
-32.19
-34.91
-37.95
-42.13
-48.15
-56.17
-65.44
-74.23
-80.18
-81.06
-75.5
-63.53
-46.57
-26.92
-7.12
10.73
25.3
36.02
42.9
46.27
46.59
44.45
40.6
35.98
31.57
28.27
26.64
26.83
28.56
31.3
34.45
37.53
40.26
42.47
44.06
44.77
44.28
42.26
38.52
33.18
26.67
19.69
12.96
6.95
1.75
-2.97
-7.75
-13.05
-18.92
-25.05
-30.92
-35.98
-39.99
-43.09
-45.83
-49.02
-53.58
-60.23
-69.14
-79.59
-89.89
-97.56
-100.06
-95.54
-83.58
-65.26
-42.93
-19.44
2.56
21.14
35.27
44.73
49.88
51.44
50.28
47.34
43.51
39.61
36.36
34.29
33.67
34.44
36.22
38.52
40.84
42.93
44.72
46.27
47.5
48.08
47.48
45.15
40.75
34.42
26.76
18.71
11.25
5.02
0.17
-3.7
-7.3
-11.28
-15.93
-21.09
-26.26
-30.89
-34.61
-37.44
-39.78
-42.28
-45.76
-50.95
-58.28
-67.55
-77.67
-86.69
-92.13
-91.75
-84.33
-70.07
-50.66
-28.69
-6.91
12.42
27.96
39.19
46.21
49.46
49.56
47.21
43.26
38.63
34.22
30.77
28.8
28.45
29.56
31.72
34.49
37.46
40.36
42.95
45.0
46.17
46.04
44.33
40.93
36.11
30.37
24.37
18.65
13.49
8.8
4.23
-0.6
-5.89
-11.53
-17.11
-22.12
-26.17
-29.21
-31.52
-33.74
-36.59
-40.83
-46.97
-55.09
-64.56
-73.91
-81.01
-83.55
-79.82
-69.32
-53.03
-33.15
-12.41
6.71
22.48
34.05
41.41
44.95
45.31
43.16
39.22
34.23
28.94
24.15
20.54
18.65
18.73
20.59
23.76
27.53
31.16
34.05
35.81
36.26
35.41
33.36
30.3
26.41
21.75
16.39
10.34
3.73
-3.18
-9.98
-16.29
-21.9
-26.78
-31.12
-35.2
-39.32
-43.8
-49.07
-55.46
-63.1
-71.48
-79.27
-84.46
-84.92
-79.08
-66.68
-48.95
-28.21
-7.23
11.63
26.9
38.05
45.28
49.07
49.96
48.44
45.08
40.62
35.97
32.04
29.56
28.81
29.73
31.92
34.84
38.04
41.11
43.77
45.69
46.53
45.94
43.67
39.74
34.44
28.35
22.12
16.26
10.95
6.0
0.98
-4.47
-10.48
-16.79
-22.92
-28.39
-32.91
-36.55
-39.67
-42.97
-47.21
-53.12
-61.05
-70.61
-80.46
-88.41
-91.9
-88.88
-78.57
-61.8
-40.81
-18.53
2.36
20.0
33.58
43.09
48.9
51.46
51.23
48.75
44.74
40.13
35.91
32.9
31.56
31.97
33.76
36.35
39.16
41.75
43.96
45.74
47.08
47.77
47.43
45.63
42.1
36.91
30.57
23.83
17.45
11.94
7.42
3.57
-0.16
-4.29
-9.13
-14.53
-20.06
-25.12
-29.27
-32.45
-35.05
-37.8
-41.56
-47.07
-54.67
-64.1
-74.32
-83.49
-89.32
-89.59
-82.95
-69.42
-50.52
-28.86
-7.35
11.63
26.71
37.49
44.22
47.4
47.54
45.15
40.83
35.45
30.02
25.53
22.69
21.8
22.73
25.01
28.08
31.35
34.29
36.46
37.48
37.13
35.37
32.35
28.32
23.53
18.15
12.28
6.03
-0.44
-6.85
-12.93
-18.44
-23.32
-27.66
-31.61
-35.34
-39.03
-42.97
-47.58
-53.3
-60.31
-68.16
-75.48
-80.26
-80.3
-74.1
-61.44
-43.54
-22.77
-1.88
16.76
31.64
42.2
48.63
51.5
51.49
49.22
45.39
40.76
36.21
32.63
30.66
30.54
31.98
34.34
36.84
38.96
40.46
41.43
42.0
42.15
41.59
39.94
36.87
32.33
26.65
20.39
14.18
8.48
3.45
-1.1
-5.55
-10.32
-15.61
-21.36
-27.2
-32.67
-37.37
-41.19
-44.38
-47.58
-51.69
-57.57
-65.74
-75.95
-86.93
-96.43
-101.78
-100.62
-91.76
-75.67
-54.35
-30.72
-7.74
12.3
28.12
39.38
46.37
49.68
49.98
48.07
44.79
41.07
37.82
35.77
35.24
36.13
37.91
39.88
41.49
42.52
43.18
43.88
44.89
46.12
47.02
46.78
44.78
40.84
35.34
29.08
22.96
17.57
13.07
9.17
5.32
0.96
-4.24
-10.18
-16.49
-22.56
-27.89
-32.24
-35.79
-39.12
-43.08
-48.52
-56.03
-65.56
-76.2
-86.13
-92.92
-94.19
-88.35
-75.23
-56.22
-33.89
-11.19
9.3
25.99
38.29
46.3
50.5
51.41
49.63
45.89
41.14
36.48
32.87
30.93
30.77
32.05
34.18
36.6
38.92
41.02
42.87
44.43
45.53
45.85
45.02
42.73
38.86
33.59
27.35
20.78
14.53
9.02
4.31
0.09
-4.19
-8.98
-14.43
-20.26
-25.85
-30.59
-34.15
-36.66
-38.69
-41.08
-44.75
-50.35
-58.07
-67.34
-76.78
-84.28
-87.53
-84.66
-74.93
-59.04
-39.02
-17.6
2.52
19.36
31.91
40.07
44.32
45.34
43.8
40.34
35.6
30.34
25.39
21.54
19.4
19.2
20.71
23.34
26.34
29.04
31.02
32.14
32.43
31.98
30.75
28.55
25.16
20.4
14.35
7.37
0.04
-6.97
-13.16
-18.29
-22.43
-25.91
-29.17
-32.73
-37.11
-42.78
-50.0
-58.53
-67.41
-74.92
-78.93
-77.55
-69.84
-56.19
-38.28
-18.54
0.58
17.18
30.23
39.46
45.09
47.57
47.46
45.32
41.87
37.84
34.04
31.15
29.59
29.47
30.57
32.48
34.76
37.04
39.14
40.87
42.04
42.3
41.27
38.65
34.44
28.96
22.85
16.78
11.19
6.16
1.37
-3.63
-9.22
-15.44
-22.01
-28.34
-33.88
-38.36
-41.88
-45.01
-48.59
-53.55
-60.52
-69.51
-79.64
-89.02
-95.15
-95.57
-88.7
-74.51
-54.59
-31.67
-8.83
11.4
27.51
39.04
46.24
49.7
50.12
48.26
44.95
41.11
37.63
35.17
34.07
34.28
35.47
37.2
39.11
40.98
42.76
44.41
45.78
46.56
46.28
44.54
41.14
36.28
30.46
24.32
18.47
13.26
8.68
4.47
0.18
-4.57
-9.93
-15.74
-21.59
-26.94
-31.41
-34.88
-37.66
-40.39
-43.95
-49.2
-56.71
-66.31
-76.86
-86.27
-91.89
-91.32
-83.35
-68.37
-48.42
-26.45
-5.39
12.61
26.47
36.07
41.82
44.25
43.96
41.58
37.9
33.81
30.16
27.58
26.39
26.57
27.9
30.07
32.74
35.58
38.27
40.46
41.79
41.97
40.79
38.23
34.41
29.55
23.89
17.65
11.03
4.21
-2.57
-9.03
-14.86
-19.86
-23.97
-27.33
-30.22
-33.06
-36.33
-40.59
-46.32
-53.68
-62.27
-70.93
-77.82
-80.79
-78.08
-68.96
-54.0
-35.05
-14.63
4.76
21.26
33.88
42.45
47.31
49.0
48.09
45.2
41.03
36.38
32.12
29.01
27.48
27.57
28.97
31.12
33.39
35.27
36.42
36.67
35.96
34.31
31.71
28.21
23.86
18.73
12.93
6.6
-0.09
-6.93
-13.66
-20.02
-25.71
-30.55
-34.52
-37.82
-40.92
-44.53
-49.44
-56.26
-64.99
-74.75
-83.71
-89.5
-89.85
-83.44
-70.37
-52.13
-31.12
-9.97
9.22
25.14
37.27
