0
22.03
21.41
20.7
19.96
19.22
18.45
17.61
16.6
15.34
13.81
12.08
10.34
8.8
7.6
6.7
5.9
4.87
3.33
1.18
-1.45
-4.27
-6.99
-9.49
-11.85
-14.32
-17.1
-20.32
-23.97
-27.97
-32.11
-36.07
-39.31
-41.1
-40.79
-38.0
-32.88
-26.13
-18.78
-11.76
-5.59
-0.38
4.09
8.06
11.6
14.58
16.82
18.26
18.98
19.28
19.44
19.72
20.28
21.1
22.06
22.91
23.4
23.34
22.75
21.82
20.8
19.86
18.97
17.86
16.27
14.07
11.44
8.76
6.45
4.8
3.77
3.09
2.39
1.38
-0.08
-1.95
-4.09
-6.33
-8.51
-10.54
-12.45
-14.33
-16.39
-18.91
-22.09
-26.0
-30.44
-34.89
-38.6
-40.72
-40.54
-37.77
-32.65
-25.89
-18.57
-11.7
-6.03
-1.82
1.11
3.2
4.91
6.48
7.99
9.35
10.49
11.4
12.17
12.91
13.68
14.43
15.09
15.55
15.72
15.57
15.07
14.23
13.02
11.45
9.52
7.29
4.86
2.35
-0.08
-2.31
-4.26
-5.89
-7.23
-8.33
-9.24
-10.05
-10.96
-12.28
-14.3
-17.25
-21.17
-25.84
-30.88
-35.75
-39.82
-42.43
-42.95
-40.94
-36.36
-29.62
-21.6
-13.37
-5.88
0.33
5.23
9.1
12.33
15.19
17.68
19.67
21.02
21.66
21.68
21.24
20.53
19.69
18.76
17.71
16.46
14.91
13.02
10.81
8.41
5.98
3.67
1.55
-0.36
-2.07
-3.57
-4.85
-5.9
-6.76
-7.58
-8.5
-9.65
-11.03
-12.57
-14.1
-15.45
-16.5
-17.25
-17.86
-18.61
-19.9
-22.1
-25.29
-29.14
-32.86
-35.38
-35.72
-33.36
-28.33
-21.25
-13.04
-4.68
3.03
9.57
14.7
18.49
21.12
22.9
24.14
25.09
25.91
26.69
27.46
28.24
28.98
29.56
29.86
29.77
29.29
28.56
27.81
27.21
26.83
26.58
26.26
25.65
24.6
23.1
21.28
19.34
17.46
15.74
14.14
12.48
10.54
8.19
5.45
2.48
-0.45
-3.1
-5.39
-7.35
-9.15
-11.03
-13.3
-16.19
-19.82
-24.04
-28.31
-31.72
-33.22
-31.97
-27.69
-20.84
-12.49
-3.86
4.06
10.79
16.35
20.98
24.9
28.16
30.68
32.48
33.69
34.57
35.36
36.17
36.91
37.41
37.55
37.33
36.85
36.22
35.54
34.79
33.86
32.61
30.93
28.73
26.0
22.83
19.33
15.68
12.06
8.59
5.39
2.43
-0.42
-3.43
-6.89
-10.9
-15.33
-19.74
-23.5
-26.11
-27.38
-27.62
-27.47
-27.69
-28.88
-31.28
-34.77
-38.96
-43.22
-46.79
-48.89
-48.91
-46.56
-42.11
-36.27
-30.02
-24.25
-19.51
-15.88
-13.08
-10.69
-8.4
-6.08
-3.78
-1.61
0.36
2.12
3.74
5.31
6.88
8.49
10.11
11.74
13.41
15.07
16.68
18.05
18.92
19.01
18.16
16.42
14.09
11.57
9.23
7.25
5.6
4.14
2.68
1.17
-0.35
-1.78
-3.02
-4.08
-5.03
-6.02
-7.25
-8.92
-11.16
-13.85
-16.6
-18.69
-19.36
-18.0
-14.43
-8.96
-2.31
4.68
11.3
17.09
21.87
25.66
28.54
30.61
31.97
32.7
32.91
32.71
32.17
31.41
30.56
29.74
29.06
28.5
27.98
27.36
26.54
25.43
24.05
22.36
20.34
17.96
15.26
12.35
9.43
6.65
4.11
1.77
-0.51
-2.86
-5.37
-8.03
-10.74
-13.38
-15.85
-18.12
-20.24
-22.39
-24.82
-27.78
-31.4
-35.51
-39.59
-42.88
-44.58
-44.14
-41.46
-36.92
-31.31
-25.54
-20.38
-16.27
-13.28
-11.16
-9.56
-8.2
-7.0
-6.08
-5.59
-5.58
-5.88
-6.21
-6.24
-5.85
-5.09
-4.16
-3.27
-2.42
-1.49
-0.3
1.22
2.98
4.73
6.25
7.42
8.29
9.01
9.77
10.66
11.62
12.44
12.85
12.62
11.66
10.07
8.17
6.34
4.91
3.96
3.35
2.75
1.78
0.18
-2.21
-5.4
-9.27
-13.49
-17.54
-20.7
-22.26
-21.67
-18.8
-14.03
-8.13
-2.02
3.48
7.95
11.38
14.11
16.61
19.24
22.09
24.99
27.59
29.63
30.98
31.76
32.13
32.26
32.14
31.78
31.13
30.23
29.19
28.07
26.91
25.68
24.41
23.14
21.94
20.86
19.84
18.74
17.44
15.86
14.04
12.09
10.11
8.19
6.39
4.69
3.06
1.41
-0.37
-2.38
-4.67
-7.17
-9.78
-12.44
-15.11
-17.87
-20.9
-24.36
-28.38
-32.88
-37.6
-42.0
-45.41
-47.21
-47.05
-45.01
-41.66
-37.8
-34.22
-31.43
-29.52
-28.28
-27.38
-26.58
-25.78
-25.0
-24.2
-23.24
-21.94
-20.14
-17.85
-15.27
-12.7
-10.37
-8.37
-6.55
-4.65
-2.39
0.35
3.43
6.5
9.18
11.16
12.36
12.95
13.25
13.59
14.16
15.0
15.93
16.7
17.05
16.82
15.96
14.57
12.85
11.06
9.39
8.0
6.89
5.96
5.11
4.19
3.09
1.72
0.13
-1.57
-3.05
-3.84
-3.49
-1.74
1.32
5.27
9.48
13.41
16.74
19.48
21.78
23.75
25.34
26.42
26.86
26.74
26.33
25.97
25.89
26.09
26.34
26.33
25.8
24.69
23.01
20.9
18.55
16.1
13.69
11.35
9.01
6.52
3.73
0.59
-2.72
-5.95
-8.86
-11.41
-13.84
-16.53
-19.85
-23.95
-28.69
-33.77
-38.74
-43.25
-47.06
-50.07
-52.29
-53.77
-54.61
-54.95
-54.95
-54.76
-54.46
-53.95
-52.89
-50.78
-47.17
-41.87
-35.14
-27.59
-20.03
-13.1
-7.09
-1.89
2.79
7.24
11.52
15.62
19.4
22.84
25.97
28.83
31.38
33.56
35.27
36.48
37.23
37.62
37.7
37.52
37.04
36.16
34.81
32.89
30.41
27.47
24.3
21.12
18.15
15.5
13.15
11.05
9.16
7.49
6.01
4.62
3.18
1.55
-0.28
-2.22
-4.09
-5.77
-7.2
-8.44
-9.57
-10.62
-11.66
-12.73
-14.01
-15.64
-17.69
-19.96
-21.96
-23.12
-22.95
-21.26
-18.26
-14.47
-10.55
-7.11
-4.48
-2.73
-1.7
-1.07
-0.63
-0.32
-0.26
-0.7
-1.82
-3.71
-6.23
-9.19
-12.3
-15.35
-18.16
-20.54
-22.32
-23.37
-23.64
-23.25
-22.38
-21.25
-20.01
-18.7
-17.3
-15.81
-14.24
-12.58
-10.72
-8.55
-5.96
-3.06
-0.16
2.3
3.98
4.77
4.86
4.63
4.41
4.37
4.51
4.65
4.63
4.32
3.65
2.57
1.05
-0.85
-2.93
-4.83
-6.05
-6.16
-4.93
-2.43
0.92
4.53
7.82
10.35
12.03
12.96
13.41
13.59
13.63
13.54
13.33
13.01
12.7
12.5
12.41
12.35
12.16
11.72
11.01
10.13
9.25
8.47
7.84
7.27
6.62
5.73
4.51
2.96
1.15
-0.76
-2.65
-4.35
-5.8
-7.0
-8.0
-8.89
-9.75
-10.65
-11.66
-12.87
-14.36
-16.21
-18.45
-21.06
-23.92
-26.8
-29.38
-31.31
-32.31
-32.26
-31.27
-29.73
-28.1
-26.83
-26.11
-25.82
-25.68
-25.28
-24.38
-22.94
-21.06
-18.91
-16.6
-14.12
-11.48
-8.67
-5.79
-2.98
-0.34
2.16
4.61
7.12
9.72
12.35
14.83
16.98
18.62
19.65
20.05
19.87
19.28
18.51
17.78
17.17
16.61
15.83
14.57
12.72
10.4
7.9
5.58
3.67
2.24
1.22
0.45
-0.25
-1.09
-2.3
-4.11
-6.6
-9.6
-12.62
-15.0
-16.08
-15.48
-13.22
-9.72
-5.7
-1.88
1.24
3.52
5.21
6.68
8.29
10.12
12.01
13.67
14.93
15.81
16.55
17.39
18.35
19.25
19.8
19.81
19.29
18.5
17.67
16.92
16.13
15.09
13.63
11.76
9.64
7.54
5.65
4.06
2.79
1.77
0.96
0.35
-0.05
-0.23
-0.25
-0.16
-0.02
0.17
0.49
1.03
1.82
2.74
3.52
3.8
3.27
1.75
-0.73
-3.99
-7.64
-11.15
-13.96
-15.47
-15.36
-13.58
-10.49
-6.69
-2.84
0.66
3.72
6.51
9.35
12.43
15.71
18.96
21.87
24.17
25.75
26.64
27.03
27.1
27.04
26.88
26.61
26.2
25.65
25.03
24.42
23.8
23.06
21.96
20.33
18.13
15.52
12.74
10.02
7.44
4.93
2.41
-0.1
-2.52
-4.68
-6.52
-8.09
-9.55
-11.13
-12.99
-15.27
-18.04
-21.42
-25.49
-30.26
-35.56
-41.03
-46.05
-49.9
-51.88
-51.53
-48.75
-43.85
-37.58
-30.75
-24.08
-17.99
-12.55
-7.59
-2.87
1.71
6.14
10.32
14.17
17.69
20.95
24.03
26.96
29.69
32.14
34.19
35.73
36.75
37.26
37.34
37.0
36.25
35.02
33.27
30.96
28.21
25.18
22.05
18.93
15.82
12.71
9.54
6.39
3.33
0.45
-2.23
-4.8
-7.39
-10.17
-13.26
-16.78
-20.69
-24.71
-28.35
-30.94
-31.86
-30.78
-27.82
-23.53
-18.63
-13.76
-9.31
-5.37
-1.84
1.32
4.1
6.38
8.08
9.18
9.77
10.03
10.17
10.35
10.7
11.24
11.89
12.49
12.85
12.89
12.64
12.28
12.0
11.88
11.87
11.78
11.42
10.67
9.57
8.3
7.08
6.05
5.26
4.58
3.85
2.9
1.69
0.27
-1.21
-2.57
-3.7
-4.59
-5.31
-6.02
-6.92
-8.23
-10.12
-12.63
-15.58
-18.52
-20.89
-22.13
-21.92
-20.33
-17.73
-14.72
-11.78
-9.22
-7.02
-5.02
-2.96
-0.68
1.81
4.33
6.62
8.42
9.65
10.35
10.77
11.1
11.48
11.88
12.17
12.22
11.99
11.53
10.95
10.31
9.55
8.49
7.0
5.06
2.81
0.44
-1.88
-4.1
-6.28
-8.55
-10.99
-13.6
-16.31
-19.02
-21.58
-23.84
-25.65
-26.97
-27.88
-28.6
-29.44
-30.7
-32.6
-35.14
-38.24
-41.6
-44.81
-47.3
-48.45
-47.72
-44.86
-40.07
-33.93
-27.26
-20.8
-14.97
-9.81
-5.08
-0.49
4.13
8.76
13.26
17.41
21.12
24.39
27.31
29.98
32.4
34.52
36.18
37.23
37.59
37.32
36.55
35.45
34.11
32.56
30.83
28.99
27.23
25.7
24.48
23.49
22.55
21.47
20.16
18.67
17.05
15.29
13.3
10.98
8.31
5.4
2.44
-0.38
-2.98
-5.44
-7.88
-10.46
-13.2
-15.99
-18.53
-20.35
-20.94
-19.89
-17.12
-12.92
-7.93
-2.96
1.39
4.82
7.39
9.35
10.97
12.35
13.46
14.16
14.38
14.21
13.84
13.53
13.47
13.72
14.14
14.52
14.62
14.34
13.74
13.0
12.28
11.68
11.13
10.5
9.67
8.62
7.42
6.18
4.93
3.62
2.14
0.43
-1.49
-3.46
-5.33
-6.93
-8.24
-9.36
-10.49
-11.85
-13.67
-16.05
-18.94
-22.03
-24.85
-26.75
-27.19
-25.87
-22.93
-18.81
-14.21
-9.77
-5.91
-2.74
-0.12
2.18
4.31
6.3
7.98
9.18
9.79
9.91
9.78
9.62
9.54
9.46
9.18
8.5
7.37
5.91
4.36
2.86
1.44
0.01
-1.61
-3.55
-5.8
-8.27
-10.79
-13.26
-15.63
-17.95
-20.25
-22.58
-24.92
-27.18
-29.23
-30.95
-32.21
-32.92
-33.04
-32.61
-31.75
-30.66
-29.63
-28.95
-28.83
-29.25
-29.91
-30.19
-29.36
-26.86
-22.54
-16.77
-10.32
-4.03
1.48
5.97
9.63
12.73
15.56
18.21
20.67
22.89
24.83
26.51
27.98
29.24
30.29
31.13
31.79
32.33
32.83
33.35
33.91
34.47
34.91
35.15
35.06
34.63
33.91
32.97
31.93
30.8
29.55
28.15
26.56
24.84
23.06
21.27
19.49
17.63
15.66
13.53
11.34
9.18
7.12
5.18
3.3
1.34
-0.86
-3.51
-6.73
-10.51
-14.59
-18.48
-21.55
-23.32
-23.57
-22.45
-20.4
-17.98
-15.62
-13.57
-11.92
-10.65
-9.74
-9.18
-8.99
-9.23
-9.99
-11.35
-13.31
-15.73
-18.37
-20.96
-23.31
-25.32
-26.96
-28.23
-29.01
-29.18
-28.65
-27.48
-25.85
-23.98
-22.07
-20.18
-18.27
-16.28
-14.14
-11.85
-9.4
-6.8
-4.15
-1.6
0.65
2.43
3.67
4.45
4.93
5.28
5.63
6.04
6.47
6.82
6.9
6.52
5.58
4.19
2.78
1.99
2.52
4.78
8.76
13.97
19.65
25.1
29.85
33.72
36.79
39.16
40.92
42.13
42.83
43.13
43.2
43.18
43.12
42.96
42.58
41.9
40.89
39.58
38.06
36.42
34.66
32.76
30.63
28.18
25.37
22.23
18.94
15.68
12.56
9.53
6.37
2.84
-1.19
-5.55
-9.9
-13.84
-17.13
-19.82
-22.16
-24.5
-27.1
-30.12
-33.53
-37.2
-40.86
-44.1
-46.53
-47.77
-47.75
-46.65
-44.88
-42.94
-41.14
-39.63
-38.41
-37.36
-36.38
-35.4
-34.37
-33.31
-32.27
-31.32
-30.49
-29.69
-28.79
-27.58
-25.99
-24.06
-21.98
-19.94
-18.03
-16.24
-14.47
-12.71
-11.03
-9.56
-8.39
-7.47
-6.6
-5.52
-4.04
-2.13
0.05
2.18
3.96
5.16
5.78
5.99
6.06
6.25
6.68
7.24
7.61
7.44
6.41
4.44
1.62
-1.65
-4.86
-7.4
-8.79
-8.74
-7.26
-4.63
-1.28
2.3
5.78
8.97
11.81
14.33
16.56
18.48
20.13
21.56
22.9
24.28
25.78
27.38
28.98
30.46
31.73
32.73
33.48
33.99
34.25
34.23
33.9
33.22
32.18
30.8
29.11
27.17
25.06
22.9
20.79
18.77
16.86
15.0
13.11
11.13
9.06
6.92
4.74
2.52
0.23
-2.13
-4.5
-6.75
-8.72
-10.3
-11.52
-12.55
-13.67
-15.13
-17.01
-19.16
-21.2
-22.68
-23.16
-22.44
-20.58
-17.87
-14.7
-11.44
-8.37
-5.62
-3.29
-1.4
0.01
0.99
1.65
2.18
2.76
3.53
4.5
5.56
6.57
7.33
7.75
7.72
7.26
6.44
5.46
4.54
3.87
3.51
3.36
3.21
2.86
2.23
1.43
0.66
0.09
-0.25
-0.45
-0.69
-1.07
-1.61
-2.22
-2.78
-3.24
-3.64
-4.06
-4.62
-5.43
-6.62
-8.2
-10.09
-12.04
-13.68
-14.66
-14.75
-13.9
-12.28
-10.13
-7.77
-5.5
-3.56
-2.04
-0.91
-0.01
0.82
1.66
2.44
3.03
3.35
3.48
3.62
3.99
4.64
5.37
5.91
6.05
5.82
5.47
5.36
5.69
6.46
7.46
8.42
9.13
9.51
9.59
9.46
9.17
8.72
8.04
7.07
5.86
4.52
3.24
2.19
1.4
0.76
0.05
-0.9
-2.17
-3.64
-5.12
-6.49
-7.76
-9.08
-10.58
-12.27
-13.9
-15.06
-15.35
-14.58
-12.9
-10.69
-8.46
-6.64
-5.45
-4.84
-4.58
-4.39
-4.06
-3.54
-2.94
-2.37
-1.97
-1.72
-1.55
-1.35
-1.05
-0.7
-0.34
0.02
0.41
0.94
1.66
2.51
3.29
3.75
3.71
3.15
2.18
0.99
-0.21
-1.31
-2.27
-3.11
-3.91
-4.82
-6.0
-7.64
-9.83
-12.48
-15.31
-17.9
-19.85
-20.97
-21.34
-21.23
-20.95
-20.7
-20.5
-20.32
-20.16
-20.09
-20.21
-20.52
-20.8
-20.7
-19.85
-18.01
-15.22
-11.75
-7.97
-4.25
-0.8
2.32
5.18
7.88
10.51
13.04
15.36
17.33
18.86
19.96
20.8
21.53
22.22
22.8
23.14
23.16
22.84
22.31
21.74
21.21
20.72
20.16
19.38
18.28
16.84
15.14
13.3
11.44
9.71
8.18
6.9
5.87
5.09
4.5
4.03
3.56
2.99
2.18
1.08
-0.31
-1.92
-3.72
-5.74
-8.04
-10.62
-13.34
-15.86
-17.75
-18.71
-18.6
-17.56
-15.84
-13.73
-11.4
-8.96
-6.44
-3.96
-1.7
0.18
1.53
2.31
2.63
2.65
2.59
2.65
2.94
3.48
4.16
4.8
5.28
5.5
5.46
5.22
4.8
4.21
3.41
2.41
1.24
-0.04
-1.38
-2.73
-4.05
-5.26
-6.29
-7.17
-7.99
-8.91
-10.05
-11.37
-12.68
-13.73
-14.4
-14.79
-15.18
-15.85
-16.96
-18.47
-20.18
-21.81
-23.15
-23.97
-24.11
-23.39
-21.76
-19.3
-16.3
-13.21
-10.46
-8.32
-6.8
-5.69
-4.68
-3.52
-2.17
-0.73
0.63
1.84
2.94
4.08
5.39
6.9
8.44
9.77
10.73
11.3
11.68
12.12
12.86
13.89
15.05
16.05
16.62
16.59
15.98
14.97
13.76
12.58
11.54
10.7
9.99
9.38
8.81
8.24
7.59
6.78
5.71
4.32
2.66
0.9
-0.75
-2.09
-3.04
-3.65
-4.1
-4.63
-5.53
-6.96
-8.98
-11.41
-13.88
-15.91
-17.04
-17.02
-15.83
-13.71
-11.05
-8.21
-5.56
-3.39
-1.86
-0.97
-0.55
-0.29
0.13
0.85
1.84
2.91
3.84
4.51
4.95
5.26
5.53
5.84
6.19
6.64
7.25
8.03
8.99
10.01
10.95
11.66
12.04
12.07
11.78
11.27
10.62
9.94
9.27
8.61
7.93
7.23
6.51
5.83
5.17
4.48
3.63
2.57
1.36
0.18
-0.7
-1.14
-1.12
-0.84
-0.56
-0.51
-0.84
-1.63
-2.9
-4.62
-6.67
-8.77
-10.49
-11.36
-11.02
-9.38
-6.67
-3.36
-0.02
2.83
5.01
6.59
7.93
9.41
11.28
13.52
15.92
18.19
20.09
21.58
22.65
23.34
23.64
23.49
22.92
22.09
21.27
20.68
20.41
20.32
20.17
19.73
18.83
17.48
15.75
13.76
11.65
9.6
7.76
6.25
5.05
3.95
2.68
1.0
-1.22
-3.88
-6.73
-9.46
-11.83
-13.71
-15.21
-16.53
-17.97
-19.78
-22.1
-24.83
-27.69
-30.23
-31.96
-32.46
-31.49
-29.02
-25.33
-20.86
-16.21
-11.89
-8.29
-5.51
-3.47
-1.98
-0.86
0.05
0.82
1.53
2.27
3.06
3.88
4.6
5.12
5.35
5.3
5.06
4.8
4.69
4.87
5.41
6.29
7.35
8.35
9.03
9.21
8.87
8.07
6.97
5.66
4.31
3.03
2.03
1.43
1.26
1.29
1.21
0.65
-0.49
-2.15
-4.1
-6.13
-8.1
-9.95
-11.67
-13.26
-14.7
-16.08
-17.5
-19.0
-20.41
-21.34
-21.27
-19.81
-16.92
-12.97
-8.57
-4.34
-0.74
2.08
4.17
5.71
6.86
7.73
8.42
8.99
9.52
10.14
10.98
12.16
13.64
15.31
16.86
18.0
18.54
18.43
17.81
16.92
16.05
15.36
14.9
14.62
14.42
14.16
13.79
13.29
12.66
11.84
10.74
9.28
7.47
5.41
3.42
1.82
0.81
0.34
0.1
-0.36
-1.46
-3.31
-5.76
-8.38
-10.76
-12.66
-14.12
-15.45
-17.04
-19.21
-22.04
-25.35
-28.71
-31.59
-33.42
-33.79
-32.46
-29.53
-25.34
-20.41
-15.38
-10.79
-7.02
-4.2
-2.26
-1.05
-0.33
0.07
0.25
0.21
-0.01
-0.39
-0.81
-1.13
-1.26
-1.26
-1.29
-1.57
-2.28
-3.37
-4.68
-5.97
-7.03
-7.83
-8.52
-9.29
-10.32
-11.66
-13.17
-14.65
-15.88
-16.74
-17.23
-17.46
-17.56
-17.66
-17.76
-17.83
-17.81
-17.69
-17.56
-17.56
-17.79
-18.34
-19.19
-20.27
-21.49
-22.71
-23.72
-24.18
-23.7
-21.92
-18.67
-14.12
-8.7
-3.0
2.41
7.19
11.22
14.59
17.44
19.85
21.89
23.53
24.78
25.66
26.22
26.53
26.71
26.89
27.18
27.65
28.28
28.95
29.51
29.8
29.74
29.35
28.71
27.94
27.08
26.19
25.23
24.19
23.04
21.81
20.53
19.24
17.96
16.66
15.24
13.66
11.9
10.01
8.05
6.05
4.02
1.92
-0.28
-2.56
-4.9
-7.28
-9.73
-12.27
-14.97
-17.85
-20.81
-23.61
-25.87
-27.12
-26.92
-25.05
-21.62
-17.07
-12.08
-7.32
-3.28
-0.06
2.49
4.64
6.69
8.77
10.85
12.84
14.63
16.16
17.42
18.46
19.33
20.08
20.7
21.15
21.34
21.18
20.6
19.61
18.25
16.61
14.75
12.78
10.82
9.0
7.44
6.13
4.91
3.45
1.43
-1.31
-4.68
-8.38
-12.08
-15.56
-18.81
-21.9
-24.85
-27.56
-29.89
-31.66
-32.84
-33.51
-33.82
-33.93
-33.95
-34.05
-34.36
-35.01
-35.91
-36.75
-36.97
-35.96
-33.32
-29.02
-23.45
-17.23
-10.99
-5.21
-0.13
4.16
7.69
10.47
12.56
14.07
15.18
16.1
17.04
18.2
19.61
21.23
22.84
24.17
25.01
25.36
25.39
25.4
25.6
26.0
26.35
26.29
25.55
24.08
22.08
19.87
17.76
15.89
14.25
12.69
11.06
9.31
7.45
5.6
3.83
2.21
0.72
-0.71
-2.12
-3.55
-5.09
-6.82
-8.86
-11.24
-13.76
-15.99
-17.31
-17.12
-15.1
-11.39
-6.48
-1.09
4.1
8.64
12.29
15.03
16.94
18.11
18.67
18.75
18.53
18.18
17.86
17.72
17.82
18.12
18.5
18.75
18.71
18.31
17.62
16.82
16.1
15.54
15.07
14.53
13.76
12.66
11.25
9.64
7.98
6.41
5.08
4.07
3.31
2.61
1.67
0.24
-1.77
-4.23
-6.79
-9.14
-11.12
-12.85
-14.63
-16.8
-19.54
-22.81
-26.34
-29.68
-32.29
-33.69
-33.53
-31.7
-28.41
-24.17
-19.61
-15.33
-11.66
-8.68
-6.2
-3.99
-1.85
0.33
2.54
4.68
6.67
8.39
9.78
10.86
11.75
12.58
13.49
14.53
15.65
16.75
17.76
18.61
19.29
19.7
19.72
19.24
18.28
16.94
15.52
14.26
13.32
12.65
12.1
11.45
10.55
9.36
7.92
6.32
4.59
2.74
0.76
-1.33
-3.48
-5.6
-7.61
-9.44
-11.11
-12.73
-14.5
-16.62
-19.24
-22.32
-25.61
-28.63
-30.81
-31.66
-30.9
-28.53
-24.84
-20.33
-15.56
-11.01
-6.98
-3.58
-0.68
1.93
4.45
6.9
9.2
11.17
12.71
13.84
14.73
15.57
16.47
17.41
18.22
18.75
18.84
18.48
17.79
16.91
16.04
15.27
14.63
14.05
13.39
12.53
11.41
10.07
8.62
7.18
5.83
4.59
3.43
2.28
1.1
-0.09
-1.23
-2.26
-3.09
-3.7
-4.13
-4.52
-5.1
-6.06
-7.56
-9.66
-12.24
-15.01
-17.49
-19.15
-19.48
-18.21
-15.39
-11.5
-7.21
-3.23
0.04
2.54
4.51
6.26
7.96
9.61
11.12
12.48
13.77
15.17
16.76
18.45
19.99
21.07
21.54
21.42
20.89
20.19
19.45
18.68
17.81
16.71
15.29
13.52
11.44
9.16
6.82
4.54
2.38
0.35
-1.56
-3.35
-5.02
-6.58
-8.04
-9.5
-11.03
-12.68
-14.48
-16.33
-18.18
-19.97
-21.76
-23.67
-25.84
-28.37
-31.21
-34.12
-36.68
-38.36
-38.69
-37.51
-34.99
-31.6
-27.87
-24.19
-20.72
-17.38
-14.03
-10.64
-7.29
-4.1
-1.19
1.47
3.97
6.4
8.83
11.2
13.5
15.68
17.77
19.72
21.38
22.54
23.01
22.77
22.04
21.16
20.55
20.41
20.65
20.99
21.08
20.74
20.05
19.23
18.55
18.11
17.83
17.43
16.68
15.44
13.75
11.76
9.66
7.55
5.44
3.25
0.92
-1.54
-4.03
-6.49
-8.87
-11.23
-13.61
-15.97
-18.09
-19.59
-20.19
-19.79
-18.62
-17.14
-15.84
-15.02
-14.69
-14.63
-14.57
-14.35
-14.01
-13.69
-13.56
-13.67
-13.97
-14.3
-14.43
-14.17
-13.37
-11.96
-10.04
-7.77
-5.37
-3.05
-0.88
1.11
2.97
4.68
6.22
7.52
8.55
9.31
9.88
10.37
10.86
11.42
12.03
12.58
12.94
12.96
12.62
12.02
11.43
11.12
11.23
11.69
12.24
12.55
12.37
11.62
10.35
8.71
6.88
5.04
3.46
2.43
2.17
2.78
4.09
5.76
7.36
8.55
9.15
9.14
8.65
7.9
7.11
6.43
5.97
5.72
5.59
5.43
5.13
4.69
4.15
3.58
2.98
2.29
1.47
0.5
-0.57
-1.69
-2.88
-4.18
-5.62
-7.15
-8.68
-10.04
-11.14
-11.98
-12.63
-13.22
-13.79
-14.37
-14.92
-15.44
-15.99
-16.61
-17.33
-18.1
-18.85
-19.54
-20.15
-20.72
-21.3
-21.81
-22.08
-21.87
-20.97
-19.29
-16.93
-14.19
-11.37
-8.76
-6.45
-4.39
-2.43
-0.46
1.5
3.29
4.72
5.65
6.12
6.27
6.3
6.3
6.25
6.05
5.6
4.9
4.07
3.26
2.55
1.89
1.11
0.0
-1.56
-3.5
-5.62
-7.63
-9.29
-10.51
-11.37
-12.09
-12.94
-14.08
-15.57
-17.31
-19.11
-20.83
-22.34
-23.63
-24.72
-25.71
-26.69
-27.72
-28.88
-30.18
-31.51
-32.68
-33.36
-33.23
-32.0
-29.58
-26.09
-21.82
-17.17
-12.59
-8.44
-4.91
-2.04
0.34
2.49
4.64
6.98
9.54
12.2
14.8
17.21
19.34
21.21
22.82
24.15
25.11
25.66
25.8
25.71
25.58
25.6
25.83
26.17
26.41
26.33
25.76
24.69
23.17
21.41
19.56
17.82
16.31
15.06
13.99
12.98
11.91
10.63
9.05
7.09
4.76
2.15
-0.56
-3.1
-5.26
-7.0
-8.49
-10.02
-11.9
-14.32
-17.28
-20.52
-23.63
-26.06
-27.32
-27.01
-25.07
-21.83
-17.87
-13.95
-10.56
-7.87
-5.65
-3.46
-0.95
1.99
5.15
8.22
10.9
13.09
14.78
16.05
16.98
17.64
18.1
18.43
18.69
18.98
19.32
19.77
20.29
20.82
21.18
21.21
20.75
19.83
18.54
17.11
15.66
14.22
12.77
11.24
9.68
8.14
6.65
5.09
3.3
1.19
-1.14
-3.36
-5.12
-6.2
-6.72
-7.03
-7.6
-8.79
-10.7
-13.17
-15.88
-18.42
-20.4
-21.53
-21.62
-20.64
-18.68
-15.93
-12.62
-9.01
-5.41
-2.12
0.61
2.68
4.16
5.29
6.36
7.55
8.83
10.06
11.07
11.81
12.32
12.7
12.98
13.08
12.87
12.27
11.33
10.19
9.11
8.3
7.88
7.8
7.89
7.87
7.47
6.58
5.29
3.87
2.66
1.87
1.46
1.18
0.71
-0.13
-1.3
-2.56
-3.71
-4.66
-5.54
-6.55
-7.92
-9.67
-11.75
-13.97
-16.11
-17.98
-19.38
-20.11
-20.02
-19.01
-17.18
-14.76
-12.09
-9.47
-7.15
-5.16
-3.41
-1.74
0.03
1.94
3.92
5.8
7.36
8.49
9.19
9.58
9.83
10.09
10.44
10.81
11.09
11.19
11.05
10.67
10.12
9.46
8.8
8.2
7.76
7.52
7.47
7.53
7.58
7.48
7.17
6.63
5.85
4.88
3.74
2.49
1.25
0.15
-0.68
-1.24
-1.67
-2.21
-3.06
-4.31
-5.93
-7.76
-9.63
-11.39
-12.97
-14.32
-15.49
-16.6
-17.83
-19.36
-21.22
-23.2
-24.84
-25.58
-25.01
-23.02
-19.86
-16.0
-11.98
-8.18
-4.76
-1.76
0.89
3.24
5.33
7.2
8.92
10.56
12.15
13.68
15.07
16.2
16.95
17.29
17.26
16.96
16.55
16.13
15.75
15.37
14.93
14.41
13.85
13.32
12.87
12.51
12.16
11.72
11.13
10.44
9.71
9.05
8.47
7.93
7.37
6.74
6.02
5.18
4.16
2.88
1.23
-0.79
-3.09
-5.46
-7.6
-9.22
-10.15
-10.41
-10.24
-10.07
-10.32
-11.3
-13.08
-15.47
-18.08
-20.44
-22.14
-22.84
-22.34
-20.58
-17.73
-14.08
-10.15
-6.41
-3.27
-0.88
0.8
1.95
2.83
3.67
4.64
5.81
7.13
8.45
9.51
10.14
10.27
10.02
9.62
9.31
9.15
9.09
8.95
8.63
8.06
7.32
6.5
5.65
4.72
3.68
2.51
1.27
0.08
-0.89
-1.52
-1.77
-1.68
-1.39
-1.1
-1.0
-1.19
-1.71
-2.47
-3.33
-4.17
-4.94
-5.67
-6.43
-7.38
-8.65
-10.41
-12.71
-15.52
-18.54
-21.31
-23.23
-23.81
-22.86
-20.48
-17.08
-13.19
-9.29
-5.67
-2.54
0.04
2.02
3.46
4.44
5.14
5.75
6.41
7.15
7.95
8.76
9.5
10.16
10.67
11.06
11.31
11.49
11.66
11.89
12.2
12.48
12.64
12.59
12.27
11.73
11.02
10.16
9.18
8.08
6.93
5.76
4.59
3.35
1.96
0.35
-1.41
-3.16
-4.67
-5.85
-6.76
-7.58
-8.52
-9.65
-10.85
-11.95
-12.85
-13.57
-14.33
-15.41
-17.05
-19.28
-21.91
-24.54
-26.63
-27.63
-27.18
-25.21
-22.0
-18.08
-14.07
-10.41
-7.29
-4.66
-2.36
-0.31
1.5
3.05
4.34
5.47
6.61
7.91
9.41
11.04
12.67
14.11
15.23
15.93
16.21
16.16
15.94
15.7
15.53
15.41
15.18
14.75
14.1
13.4
12.85
12.61
12.62
12.61
12.25
11.34
9.91
8.2
6.56
5.26
4.33
3.68
3.08
2.31
1.18
-0.39
-2.39
-4.72
-7.14
-9.42
-11.38
-13.06
-14.6
-16.28
-18.24
-20.52
-22.96
-25.2
-26.83
-27.4
-26.58
-24.22
-20.46
-15.74
-10.71
-6.05
-2.3
0.35
2.05
3.12
3.94
4.74
5.58
6.4
7.12
7.73
8.29
8.91
9.68
10.57
11.47
12.19
12.59
12.71
12.7
12.76
13.02
13.38
13.59
13.37
12.54
11.15
9.41
7.62
5.98
4.56
3.32
2.12
0.87
-0.5
-2.02
-3.66
-5.38
-7.1
-8.69
-10.05
-11.13
-12.01
-12.83
-13.79
-15.09
-16.87
-19.14
-21.68
-24.04
-25.62
-25.82
-24.25
-20.9
-16.17
-10.77
-5.4
-0.64
3.24
6.24
8.5
10.16
11.32
12.09
12.57
12.88
13.17
13.57
14.09
14.69
15.24
15.63
15.76
15.63
15.31
14.97
14.76
14.77
14.94
15.05
14.87
14.2
13.05
11.61
10.16
8.97
8.12
7.49
6.85
5.95
4.67
3.0
1.06
-1.02
-3.09
-5.11
-7.03
-8.92
-10.91
-13.17
-15.82
-18.92
-22.4
-25.97
-29.19
-31.5
-32.34
-31.34
-28.45
-24.02
-18.75
-13.44
-8.79
-5.13
-2.38
-0.15
2.01
4.39
7.03
9.74
12.23
14.3
15.9
17.04
17.78
18.17
18.21
17.9
17.34
16.67
16.04
15.58
15.31
15.2
15.1
14.85
14.26
13.23
11.79
10.11
8.49
7.22
6.46
6.16
6.11
5.98
5.54
4.66
3.38
1.83
0.15
-1.6
-3.41
-5.34
-7.41
-9.65
-12.0
-14.42
-16.91
-19.56
-22.47
-25.61
-28.66
-31.03
-32.05
-31.19
-28.33
-23.86
-18.5
-13.09
-8.2
-4.07
-0.61
2.4
5.14
7.68
9.97
11.94
13.55
14.85
15.89
16.72
17.39
17.89
18.26
18.55
18.8
19.06
19.39
19.79
20.21
20.57
20.78
20.72
20.35
19.68
18.81
17.84
16.84
15.8
14.7
13.46
12.05
10.46
8.7
6.8
4.81
2.81
0.87
-0.94
-2.62
-4.26
-5.93
-7.74
-9.65
-11.54
-13.29
-14.77
-16.04
-17.29
-18.83
-20.96
-23.79
-27.15
-30.51
-33.09
-34.11
-33.03
-29.82
-24.96
-19.28
-13.64
-8.6
-4.42
-1.01
1.8
4.14
6.05
7.47
8.45
9.03
9.34
9.51
9.67
9.9
10.24
10.67
11.13
11.52
11.82
12.02
12.22
12.51
12.87
13.23
13.44
13.37
13.0
12.35
11.5
10.51
9.39
8.19
6.95
5.76
4.67
3.68
2.67
1.48
-0.01
-1.87
-4.02
-6.35
-8.73
-11.12
-13.58
-16.23
-19.2
-22.52
-26.01
-29.2
-31.48
-32.2
-30.97
-27.81
-23.2
-17.91
-12.75
-8.32
-4.81
-2.07
0.24
2.48
4.83
7.28
9.72
11.97
13.94
15.6
16.98
18.16
19.19
20.1
20.87
21.46
21.83
21.95
21.83
21.44
20.77
19.82
18.62
17.22
15.69
14.11
12.5
10.87
9.22
7.55
5.92
4.39
2.98
1.72
0.54
-0.64
-1.95
-3.49
-5.3
-7.33
-9.46
-11.51
-13.32
-14.82
-16.08
-17.39
-19.08
-21.49
-24.78
-28.8
-33.06
-36.81
-39.22
-39.64
-37.83
-34.03
-28.88
-23.22
-17.79
-13.04
-9.04
-5.64
-2.58
0.27
2.9
5.14
6.78
7.74
8.06
7.91
7.51
7.02
6.46
5.71
4.52
2.63
-0.15
-3.76
-7.94
-12.32
-16.53
-20.37
-23.89
-27.27
-30.68
-34.08
-37.26
-39.89
-41.68
-42.45
-42.11
-40.53
-37.51
-32.81
-26.28
-17.98
-8.23
2.38
13.17
23.43
32.52
39.94
45.4
48.84
50.43
50.45
49.16
46.75
43.25
38.66
33.07
26.74
20.17
14.1
9.3
6.43
5.74
7.11
9.93
13.34
16.55
19.02
20.62
21.56
22.2
22.82
23.56
24.38
25.17
25.84
26.28
26.47
26.34
25.83
24.95
23.79
22.49
21.21
20.12
19.26
18.63
18.14
17.67
17.07
16.22
15.07
13.66
12.12
10.58
9.12
7.77
6.52
5.39
4.46
3.79
3.41
3.19
2.87
2.2
1.0
-0.74
-2.87
-5.13
-7.31
-9.26
-10.96
-12.49
-13.96
-15.52
-17.34
-19.52
-22.06
-24.75
-27.16
-28.67
-28.69
-26.86
-23.27
-18.43
-13.13
-8.15
-3.99
-0.82
1.54
3.33
4.8
6.07
7.17
8.19
9.25
10.52
12.09
13.97
15.94
17.7
18.92
19.41
19.19
18.51
17.69
16.96
16.37
15.78
14.97
13.84
12.39
10.75
9.03
7.31
5.58
3.85
2.11
0.41
-1.22
-2.84
-4.55
-6.38
-8.31
-10.19
-11.9
-13.4
-14.78
-16.16
-17.72
-19.54
-21.65
-24.02
-26.5
-28.78
-30.38
-30.74
-29.43
-26.34
-21.76
-16.39
-11.03
-6.38
-2.82
-0.35
1.37
2.79
4.3
6.1
8.07
9.94
11.42
12.4
12.99
13.49
14.13
14.97
15.81
16.39
16.52
16.25
15.8
15.35
14.96
14.54
13.94
