0
-4.55
-7.95
-11.72
-16.0
-20.83
-26.27
-32.18
-38.18
-43.44
-46.79
-47.06
-43.47
-36.04
-25.62
-13.65
-1.68
9.0
17.66
24.07
28.26
30.42
30.75
29.52
27.17
24.23
21.3
18.85
17.13
16.13
15.65
15.39
15.14
14.76
14.17
13.32
12.1
10.38
7.99
4.88
1.1
-3.16
-7.63
-12.09
-16.39
-20.56
-24.8
-29.34
-34.24
-39.25
-43.72
-46.66
-47.07
-44.22
-37.95
-28.77
-17.72
-6.09
4.88
14.21
21.31
25.91
28.05
28.02
26.28
23.47
20.31
17.52
15.63
14.88
15.16
16.03
16.93
17.36
17.11
16.27
15.12
13.94
12.82
11.58
9.94
7.64
4.63
1.07
-2.73
-6.49
-10.03
-13.31
-16.43
-19.57
-22.99
-26.9
-31.29
-35.75
-39.43
-41.18
-39.92
-35.08
-26.89
-16.34
-4.86
6.13
15.62
23.05
28.32
31.51
32.72
32.15
30.04
26.91
23.43
20.36
18.25
17.34
17.49
18.25
19.15
19.82
20.12
20.04
19.56
18.57
16.81
14.07
10.28
5.66
0.67
-4.15
-8.4
-11.93
-14.9
-17.71
-20.8
-24.55
-29.01
-33.84
-38.24
-41.13
-41.47
-38.53
-32.29
-23.39
-12.95
-2.31
7.43
15.55
21.72
25.86
28.07
28.52
27.53
25.56
23.16
20.91
19.18
18.12
17.63
17.47
17.42
17.37
17.26
17.03
16.61
15.84
14.54
12.6
9.98
6.71
2.95
-1.07
-5.06
-8.73
-11.88
-14.53
-16.98
-19.71
-23.2
-27.63
-32.72
-37.7
-41.5
-43.06
-41.63
-37.02
-29.65
-20.41
-10.42
-0.76
7.72
14.54
19.51
22.6
23.9
23.58
21.96
19.57
17.09
15.15
14.17
14.16
14.79
15.62
16.28
16.62
16.68
16.54
16.15
15.36
13.94
11.82
9.03
5.79
2.31
-1.21
-4.69
-8.09
-11.47
-14.92
-18.6
-22.63
-27.03
-31.57
-35.74
-38.76
-39.88
-38.54
-34.64
-28.54
-20.97
-12.82
-4.9
2.18
8.07
12.67
15.97
18.0
18.83
18.52
17.27
15.39
13.32
11.47
10.18
9.58
9.58
9.97
10.5
10.94
11.12
10.94
10.29
9.06
7.13
4.5
1.32
-2.14
-5.57
-8.69
-11.47
-14.1
-16.95
-20.35
-24.35
-28.64
-32.49
-35.0
-35.34
-33.04
-28.18
-21.32
-13.38
-5.31
2.12
8.46
13.55
17.35
19.78
20.72
20.09
18.1
15.21
12.12
9.53
7.84
7.12
7.12
7.51
7.99
8.4
8.55
8.26
7.32
5.6
3.14
0.17
-2.99
-6.11
-9.07
-11.94
-14.88
-18.09
-21.74
-25.95
-30.65
-35.55
-40.03
-43.18
-44.05
-41.93
-36.71
-28.91
-19.58
-9.92
-0.97
6.61
12.59
16.91
19.65
20.91
20.87
19.85
18.32
16.8
15.71
15.21
15.21
15.44
15.64
15.65
15.5
15.28
15.05
14.71
14.01
12.64
10.4
7.27
3.49
-0.54
-4.4
-7.85
-10.88
-13.74
-16.81
-20.4
-24.63
-29.28
-33.79
-37.39
-39.24
-38.71
-35.49
-29.8
-22.25
-13.72
-5.14
2.8
9.67
15.24
19.4
22.0
22.93
22.3
20.52
18.33
16.48
15.53
15.54
16.14
16.8
17.12
16.99
16.52
15.87
15.01
13.76
11.89
9.35
6.3
3.02
-0.2
-3.23
-6.08
-8.85
-11.71
-14.85
-18.46
-22.6
-27.18
-31.71
-35.49
-37.62
-37.42
-34.57
-29.34
-22.38
-14.58
-6.76
0.49
6.81
12.03
16.07
18.88
20.4
20.69
19.92
18.38
16.46
14.52
12.86
11.66
10.99
10.84
11.15
11.78
12.49
12.95
12.79
11.73
9.65
6.65
3.02
-0.81
-4.46
-7.7
-10.49
-13.02
-15.57
-18.44
-21.76
-25.38
-28.83
-31.47
-32.56
-31.54
-28.16
-22.57
-15.29
-7.09
1.2
8.84
15.29
20.24
23.58
25.24
25.27
23.82
21.32
18.34
15.62
13.75
12.99
13.21
13.93
14.62
14.83
14.34
13.14
11.33
9.02
6.37
3.55
0.73
-1.97
-4.52
-7.07
-9.87
-13.2
-17.25
-21.98
-27.07
-31.86
-35.49
-37.07
-35.91
-31.81
-25.13
-16.74
-7.71
0.93
8.43
14.37
18.64
21.29
22.45
22.34
21.26
19.58
17.71
15.98
14.6
13.62
12.95
12.42
11.88
11.18
10.23
8.95
7.36
5.5
3.49
1.4
-0.76
-3.1
-5.89
-9.37
-13.65
-18.6
-23.9
-29.14
-33.96
-38.03
-40.98
-42.36
-41.66
-38.49
-32.87
-25.28
-16.62
-7.86
0.22
7.24
13.08
17.75
21.2
23.34
24.16
23.83
22.72
21.3
20.0
19.07
18.57
18.45
18.57
18.78
18.92
18.81
18.28
17.16
15.33
12.74
9.46
5.67
1.64
-2.36
-6.15
-9.66
-13.04
-16.52
-20.38
-24.77
-29.64
-34.6
-38.92
-41.72
-42.11
-39.59
-34.15
-26.36
-17.21
-7.79
0.97
8.45
14.35
18.57
21.11
22.05
21.6
20.19
18.41
16.92
16.22
16.47
17.47
18.74
19.74
20.11
19.77
18.85
17.6
16.14
14.48
12.51
10.13
7.34
4.25
1.04
-2.18
-5.39
-8.65
-12.03
-15.65
-19.64
-24.07
-28.89
-33.78
-38.1
-40.99
-41.66
-39.71
-35.26
-28.88
-21.36
-13.36
-5.38
2.24
9.11
14.76
18.67
20.59
20.63
19.25
17.19
15.18
13.77
13.21
13.49
14.36
15.49
16.56
17.34
17.71
17.63
17.01
15.7
13.58
10.63
7.0
3.1
-0.65
-3.93
-6.69
-9.14
-11.64
-14.56
-18.17
-22.48
-27.25
-31.97
-35.86
-38.04
-37.79
-34.77
-29.14
-21.57
-12.94
-4.12
4.21
11.61
17.79
22.54
25.69
27.21
27.23
26.15
24.48
22.76
21.38
20.55
20.25
20.36
20.67
20.98
21.07
20.76
19.88
18.36
16.2
13.49
10.35
6.9
3.15
-0.88
-5.19
-9.75
-14.52
-19.43
-24.37
-29.06
-32.98
-35.37
-35.46
-32.71
-27.11
-19.21
-9.99
-0.51
8.4
16.24
22.76
27.81
31.18
32.67
32.24
30.16
27.05
23.69
20.84
18.99
18.23
18.37
18.94
19.46
19.56
19.04
17.85
16.06
13.76
10.97
7.7
3.97
-0.13
-4.43
-8.75
-13.04
-17.39
-22.03
-27.08
-32.32
-37.07
-40.32
-41.05
-38.62
-33.05
-24.95
-15.34
-5.25
4.45
13.17
20.5
26.18
29.98
31.84
31.95
30.72
28.77
26.79
25.31
24.57
24.49
24.75
24.92
24.7
23.98
22.9
21.6
20.1
18.24
15.73
12.4
8.31
3.85
-0.53
-4.5
-8.02
-11.36
-14.87
-18.78
-23.16
-27.9
-32.8
-37.56
-41.68
-44.43
-44.98
-42.62
-37.16
-29.06
-19.37
-9.31
0.09
8.28
15.08
20.46
24.32
26.45
26.72
25.36
22.99
20.5
18.72
18.06
18.45
19.43
20.42
21.06
21.22
21.05
20.69
20.14
19.23
17.67
15.19
11.74
7.56
3.11
-1.07
-4.61
-7.46
-9.84
-12.17
-14.85
-18.14
-22.08
-26.5
-31.07
-35.23
-38.26
-39.36
-37.89
-33.61
-26.88
-18.55
-9.76
-1.51
5.54
11.08
15.09
17.64
18.81
18.76
17.8
16.35
14.97
14.07
13.81
14.15
14.77
15.33
15.53
15.27
14.54
13.51
12.36
11.21
10.05
8.66
6.75
4.14
0.85
-2.83
-6.47
-9.72
-12.48
-14.92
-17.4
-20.27
-23.63
-27.3
-30.77
-33.35
-34.41
-33.44
-30.26
-25.09
-18.43
-11.02
-3.56
3.38
9.45
14.39
18.05
20.28
21.05
20.54
19.17
17.49
16.05
15.18
14.91
15.1
15.52
15.96
16.32
16.48
16.28
15.55
14.18
12.17
9.74
7.15
4.61
2.19
-0.2
-2.72
-5.47
-8.5
-11.77
-15.28
-18.99
-22.73
-26.11
-28.57
-29.45
-28.26
-24.88
-19.59
-13.05
-6.0
0.89
7.12
12.42
16.62
19.66
21.5
22.15
21.72
20.42
18.62
16.78
15.31
14.5
14.35
14.62
14.94
14.98
14.56
13.67
12.4
10.76
8.75
6.32
3.46
0.3
-2.97
-6.17
-9.18
-12.0
-14.78
-17.68
-20.84
-24.32
-27.95
-31.4
-34.13
-35.53
-35.09
-32.55
-28.01
-21.89
-14.8
-7.39
-0.21
6.34
11.95
16.39
19.53
21.32
21.87
21.42
20.37
19.1
17.94
17.1
16.61
16.41
16.39
16.42
16.4
16.17
15.58
14.5
12.87
10.7
8.09
5.21
2.21
-0.78
-3.68
-6.47
-9.24
-12.11
-15.28
-18.93
-23.14
-27.82
-32.59
-36.83
-39.77
-40.74
-39.36
-35.64
-30.05
-23.35
-16.31
-9.52
-3.31
2.23
7.06
11.08
14.08
15.9
16.55
16.31
15.68
15.14
14.99
15.24
15.65
15.88
15.72
15.19
14.47
13.77
13.17
12.59
11.77
10.45
8.42
5.64
2.29
-1.37
-4.99
-8.3
-11.12
-13.46
-15.48
-17.4
-19.54
-22.13
-25.28
-28.84
-32.4
-35.34
-36.97
-36.75
-34.5
-30.37
-24.84
-18.47
-11.82
-5.3
0.75
6.03
10.23
13.07
14.42
14.43
13.54
12.35
11.47
11.26
11.73
12.61
13.49
14.06
14.23
14.09
13.84
13.58
13.23
12.58
11.39
9.53
7.04
4.08
0.9
-2.25
-5.15
-7.62
-9.59
-11.09
-12.35
-13.73
-15.59
-18.17
-21.37
-24.81
-27.84
-29.78
-30.07
-28.41
-24.81
-19.54
-13.09
-6.05
0.96
7.37
12.75
16.82
19.43
20.59
20.43
19.26
17.58
15.92
14.75
14.29
14.43
14.87
15.27
15.44
15.35
15.07
14.6
13.84
12.62
10.86
8.55
5.88
3.02
0.1
-2.86
-5.9
-9.03
-12.31
-15.73
-19.37
-23.23
-27.19
-30.86
-33.6
-34.73
-33.75
-30.57
-25.54
-19.31
-12.59
-5.91
0.41
6.19
11.27
15.41
18.33
19.85
20.0
19.04
17.39
15.54
13.91
12.78
12.3
12.45
13.02
13.72
14.22
14.21
13.55
12.18
10.12
7.45
4.28
0.76
-2.91
-6.53
-9.94
-13.13
-16.19
-19.38
-22.87
-26.73
-30.75
-34.48
-37.28
-38.45
-37.47
-34.13
-28.66
-21.64
-13.9
-6.23
0.8
6.89
11.91
15.8
18.45
19.76
19.8
18.91
17.66
16.61
16.16
16.3
16.76
17.17
17.3
17.16
16.86
16.45
15.85
14.81
13.16
10.85
8.04
4.96
1.8
-1.34
-4.44
-7.5
-10.52
-13.49
-16.5
-19.7
-23.2
-26.94
-30.53
-33.37
-34.76
-34.23
-31.64
-27.25
-21.57
-15.16
-8.47
-1.87
4.34
9.82
14.19
17.11
18.42
18.23
16.93
15.07
13.24
11.89
11.27
11.38
12.03
12.95
13.87
14.59
14.99
14.98
14.48
13.42
11.74
9.46
6.71
3.77
0.9
-1.72
-4.07
-6.29
-8.61
-11.25
-14.31
-17.69
-21.1
-24.0
-25.78
-25.86
-23.88
-19.86
-14.23
-7.66
-0.89
5.47
11.0
15.46
18.69
20.56
21.07
20.44
19.1
17.63
16.55
16.1
16.2
16.54
16.75
16.66
16.3
15.8
15.23
14.51
13.44
11.81
9.61
6.94
4.05
1.14
-1.74
-4.64
-7.67
-10.9
-14.38
-18.11
-22.07
-26.16
-30.13
-33.5
-35.64
-35.92
-33.99
-29.9
-24.09
-17.22
-9.98
-2.9
3.6
9.27
13.88
17.24
19.28
20.08
19.86
19.03
18.04
17.27
16.94
17.06
17.45
17.85
18.1
18.09
17.9
17.63
17.28
16.71
15.65
13.87
11.3
8.09
4.58
1.13
-2.03
-4.83
-7.36
-9.82
-12.42
-15.36
-18.77
-22.63
-26.68
-30.43
-33.15
-34.19
-33.14
-30.01
-25.17
-19.2
-12.65
-5.96
0.51
6.38
11.24
14.74
16.76
17.47
17.26
16.68
16.16
15.96
16.09
16.42
16.78
17.03
17.05
16.89
16.68
16.54
16.51
16.48
16.14
15.17
13.39
10.88
7.92
4.86
1.98
-0.62
-2.96
-5.13
-7.26
-9.46
-11.96
-14.96
-18.51
-22.35
-25.83
-28.08
-28.3
-26.12
-21.7
-15.69
-8.96
-2.29
3.79
9.01
13.19
16.22
17.96
18.43
17.85
16.65
15.38
14.51
14.32
14.79
15.64
16.5
16.99
16.89
16.18
15.05
13.74
12.46
11.2
9.77
7.89
5.4
2.36
-0.94
-4.14
-7.01
-9.57
-11.99
-14.48
-17.15
-20.01
-23.0
-26.1
-29.26
-32.31
-34.86
-36.31
-36.05
-33.7
-29.31
-23.34
-16.47
-9.35
-2.5
3.76
9.21
13.57
16.62
18.22
18.52
17.92
16.97
16.23
16.04
16.43
17.21
18.01
18.52
18.58
18.2
17.53
16.73
15.88
14.92
13.7
12.02
9.82
7.19
4.35
1.56
-1.03
-3.42
-5.72
-8.08
-10.6
-13.35
-16.33
-19.53
-22.9
-26.27
-29.35
-31.73
-32.94
-32.63
-30.65
-27.12
-22.32
-16.64
-10.45
-4.16
1.8
7.0
11.05
13.73
15.07
15.38
15.13
14.77
14.61
14.74
15.12
15.64
16.24
16.9
17.58
18.21
18.63
18.68
18.18
17.0
15.11
12.61
9.77
6.89
4.28
2.07
0.19
-1.63
-3.66
-6.1
-8.97
-12.19
-15.66
-19.27
-22.83
-25.94
-28.01
-28.42
-26.81
-23.22
-18.15
-12.31
-6.36
-0.69
4.53
9.18
13.09
16.02
17.77
18.35
17.99
17.16
16.25
15.54
15.1
14.87
14.72
14.58
14.39
14.11
13.73
13.2
12.49
11.56
10.32
8.71
6.67
4.19
1.37
-1.61
-4.59
-7.47
-10.28
-13.1
-16.04
-19.15
-22.43
-25.85
-29.3
-32.58
-35.3
-36.94
-36.93
-34.88
-30.75
-24.88
-17.91
-10.56
-3.42
3.06
8.59
12.93
15.93
17.54
17.93
17.5
16.74
16.09
15.82
16.0
16.5
17.13
17.73
18.17
18.41
18.41
18.19
17.71
16.94
15.78
14.14
11.98
9.37
6.47
3.45
0.46
-2.48
-5.41
-8.38
-11.41
-14.43
-17.41
-20.34
-23.35
-26.47
-29.65
-32.56
-34.7
-35.47
-34.44
-31.44
-26.63
-20.45
-13.49
-6.34
0.48
6.55
11.53
15.18
17.37
18.14
17.75
16.65
15.4
14.52
14.27
14.63
15.32
16.03
16.52
16.82
17.04
17.28
17.45
17.29
16.49
14.91
12.61
9.89
7.03
4.28
1.69
-0.78
-3.26
-5.91
-8.84
-12.15
-15.81
-19.59
-23.1
-25.9
-27.61
-28.02
-27.13
-25.01
-21.74
-17.49
-12.43
-6.85
-1.11
4.45
9.54
13.86
17.2
19.34
20.2
19.88
18.75
17.28
15.96
15.1
14.77
14.85
15.14
15.44
15.61
15.51
15.07
14.2
12.92
11.22
9.15
6.72
3.95
0.9
-2.27
-5.4
-8.38
-11.19
-13.95
-16.81
-19.91
-23.31
-26.92
-30.59
-34.01
-36.74
-38.25
-38.04
-35.74
-31.37
-25.29
-18.21
-10.89
-3.99
2.11
7.28
11.48
14.69
16.82
17.84
17.89
17.31
16.63
16.35
16.74
17.7
18.86
19.75
20.07
19.79
19.12
18.34
17.64
16.96
16.1
14.8
12.91
10.42
7.49
4.33
1.17
-1.85
-4.67
-7.32
-9.88
-12.51
-15.33
-18.49
-22.04
-25.83
-29.45
-32.26
-33.52
-32.66
-29.55
-24.55
-18.38
-11.85
-5.56
0.21
5.41
10.05
14.0
17.01
18.9
19.66
19.58
19.07
18.55
18.27
18.27
18.45
18.65
18.77
18.7
18.42
17.94
17.29
16.54
15.66
14.54
12.99
10.86
8.14
5.04
1.87
-1.08
-3.69
-6.05
-8.32
-10.72
-13.33
-16.18
-19.25
-22.47
-25.68
-28.48
-30.31
-30.56
-28.89
-25.33
-20.35
-14.67
-8.94
-3.6
1.2
5.4
8.98
11.79
13.66
14.53
14.5
13.84
12.94
12.16
11.77
11.91
12.53
13.45
14.43
15.19
15.57
15.52
15.09
14.34
13.3
11.9
10.05
7.74
5.04
2.18
-0.58
-3.06
-5.24
-7.24
-9.3
-11.62
-14.33
-17.44
-20.8
-24.11
-26.96
-28.89
-29.49
-28.5
-25.9
-21.84
-16.69
-10.83
-4.68
1.31
6.71
11.08
14.12
15.76
16.15
15.69
14.82
13.89
13.12
12.58
12.28
12.22
12.38
12.72
13.13
13.46
13.53
13.18
12.33
10.92
9.05
6.85
4.52
2.23
0.04
-2.1
-4.41
-7.04
-10.1
-13.54
-17.15
-20.69
-23.86
-26.34
-27.78
-27.83
-26.24
-22.98
-18.28
-12.66
-6.75
-1.12
3.84
7.92
11.07
13.32
14.69
15.23
14.99
14.11
12.83
11.43
10.16
9.2
8.61
8.37
8.33
8.35
8.25
7.89
7.17
6.05
4.55
2.74
0.68
-1.58
-4.01
-6.6
-9.33
-12.16
-15.06
-18.09
-21.32
-24.78
-28.36
-31.64
-34.0
-34.79
-33.55
-30.26
-25.33
-19.48
-13.41
-7.66
-2.52
1.95
5.73
8.8
11.08
12.51
13.09
12.97
12.37
11.63
11.02
10.72
10.77
11.08
11.51
11.93
12.3
12.58
12.66
12.31
11.29
9.49
7.0
4.13
1.25
-1.4
-3.82
-6.18
-8.67
-11.44
-14.52
-17.89
-21.5
-25.15
-28.43
-30.78
-31.55
-30.35
-27.18
-22.43
-16.69
-10.57
-4.49
1.23
6.29
10.4
13.29
14.83
15.14
14.56
13.53
12.46
11.62
11.13
11.04
11.29
11.81
12.49
13.12
13.5
13.4
12.69
11.3
9.32
6.91
4.28
1.54
-1.3
-4.36
-7.75
-11.45
-15.33
-19.2
-22.86
-26.17
-29.03
-31.25
-32.5
-32.34
-30.32
-26.25
-20.27
-12.88
-4.88
2.87
9.61
14.84
18.32
20.09
20.44
19.77
18.56
17.25
16.22
15.63
15.48
15.61
15.76
15.73
15.44
14.88
14.1
13.11
11.84
10.17
8.02
5.39
2.36
-0.95
-4.42
-7.94
-11.48
-15.0
-18.58
-22.33
-26.27
-30.26
-33.84
-36.34
-37.03
-35.46
-31.61
-25.9
-19.02
-11.66
-4.32
2.67
9.02
14.43
18.51
21.02
21.95
21.67
20.74
19.75
19.12
19.01
19.36
20.01
20.73
21.34
21.67
21.57
20.95
19.82
18.25
16.29
14.0
11.4
8.5
5.35
2.08
-1.18
-4.33
-7.35
-10.33
-13.38
-16.63
-20.13
-23.84
-27.54
-30.85
-33.24
-34.16
-33.18
-30.13
-25.19
-18.79
-11.55
-4.04
3.24
9.82
15.32
19.34
21.69
22.4
21.82
20.57
19.27
18.38
18.11
18.38
19.0
19.8
20.64
21.4
21.95
22.08
21.63
20.51
18.76
16.5
13.89
11.04
8.05
5.02
2.03
-0.83
-3.54
-6.16
-8.8
-11.61
-14.71
-18.1
-21.67
-25.11
-27.93
-29.53
-29.33
-26.98
-22.53
-16.42
-9.39
-2.21
4.5
10.36
15.19
18.89
21.35
22.55
22.53
21.54
20.03
18.49
17.38
16.96
17.24
18.03
19.01
19.85
20.28
20.22
19.67
18.69
17.36
15.62
13.42
10.72
7.58
4.2
0.86
-2.22
-4.97
-7.52
-10.12
-13.06
-16.48
-20.31
-24.22
-27.62
-29.88
-30.45
-29.02
-25.63
-20.64
-14.59
-8.06
-1.57
4.53
9.97
14.55
18.03
20.24
21.15
20.95
20.07
19.05
18.34
18.14
18.35
18.68
18.8
18.6
18.18
17.7
17.28
16.8
15.94
14.38
11.99
8.84
5.27
1.63
-1.79
-4.89
-7.66
-10.21
-12.68
-15.26
-18.14
-21.48
-25.24
-29.14
-32.62
-34.98
-35.62
-34.19
-30.66
-25.32
-18.66
-11.28
-3.83
3.13
9.13
13.88
17.3
19.45
20.52
20.72
20.32
19.6
18.86
18.34
18.2
18.4
18.75
19.04
19.11
18.92
18.5
17.92
17.08
15.81
13.91
11.3
8.1
4.59
1.13
-2.03
-4.77
-7.19
-9.43
-11.73
-14.29
-17.31
-20.94
-25.11
-29.53
-33.56
-36.44
-37.49
-36.32
-33.0
-27.94
-21.76
-15.03
-8.29
-1.93
3.69
8.33
11.84
14.19
15.54
16.12
16.21
16.11
16.06
16.16
16.38
16.58
16.62
16.48
16.27
16.21
16.41
16.77
16.95
16.51
15.13
12.76
9.67
6.26
2.91
-0.17
-2.9
-5.33
-7.51
-9.56
-11.61
-13.85
-16.48
-19.52
-22.79
-25.85
-28.13
-29.11
-28.48
-26.17
-22.36
-17.4
-11.65
-5.5
0.62
6.32
11.23
15.09
17.74
19.23
19.73
19.51
18.85
18.03
17.2
16.46
15.82
15.28
14.83
14.48
14.25
14.04
13.68
12.88
11.41
9.16
6.26
3.0
-0.26
-3.27
-5.99
-8.53
-11.12
-13.93
-17.08
-20.58
-24.37
-28.29
-32.04
-35.11
-36.92
-36.96
-34.98
-31.14
-25.86
-19.69
-13.11
-6.43
0.06
6.07
11.17
14.96
17.22
17.99
17.63
16.68
15.63
14.83
14.45
14.49
14.85
15.37
15.87
16.19
16.21
15.86
15.11
13.97
12.41
10.41
7.98
5.2
2.19
-0.87
-3.89
-6.81
-9.66
-12.55
-15.62
-19.0
-22.78
-26.93
-31.2
-35.06
-37.81
-38.76
-37.51
-34.12
-29.04
-22.93
-16.42
-9.91
-3.56
2.47
7.96
12.5
15.7
17.38
17.68
17.06
16.12
15.34
14.97
15.0
15.26
15.58
15.85
16.06
16.21
16.28
16.17
15.69
14.65
12.88
10.36
7.2
3.69
0.19
-2.91
-5.43
-7.39
-9.06
-10.83
-13.03
-15.86
-19.31
-23.26
-27.42
-31.43
-34.83
-37.16
-37.96
-36.95
-34.09
-29.58
-23.82
-17.28
-10.45
-3.78
2.23
7.19
10.8
13.01
14.01
14.16
13.86
13.41
13.03
12.83
12.9
13.3
13.96
14.72
15.35
15.68
15.67
15.39
14.91
14.2
13.07
11.3
8.75
5.52
1.95
-1.55
-4.64
-7.18
-9.25
-11.14
-13.14
-15.56
-18.56
-22.11
-25.96
-29.6
-32.36
-33.55
-32.72
-29.68
-24.66
-18.17
-10.85
-3.35
3.81
10.21
15.52
19.46
21.86
22.73
22.3
21.02
19.45
18.12
17.34
17.15
17.33
17.62
17.79
17.77
17.64
17.47
17.19
16.57
15.31
13.19
10.22
6.62
2.73
-1.21
-5.16
-9.24
-13.56
-18.17
-22.92
-27.6
-31.99
-35.85
-38.92
-40.8
-41.01
-39.18
-35.22
-29.44
-22.46
-14.96
-7.49
-0.38
6.16
11.95
16.7
20.11
22.01
22.51
21.94
20.78
19.48
18.45
17.88
17.87
18.35
19.08
19.78
20.15
20.04
19.41
18.28
16.58
14.24
11.22
7.63
3.75
-0.07
-3.56
-6.63
-9.43
-12.15
-15.01
-18.19
-21.85
-26.08
-30.75
-35.36
-39.1
-41.03
-40.42
-37.11
-31.47
-24.27
-16.31
-8.18
-0.29
7.01
13.31
18.11
21.04
22.06
21.55
20.19
18.66
17.46
16.83
16.73
17.02
17.51
18.09
18.64
19.09
19.36
19.35
18.94
17.99
16.34
13.94
10.86
7.32
3.64
0.11
-3.14
-6.14
-9.05
-12.06
-15.35
-19.02
-23.07
-27.31
-31.26
-34.23
-35.39
-34.13
-30.23
-24.02
-16.24
-7.8
0.47
7.93
14.2
18.98
22.15
23.68
23.77
22.81
21.35
19.89
18.81
18.27
18.26
18.67
19.35
20.12
20.77
21.09
20.83
19.84
18.01
15.41
12.19
8.61
4.91
1.33
-1.99
-5.04
-7.96
-11.09
-14.76
-19.17
-24.21
-29.35
-33.78
-36.62
-37.22
-35.29
-31.03
-24.97
-17.81
-10.2
-2.68
4.38
10.69
15.99
20.1
22.83
24.14
24.16
23.22
21.75
20.2
18.86
17.85
17.18
16.82
16.77
17.07
17.66
18.29
18.55
18.01
16.4
13.68
10.1
6.01
1.79
-2.3
-6.1
-9.6
-12.84
-16.0
-19.3
-22.95
-27.01
-31.26
-35.2
-38.1
-39.22
-38.02
-34.32
-28.37
-20.71
-12.07
-3.25
5.03
12.16
17.69
21.4
23.28
23.58
22.76
21.43
20.18
19.45
19.37
19.78
20.33
20.61
20.38
19.68
18.7
17.73
16.87
15.95
14.62
12.59
9.74
6.26
2.49
-1.22
-4.72
-8.02
-11.24
-14.51
-17.91
-21.53
-25.45
-29.65
-33.93
-37.82
-40.57
-41.42
-39.89
-35.98
-30.17
-23.15
-15.6
-7.98
-0.61
6.22
12.13
16.67
19.51
20.62
20.36
19.36
18.32
17.7
17.69
18.16
18.81
19.34
19.62
19.63
19.47
19.21
18.77
17.96
16.54
14.4
11.61
8.48
5.39
2.61
0.19
-2.07
-4.41
-7.08
-10.25
-13.95
-18.08
-22.37
-26.31
-29.15
-30.16
-28.82
-25.04
-19.24
-12.2
-4.73
2.48
9.0
14.57
18.99
22.07
23.73
24.04
23.32
22.02
20.59
19.37
18.51
18.0
17.71
17.52
17.29
16.96
16.47
15.8
14.86
13.57
11.74
9.26
6.1
2.41
-1.52
-5.38
-9.0
-12.4
-15.8
-19.45
-23.45
-27.69
-31.78
-35.17
-37.24
-37.49
-35.61
-31.55
-25.6
-18.26
-10.2
-2.09
5.45
11.95
17.06
20.61
22.59
23.12
22.53
21.24
19.78
18.57
17.91
17.86
18.26
18.87
19.4
19.64
19.44
18.69
17.3
15.22
12.46
9.15
5.5
1.79
-1.8
-5.16
-8.3
-11.32
-14.38
-17.64
-21.33
-25.56
-30.26
-35.0
-39.01
-41.36
-41.23
-38.29
-32.75
-25.33
-16.91
-8.33
-0.2
7.09
13.25
18.05
21.34
23.11
23.59
23.16
22.31
21.49
21.02
21.03
21.47
22.1
22.58
22.62
22.09
21.06
19.74
18.3
16.7
14.72
12.05
8.58
4.47
0.14
-3.9
-7.34
-10.14
-12.54
-14.88
-17.48
-20.57
-24.2
-28.21
-32.16
-35.44
-37.31
-37.18
-34.79
-30.3
-24.23
-17.29
-10.09
-3.12
3.29
8.81
13.15
16.05
17.45
17.58
16.9
15.96
15.22
14.9
15.01
15.42
15.97
16.58
17.19
17.72
18.02
17.87
17.07
15.48
13.13
10.16
6.87
3.57
0.53
-2.11
-4.37
-6.44
-8.54
-10.86
-13.46
-16.33
-19.36
-22.41
-25.23
-27.43
-28.53
-28.0
-25.51
-21.08
-15.12
-8.31
-1.31
5.32
11.21
16.07
19.65
21.71
22.2
21.37
19.7
17.84
16.34
15.45
15.14
15.17
15.3
15.36
15.29
15.04
14.58
13.79
12.55
10.78
8.45
5.68
2.65
-0.39
-3.21
-5.66
-7.83
-9.93
-12.33
-15.32
-19.02
-23.28
-27.68
-31.65
-34.54
-35.85
-35.23
-32.57
-28.01
-21.9
-14.74
-7.17
0.2
6.81
12.21
16.07
18.26
18.87
18.22
16.83
15.28
14.06
13.42
13.36
13.69
14.14
14.51
14.66
14.51
14.06
13.22
11.97
10.3
8.19
5.67
2.77
-0.41
-3.72
-6.97
-10.0
-12.76
-15.37
-18.07
-21.06
-24.41
-27.94
-31.22
-33.7
-34.87
-34.41
-32.19
-28.36
-23.23
-17.22
-10.81
-4.49
1.34
6.34
10.25
12.96
14.5
15.01
14.78
14.16
13.47
12.96
12.76
12.87
13.2
13.66
14.12
14.46
14.55
14.19
13.24
11.6
9.34
6.67
3.84
1.13
-1.35
-3.58
-5.63
-7.65
-9.79
-12.23
-15.14
-18.61
-22.56
-26.64
-30.28
-32.78
-33.59
-32.45
-29.45
-24.98
-19.59
-13.74
-7.81
-2.05
3.34
8.11
11.98
14.63
15.88
15.78
14.63
12.95
11.33
10.21
9.79
9.99
10.57
11.29
12.01
12.69
13.3
13.69
13.61
12.77
11.02
8.44
5.35
2.13
-0.95
-3.78
-6.47
-9.25
-12.28
-15.63
-19.17
-22.58
-25.43
-27.21
-27.48
-25.96
-22.64
-17.75
-11.76
-5.24
1.21
7.11
12.08
15.83
18.22
19.21
18.98
17.92
16.45
15.03
13.9
13.09
12.51
12.04
11.62
11.3
11.07
10.8
10.24
9.09
7.21
4.72
1.92
-0.85
-3.43
-5.87
-8.39
-11.23
-14.52
-18.24
-22.24
-26.24
-29.81
-32.38
-33.31
-32.12
-28.68
-23.34
-16.78
-9.83
-3.19
2.69
7.6
11.47
14.25
15.95
16.61
16.43
15.69
14.69
13.73
12.97
12.47
12.2
12.05
11.91
11.68
11.36
10.93
10.4
9.65
8.5
6.73
4.25
1.17
-2.22
-5.56
-8.65
-11.52
-14.44
-17.67
-21.26
-24.91
-28.03
-29.92
-30.05
-28.2
-24.57
-19.63
-13.94
-7.99
-2.2
3.15
7.81
11.51
14.09
15.42
15.59
14.84
13.54
12.12
10.96
10.32
10.24
10.63
11.24
11.8
12.08
11.95
11.37
10.4
9.06
7.42
5.5
3.37
1.1
-1.22
-3.58
-6.04
-8.72
-11.78
-15.27
-19.03
-22.7
-25.73
-27.49
-27.51
-25.57
-21.79
-16.6
-10.61
-4.42
1.43
6.52
10.55
13.32
14.69
14.73
13.71
12.05
10.28
8.9
8.2
8.27
8.99
10.11
11.28
12.19
12.57
12.31
11.42
10.09
8.56
7.02
5.54
4.02
2.32
0.26
-2.23
-5.19
-8.53
-12.02
-15.26
-17.67
-18.66
-17.82
-15.15
-11.03
-6.15
-1.17
3.46
7.51
10.92
13.62
15.44
16.21
15.88
14.66
12.96
11.27
9.97
9.23
8.98
9.04
9.19
9.23
9.01
8.48
7.66
6.58
5.28
3.74
1.86
-0.44
-3.21
-6.38
-9.83
-13.43
-17.06
-20.59
-23.72
-25.99
-26.85
-25.83
-22.79
-18.01
-12.15
-5.97
-0.13
5.01
9.31
12.81
15.48
17.24
17.98
17.69
16.57
14.99
13.35
12.02
11.15
10.72
10.56
10.49
10.36
10.06
9.52
8.69
7.52
5.93
3.87
1.3
-1.73
-5.08
-8.55
-11.92
-15.08
-18.04
-20.88
-23.61
-26.01
-27.65
-27.97
-26.56
-23.3
-18.45
-12.54
-6.15
0.19
6.06
11.07
14.91
17.36
18.41
18.27
17.38
16.24
15.3
14.81
14.84
15.27
15.9
16.49
16.83
16.83
16.51
15.88
14.96
13.68
11.92
9.62
6.91
4.04
1.32
-1.05
-3.14
-5.15
-7.34
-9.83
-12.62
-15.58
-18.67
-21.88
-25.17
-28.32
-30.89
-32.3
-32.06
-29.99
-26.28
-21.39
-15.85
-10.12
-4.48
0.8
5.5
9.39
12.25
14.02
14.78
14.8
14.38
13.85
13.46
13.37
13.63
14.19
14.94
15.7
16.32
16.66
16.62
16.07
14.94
13.19
10.88
8.22
5.48
2.92
0.71
-1.18
-2.85
-4.47
-6.13
-7.9
-9.79
-11.83
-14.11
-16.69
-19.59
-22.6
-25.28
-27.06
-27.4
-25.95
-22.74
-18.09
-12.54
-6.66
-1.01
4.02
8.11
11.1
12.94
13.74
13.72
13.16
12.32
11.45
10.75
10.37
10.37
10.71
11.21
11.68
11.96
11.99
11.74
11.17
10.21
8.75
6.73
4.24
1.5
-1.23
-3.77
-6.11
-8.3
-10.5
-12.78
-15.18
-17.72
-20.33
-22.82
-24.86
-25.99
-25.79
-24.03
-20.76
-16.29
-11.05
-5.51
-0.1
4.75
8.63
11.17
12.19
11.84
10.61
9.13
7.98
7.48
7.62
8.2
8.94
9.59
9.97
9.98
9.58
8.74
7.55
6.13
4.61
3.03
1.37
-0.46
-2.56
-4.92
-7.52
-10.31
-13.28
-16.45
-19.85
-23.36
-26.7
-29.45
-31.13
-31.35
-29.91
-26.81
-22.32
-16.85
-10.87
-4.89
0.65
5.42
9.2
11.9
13.54
14.24
14.19
13.66
12.93
12.3
11.96
11.99
12.3
12.73
13.09
13.33
13.47
13.49
13.32
12.74
11.5
9.44
6.67
3.48
0.27
-2.61
-5.03
-7.05
-8.86
-10.72
-12.85
-15.41
-18.48
-21.92
-25.35
-28.14
-29.57
-29.08
-26.49
-22.05
-16.3
-9.93
-3.6
2.19
7.04
10.66
12.87
13.68
13.31
12.19
10.82
9.7
9.17
9.36
10.17
11.36
12.58
13.5
13.92
13.77
13.13
12.15
10.94
9.55
7.93
6.04
3.85
1.45
-1.07
-3.64
-6.27
-9.08
-12.18
-15.64
-19.35
-22.99
-26.03
-27.96
-28.33
-26.99
-24.04
-19.78
-14.57
-8.78
-2.7
3.35
8.94
13.65
17.08
19.01
19.49
18.85
17.57
16.13
14.92
14.15
13.84
13.88
14.16
14.56
15.03
15.52
15.88
15.88
15.22
13.68
11.25
8.14
4.69
1.19
-2.14
-5.19
-7.91
-10.27
-12.36
-14.39
-16.77
-19.91
-23.99
-28.76
-33.52
-37.29
-39.14
-38.49
-35.24
-29.75
-22.69
-14.81
-6.83
0.7
7.35
12.8
16.81
19.23
20.06
19.58
18.32
16.96
16.11
16.11
16.92
18.2
19.48
20.35
20.61
20.28
19.53
18.58
17.61
16.67
15.66
14.38
12.59
10.17
7.17
3.83
0.47
-2.66
-5.46
-8.02
-10.56
-13.31
-16.44
-20.0
-23.86
-27.7
-31.02
-33.22
-33.73
-32.12
-28.31
-22.53
-15.4
-7.69
-0.2
6.45
11.84
15.83
18.4
19.69
19.89
19.29
18.31
17.37
16.87
17.02
17.76
18.82
19.86
20.6
20.94
20.93
20.63
20.04
19.06
17.58
15.55
13.04
10.24
7.35
4.5
1.74
-0.95
-3.62
-6.31
-9.06
-11.9
-14.88
-18.02
-21.25
-24.47
-27.44
-29.86
-31.33
-31.45
-29.82
-26.27
-20.91
-14.22
-6.99
-0.03
6.0
10.73
14.12
16.25
17.25
17.2
16.26
14.73
13.11
11.95
11.63
12.21
13.42
14.81
16.01
16.8
17.19
17.28
17.06
16.38
15.03
12.83
9.84
6.34
2.73
-0.61
-3.46
-5.81
-7.85
-9.85
-12.12
-14.86
-18.14
-21.78
-25.32
-28.07
-29.33
-28.6
-25.76
-21.09
-15.17
-8.6
-1.92
4.43
10.12
14.82
18.22
20.14
20.61
19.93
18.59
17.1
15.89
15.19
15.01
15.21
15.57
15.88
16.0
15.83
15.31
14.4
13.05
11.2
8.85
6.1
3.08
-0.04
-3.15
-6.2
-9.19
-12.08
-14.87
