0
127.86
128.14
129.01
129.57
129.2
127.75
125.46
122.61
119.13
114.52
107.95
98.73
86.72
72.6
57.71
43.52
31.05
20.44
10.93
1.3
-9.57
-22.17
-36.22
-50.8
-64.82
-77.48
-88.67
-98.99
-109.54
-121.7
-136.64
-154.99
-176.44
-199.36
-220.78
-236.68
-242.91
-236.37
-216.14
-183.92
-143.56
-99.83
-56.96
-17.72
16.77
46.4
71.23
90.99
105.15
113.45
116.47
115.77
113.51
111.75
111.7
113.39
115.89
117.91
118.44
117.18
114.54
111.14
107.38
103.01
97.32
89.47
79.02
66.24
52.03
37.71
24.41
12.82
2.91
-6.0
-14.89
-24.72
-36.03
-48.68
-61.97
-74.9
-86.68
-97.04
-106.38
-115.63
-125.94
-138.42
-153.92
-172.61
-193.72
-215.09
-233.2
-243.75
-242.8
-228.12
-200.0
-161.37
-116.78
-71.02
-27.8
10.77
43.95
71.59
93.55
109.44
119.02
122.75
122.04
119.12
116.34
115.39
116.79
119.85
123.2
125.48
125.99
124.77
122.38
119.43
116.12
112.14
106.81
99.44
89.72
77.91
64.75
51.1
37.66
24.65
11.91
-0.9
-13.98
-27.18
-40.06
-52.05
-62.78
-72.24
-80.86
-89.36
-98.59
-109.45
-122.81
-139.2
-158.45
-179.11
-198.23
-211.65
-215.05
-205.3
-181.77
-146.66
-104.38
-60.14
-18.4
18.14
48.47
72.67
91.03
103.62
110.45
112.01
109.64
105.49
101.91
100.6
102.07
105.53
109.42
112.2
112.99
111.74
108.92
105.02
100.08
93.71
85.39
74.95
62.87
50.16
37.9
26.76
16.69
7.0
-3.26
-14.7
-27.39
-40.8
-54.13
-66.71
-78.34
-89.44
-100.93
-114.06
-130.06
-149.66
-172.59
-197.08
-219.76
-236.12
-241.66
-233.24
-210.23
-174.87
-131.6
-85.64
-41.48
-1.94
31.97
60.3
83.37
101.15
113.34
119.9
121.52
119.86
117.07
115.14
115.08
116.77
119.17
121.04
121.57
120.63
118.54
115.65
111.9
106.79
99.68
90.22
78.68
65.98
53.3
41.67
31.51
22.43
13.46
3.34
-8.81
-23.14
-38.92
-54.85
-69.58
-82.4
-93.56
-104.31
-116.47
-131.86
-151.52
-175.23
-201.05
-225.41
-243.63
-251.03
-244.21
-222.19
-186.87
-142.47
-94.28
-47.07
-4.09
33.27
64.83
90.83
111.23
125.72
134.15
137.12
136.23
133.73
131.88
132.06
134.39
137.82
140.84
142.23
141.56
139.21
135.9
132.1
127.67
121.86
113.77
102.93
89.63
74.96
60.45
47.46
36.63
27.63
19.31
10.21
-0.84
-14.12
-28.99
-44.12
-58.16
-70.38
-81.01
-91.22
-102.64
-116.86
-134.87
-156.68
-181.01
-205.18
-225.32
-237.01
-236.37
-221.22
-191.98
-151.65
-104.99
-57.14
-12.25
27.17
60.21
86.85
107.32
121.74
130.28
133.57
132.89
130.17
127.41
126.09
126.72
128.84
131.4
133.36
134.06
133.36
131.35
128.06
123.25
116.44
107.3
95.98
83.17
69.95
57.35
45.89
35.42
25.23
14.48
2.65
-10.26
-23.69
-36.9
-49.36
-61.14
-72.86
-85.66
-100.76
-119.05
-140.69
-164.62
-188.3
-207.95
-219.11
-217.9
-202.22
-172.73
-132.73
-87.24
-41.43
0.67
36.87
66.53
89.77
106.75
117.5
122.21
121.75
117.8
112.62
108.37
106.39
106.89
109.09
111.69
113.47
113.68
112.1
108.86
104.07
97.67
89.41
79.12
67.02
53.81
40.53
28.11
16.95
6.71
-3.54
-14.83
-27.74
-42.16
-57.23
-71.85
-85.2
-97.15
-108.42
-120.43
-134.89
-153.19
-175.77
-201.48
-227.38
-249.02
-261.37
-260.21
-243.46
-212.0
-169.42
-120.94
-71.73
-25.66
15.32
50.74
80.77
105.44
124.37
137.16
143.97
145.9
144.87
143.02
141.91
142.09
143.07
143.82
143.36
141.32
137.93
133.76
129.18
123.97
117.39
108.5
96.77
82.5
66.86
51.41
37.48
25.54
15.09
4.93
-6.18
-18.92
-33.13
-48.04
-62.62
-76.13
-88.51
-100.44
-113.18
-128.2
-146.72
-169.24
-194.92
-221.36
-244.63
-260.03
-263.2
-251.46
-224.75
-185.75
-139.09
-89.93
-42.65
0.07
37.13
68.44
94.13
114.08
128.01
135.96
138.74
137.99
135.79
134.09
133.99
135.63
138.34
141.13
143.2
144.12
143.71
141.79
137.98
131.74
122.7
110.94
97.23
82.75
68.73
55.88
44.11
32.7
20.63
7.29
-7.29
-22.37
-36.93
-50.21
-62.05
-73.06
-84.47
-97.76
-114.24
-134.52
-158.03
-182.57
-204.37
-218.74
-221.26
-209.25
-182.79
-144.74
-99.85
-53.28
-9.18
29.94
63.09
90.08
110.85
125.26
133.3
135.49
133.2
128.41
123.31
119.6
118.09
118.6
120.22
121.79
122.33
121.24
118.21
113.13
105.87
96.38
84.81
71.61
57.54
43.4
29.81
16.94
4.49
-8.05
-21.23
-35.2
-49.77
-64.42
-78.62
-92.11
-105.13
-118.57
-133.73
-151.95
-173.88
-198.81
-224.18
-245.8
-258.69
-258.53
-243.04
-212.85
-171.37
-123.7
-75.05
-29.44
10.89
45.27
73.74
96.49
113.49
124.78
130.87
132.86
132.38
131.03
130.03
129.8
130.19
130.68
130.72
130.02
128.43
125.87
122.09
116.66
109.08
99.04
86.69
72.71
58.09
43.73
30.1
17.09
4.16
-9.23
-23.26
-37.63
-51.71
-64.9
-77.0
-88.41
-99.97
-112.89
-128.39
-147.37
-169.89
-194.76
-219.12
-238.71
-248.73
-245.26
-226.67
-194.44
-152.67
-106.83
-61.94
-21.15
14.47
45.28
71.87
94.25
111.74
123.61
129.84
131.54
130.69
129.38
129.0
129.84
131.3
132.43
132.58
131.69
130.12
128.26
126.08
123.01
118.08
110.53
100.17
87.73
74.59
62.2
51.47
42.36
33.96
24.93
14.18
1.33
-13.11
-28.01
-42.16
-54.81
-66.01
-76.66
-88.24
-102.34
-120.15
-141.87
-166.31
-190.62
-210.65
-221.77
-220.14
-204.01
-174.41
-134.93
-90.63
-46.55
-6.39
28.02
56.42
79.25
96.88
109.38
116.71
119.35
118.49
115.94
113.61
112.77
113.74
115.91
118.25
119.84
120.24
119.48
117.8
115.26
111.63
106.42
99.3
90.26
79.82
68.77
57.88
47.55
37.64
27.56
16.61
4.4
-8.92
-22.63
-35.81
-47.83
-58.69
-69.12
-80.46
-94.16
-111.31
-132.11
-155.4
-178.42
-197.06
-206.7
-203.52
-185.87
-154.99
-114.8
-70.64
-27.69
10.45
42.15
67.28
86.37
99.88
108.08
111.3
110.43
107.0
102.86
99.65
98.24
98.6
100.02
101.54
102.4
102.24
100.96
98.51
94.7
89.16
81.52
71.68
59.93
47.05
33.98
21.56
10.15
-0.45
-10.91
-21.97
-34.08
-47.14
-60.49
-73.32
-85.05
-95.77
-106.29
-118.07
-132.64
-150.99
-172.95
-196.53
-218.05
-232.7
-235.85
-224.55
-198.68
-161.11
-116.79
-71.17
-28.49
8.95
40.65
67.06
88.53
104.99
116.1
121.91
123.29
121.94
119.79
118.38
118.27
119.1
119.92
119.84
118.46
115.96
112.82
109.32
105.31
100.09
92.78
82.91
70.7
57.24
44.02
32.3
22.48
14.01
5.59
-4.13
-15.9
-29.58
-44.22
-58.56
-71.65
-83.24
-93.9
-104.87
-117.64
-133.51
-153.01
-175.44
-198.55
-218.62
-231.17
-232.09
-218.99
-192.11
-154.43
-110.76
-66.33
-25.27
10.13
39.34
62.73
80.86
93.89
101.84
105.03
104.54
102.09
99.57
98.44
99.14
101.22
103.71
105.64
106.51
106.23
104.97
102.7
99.12
93.73
86.17
76.5
65.41
53.92
42.99
33.06
23.88
14.67
4.58
-6.84
-19.38
-32.28
-44.59
-55.71
-65.65
-75.13
-85.38
-97.84
-113.64
-133.08
-155.14
-177.23
-195.38
-205.14
-202.74
-186.43
-157.11
-118.24
-74.75
-31.63
7.39
40.24
66.37
86.06
99.72
107.66
110.32
108.58
103.94
98.31
93.54
90.75
90.22
91.37
93.24
94.87
95.59
95.04
93.03
89.44
84.18
77.23
68.81
59.31
49.27
39.14
29.09
18.94
8.27
-3.38
-16.15
-29.81
-43.63
-56.82
-68.88
-79.88
-90.64
-102.45
-116.82
-134.82
-156.69
-181.16
-205.3
-224.79
-234.83
-231.48
-213.06
-180.83
-138.71
-92.06
-45.99
-4.12
31.87
61.77
85.97
104.75
118.04
125.86
128.71
127.9
125.3
122.81
121.67
122.17
123.69
125.16
125.73
125.05
123.32
120.88
117.86
113.89
108.19
100.01
89.06
75.84
61.59
47.8
35.67
25.56
16.85
8.29
-1.42
-13.0
-26.26
-40.18
-53.55
-65.47
-75.89
-85.76
-96.64
-110.19
-127.64
-149.12
-173.41
-197.68
-217.81
-229.2
-228.03
-212.39
-183.09
-143.5
-98.43
-52.79
-10.29
26.98
58.33
83.68
102.95
115.94
122.66
123.76
120.86
116.19
112.04
109.98
110.42
112.64
115.29
117.06
117.22
115.87
113.52
110.74
107.62
103.63
97.97
89.95
79.52
67.45
55.08
43.73
34.17
26.25
18.95
10.89
1.03
-10.91
-24.29
-37.88
-50.45
-61.32
-70.65
-79.38
-88.89
-100.59
-115.53
-134.11
-155.69
-178.33
-198.63
-212.2
-214.7
-203.2
-177.36
-139.74
-95.16
-49.09
-6.14
30.97
61.42
85.45
103.54
115.85
122.34
123.41
120.2
114.67
109.09
105.26
103.97
104.92
107.01
109.04
110.15
110.08
108.93
106.83
103.57
98.66
91.54
81.99
70.42
57.84
45.39
33.93
23.65
13.99
4.04
-7.01
-19.34
-32.47
-45.5
-57.62
-68.54
-78.75
-89.35
-101.73
-117.12
-136.08
-158.14
-181.48
-202.9
-218.26
-223.32
-215.04
-192.59
-157.91
-115.14
-69.44
-25.48
13.7
46.8
73.76
94.85
110.2
119.69
123.54
122.68
118.91
114.38
110.99
109.68
110.29
111.9
113.33
113.76
112.91
110.98
108.22
104.66
99.95
93.46
84.7
73.62
60.88
47.68
35.31
24.63
15.68
7.63
-0.86
-10.95
-23.14
-37.03
-51.44
-64.96
-76.67
-86.49
-95.34
-104.85
-116.86
-132.78
-152.95
-176.23
-199.75
-219.23
-229.87
-227.58
-210.37
-179.05
-137.18
-89.96
-42.72
0.51
37.62
68.14
92.47
111.05
124.06
131.6
134.15
132.84
129.33
125.34
122.09
119.95
118.52
117.0
114.79
111.67
107.94
104.09
100.33
96.37
91.4
84.48
74.98
63.01
49.51
35.92
23.59
13.19
4.43
-3.74
-12.64
-23.19
-35.43
-48.62
-61.62
-73.42
-83.66
-92.81
-101.97
-112.53
-125.8
-142.57
-162.73
-184.89
-206.23
-222.71
-229.88
-224.16
-204.11
-171.0
-128.66
-82.28
-36.86
4.03
38.65
66.7
88.48
104.27
114.12
118.21
117.28
112.88
107.1
101.98
98.95
98.5
100.23
103.16
106.13
108.1
108.31
106.23
101.59
94.36
84.77
73.31
60.68
47.69
35.02
22.99
11.49
0.11
-11.62
-23.95
-36.69
-49.33
-61.31
-72.32
-82.64
-93.08
-104.89
-119.42
-137.49
-158.82
-181.55
-202.11
-215.86
-218.28
-206.44
-180.03
-141.71
-96.22
-49.0
-4.67
33.79
65.21
89.57
107.24
118.62
124.07
124.27
120.51
114.65
108.78
104.56
102.71
102.88
103.95
104.66
104.14
102.09
98.65
94.0
88.04
80.46
70.93
59.53
46.86
33.9
21.58
10.38
0.02
-10.28
-21.49
-34.16
-48.2
-62.8
-76.91
-89.69
-101.03
-111.72
-123.18
-137.05
-154.55
-175.9
-199.85
-223.47
-242.44
-251.86
-247.63
-227.8
-193.41
-148.4
-98.4
-48.98
-4.18
34.15
65.92
91.78
112.22
127.2
136.57
140.61
140.51
138.19
135.64
134.29
134.46
135.46
136.17
135.66
133.65
130.55
127.04
123.44
119.44
114.07
106.17
95.09
81.06
65.31
49.56
35.26
22.98
12.25
1.79
-9.72
-23.06
-38.09
-53.82
-69.0
-82.63
-94.51
-105.25
-116.15
-128.81
-144.64
-164.4
-187.66
-212.38
-234.83
-250.15
-253.48
-241.51
-213.69
-172.66
-123.44
-71.86
-22.95
20.17
56.34
85.56
108.16
124.23
133.7
136.95
135.19
130.55
125.46
121.92
120.84
121.89
123.91
125.55
125.91
124.79
122.58
119.77
116.53
112.49
106.91
98.99
88.47
75.8
62.18
49.11
37.78
28.53
20.69
12.87
3.69
-7.59
-20.64
-34.33
-47.22
-58.36
-67.71
-76.24
-85.52
-97.31
-112.93
-132.82
-155.99
-179.77
-199.86
-211.16
-209.0
-190.87
-157.37
-112.32
-61.71
-11.83
32.4
68.28
95.18
113.74
124.88
129.47
128.39
122.92
115.0
106.91
100.71
97.58
97.48
99.37
101.73
103.32
103.52
102.35
100.05
96.72
92.04
85.39
76.25
64.61
51.17
37.09
23.61
11.45
0.53
-9.89
-20.82
-32.93
-46.16
-59.77
-72.71
-84.18
-94.12
-103.29
-113.07
-125.15
-140.96
-161.19
-185.21
-210.64
-233.32
-248.02
-249.73
-235.27
-204.53
-160.66
-109.13
-56.09
-6.62
36.23
71.37
99.01
119.72
133.91
141.93
144.37
142.42
137.95
133.01
129.34
127.82
128.24
129.61
130.66
130.43
128.62
125.53
121.67
117.32
112.16
105.5
96.53
84.88
70.95
55.84
41.03
27.78
16.57
6.9
-2.47
-12.98
-25.66
-40.63
-57.03
-73.46
-88.51
-101.45
-112.48
-122.73
-133.86
-147.7
-165.62
-188.06
-213.89
-240.13
-262.14
-274.5
-272.43
-253.35
-217.81
-169.56
-114.41
-58.65
-7.4
36.33
71.57
98.79
118.89
132.6
140.44
143.01
141.43
137.52
133.4
130.85
130.72
132.61
135.25
137.13
137.24
135.37
132.01
127.87
123.46
118.79
113.37
106.53
97.75
86.99
74.74
61.93
49.67
38.74
29.33
20.92
12.48
2.92
-8.52
-21.84
-36.39
-51.12
-65.04
-77.58
-88.82
-99.44
-110.52
-123.37
-139.22
-158.77
-181.8
-206.54
-229.53
-245.97
-250.78
-240.16
-213.0
-171.44
-120.5
-66.55
-15.45
28.92
65.01
93.11
114.25
129.24
138.48
142.18
141.09
136.78
131.44
127.25
125.61
126.65
129.4
132.26
133.78
133.21
130.6
126.6
121.9
116.77
110.82
103.25
93.28
80.78
66.49
51.89
38.56
27.53
18.67
10.84
2.29
-8.45
-21.93
-37.51
-53.68
-68.78
-81.74
-92.54
-102.23
-112.53
-125.32
-142.06
-163.32
-188.37
-214.83
-238.64
-254.64
-257.69
-244.29
-213.93
-169.55
-116.8
-62.33
-11.83
31.31
66.16
93.5
114.48
129.87
139.79
144.23
143.72
139.66
134.16
129.39
126.87
126.95
128.9
131.26
132.61
132.08
129.52
125.39
120.32
114.66
108.32
100.86
91.83
81.12
69.08
56.44
44.06
32.61
22.32
13.0
4.08
-5.21
-15.63
-27.64
-41.3
-56.13
-71.27
-85.76
-98.9
-110.51
-121.09
-131.73
-143.93
-159.25
-178.79
-202.48
-228.5
-253.07
-270.91
-276.6
-266.12
-238.3
-195.31
-142.15
-85.18
-30.34
18.13
58.29
90.06
114.34
132.19
144.28
151.08
153.18
151.66
148.17
144.55
142.19
141.65
142.49
143.69
144.21
143.4
141.11
137.53
132.86
127.18
120.36
112.28
102.94
92.53
81.39
69.87
58.25
46.79
35.74
25.32
15.7
6.78
-1.83
-10.81
-20.9
-32.56
-45.74
-59.91
-74.21
-87.82
-100.29
-111.68
-122.56
-133.93
-147.11
-163.47
-183.92
-208.15
-233.95
-257.05
-271.75
-272.51
-255.84
-221.68
-173.66
-118.01
-61.63
-10.15
33.2
67.64
93.95
113.37
126.86
134.97
138.23
137.63
134.75
131.51
129.61
129.94
132.39
136.04
139.69
142.38
143.62
143.37
141.83
139.11
135.22
130.03
123.47
115.58
106.59
96.93
87.08
77.5
68.41
59.62
50.46
39.95
27.13
11.43
-7.03
-27.4
-48.32
-68.3
-86.17
-101.36
-113.97
-124.73
-134.82
-145.6
-158.42
-174.28
-193.28
-214.19
-234.09
-248.57
-252.69
-242.45
-216.27
-175.78
-125.45
-71.33
-19.17
26.92
64.96
94.64
116.43
130.91
138.52
139.94
136.44
130.07
123.22
118.11
116.08
117.26
120.67
124.65
127.53
128.2
126.4
122.59
117.53
111.83
105.56
98.26
89.32
78.28
65.31
51.16
36.99
23.87
12.41
2.44
-6.88
-16.71
-28.06
-41.34
-56.13
-71.43
-86.03
-99.08
-110.43
-120.67
-130.91
-142.54
-156.87
-174.85
-196.65
-221.16
-245.53
-265.29
-275.12
-270.39
-248.73
-211.04
-161.29
-105.45
-49.63
1.42
45.04
80.51
108.29
129.14
143.63
152.15
155.2
153.78
149.52
144.36
140.15
138.03
138.17
139.81
141.75
142.81
142.26
139.87
135.75
130.16
123.24
115.03
105.48
94.59
82.47
69.4
55.83
42.31
29.45
17.64
7.05
-2.61
-11.97
-21.83
-32.85
-45.3
-58.95
-73.17
-87.17
-100.34
-112.51
-124.03
-135.71
-148.69
-164.16
-183.12
-205.7
-230.66
-254.87
-273.6
-281.55
-274.33
-250.12
-210.36
-159.48
-103.54
-48.46
1.42
43.85
78.36
105.45
125.77
139.81
147.96
150.88
149.75
146.26
142.29
139.33
138.15
138.6
139.83
140.83
140.76
139.35
136.74
133.21
128.86
123.53
116.75
108.07
97.33
84.75
71.0
57.0
43.73
31.95
22.01
13.67
6.14
-1.72
-10.99
-22.33
-35.62
-50.05
-64.44
-77.75
-89.53
-100.1
-110.43
-121.85
-135.68
-152.92
-173.86
-197.69
-222.02
-242.97
-255.63
-255.32
-239.08
-206.87
-161.87
-109.64
-56.46
-7.57
33.94
67.17
92.62
111.19
123.49
129.87
130.97
128.14
123.5
119.46
117.86
119.37
123.3
128.1
132.07
134.11
133.97
132.16
129.37
125.99
121.79
115.98
107.6
96.13
81.87
66.04
50.34
36.3
24.64
14.97
6.0
-3.81
-15.52
-29.3
-44.35
-59.38
-73.22
-85.33
-96.02
-106.36
-117.82
-131.9
-149.75
-171.71
-196.82
-222.43
-244.25
-257.0
-255.88
-238.12
-204.11
-157.46
-103.96
-49.83
0.04
42.88
77.92
105.47
125.98
139.66
146.68
147.7
144.33
138.9
133.94
131.27
131.53
134.01
137.22
139.56
139.94
138.18
134.68
130.12
124.87
118.77
111.18
101.34
88.88
74.14
58.22
42.6
28.61
16.91
7.17
-1.71
-11.21
-22.47
-35.91
-50.98
-66.53
-81.22
-94.18
-105.28
-115.27
-125.51
-137.7
-153.5
-174.02
-199.2
-227.25
-254.34
-275.08
-283.72
-275.94
-250.29
-208.91
-156.83
-100.43
-45.54
3.87
45.99
80.69
108.44
129.68
144.54
153.18
156.27
155.18
151.89
148.42
146.21
145.68
146.32
147.03
146.76
145.0
141.81
137.68
133.12
128.29
122.89
116.32
107.88
97.2
84.37
70.03
55.26
41.21
28.74
18.06
8.68
-0.4
-10.36
-21.96
-35.34
-49.88
-64.6
-78.51
-91.08
-102.39
-113.17
-124.56
-137.9
-154.5
-175.12
-199.44
-225.51
-249.55
-266.44
-270.93
-259.27
-230.59
-187.33
-134.57
-78.61
-25.09
22.16
61.44
92.66
116.47
133.51
144.24
149.17
149.22
145.96
141.36
137.34
135.23
135.35
137.11
139.35
140.85
140.86
139.22
136.28
132.54
128.22
123.09
116.49
107.77
96.63
83.47
69.3
55.44
43.02
32.56
23.72
15.51
6.6
-4.1
-17.01
-31.69
-47.01
-61.63
-74.57
-85.72
-95.87
-106.49
-119.26
-135.5
-155.79
-179.41
-204.1
-226.0
-240.28
-242.15
-228.45
-198.76
-155.85
-104.95
-52.23
-3.04
39.19
73.1
98.82
117.07
128.52
133.79
133.69
129.66
123.72
118.15
114.8
114.57
117.12
121.12
124.9
127.04
126.86
124.53
120.72
116.07
110.87
104.82
97.26
87.54
75.4
61.25
46.07
31.19
17.77
6.41
-3.19
-12.02
-21.46
-32.63
-45.89
-60.68
-75.83
-90.06
-102.56
-113.38
-123.27
-133.57
-145.75
-161.13
-180.48
-203.44
-228.04
-250.49
-265.73
-268.58
-255.42
-225.48
-181.37
-128.23
-72.35
-19.31
27.18
65.71
96.47
120.46
138.46
150.8
157.64
159.36
157.08
152.6
147.9
144.54
143.07
143.13
143.73
143.85
142.79
140.35
136.62
131.77
125.86
118.81
110.48
100.72
89.58
77.28
64.28
51.15
38.43
26.47
15.34
4.85
-5.41
-15.89
-27.05
-39.15
-52.24
-66.03
-79.95
-93.33
-105.7
-117.05
-127.87
-139.17
-152.15
-167.94
-187.18
-209.43
-232.71
-253.38
-266.56
-267.35
-252.44
-221.34
-176.8
-124.11
-69.39
-17.95
26.89
63.94
93.45
116.22
132.81
143.53
148.55
148.5
144.7
139.05
133.57
129.84
128.46
129.0
130.35
131.21
130.68
128.49
124.86
120.19
114.7
108.3
100.7
91.67
81.18
69.52
57.22
44.86
32.99
21.98
12.01
2.99
-5.44
-13.82
-22.77
-32.76
-43.92
-55.95
-68.22
-79.97
-90.66
-100.17
-108.93
-117.91
-128.4
-141.75
-158.88
-179.65
-202.35
-223.55
-238.5
-242.25
-231.2
-204.36
-163.86
-114.42
-61.93
-11.74
32.51
69.23
98.25
120.06
135.0
143.28
145.22
141.83
134.97
127.08
120.53
116.82
116.21
117.82
120.11
121.6
121.35
119.18
115.45
110.66
105.05
98.51
90.6
80.89
69.25
56.09
42.3
29.02
17.19
7.19
-1.27
-9.16
-17.67
-27.78
-39.9
-53.66
-68.15
-82.24
-95.04
-106.16
-115.87
-124.98
-134.69
-146.45
-161.51
-180.49
-202.75
-225.85
-245.61
-256.87
-254.92
-237.03
-203.54
-157.8
-105.26
-51.8
-2.21
40.67
75.96
104.05
125.68
141.36
151.35
155.94
155.88
152.55
147.8
143.36
140.38
139.14
139.15
139.51
139.42
138.37
136.13
132.64
127.76
121.29
113.07
103.11
91.68
79.24
66.41
53.69
41.41
29.67
18.38
7.5
-2.97
-13.01
-22.64
-32.08
-41.85
-52.49
-64.38
-77.39
-90.9
-104.0
-115.9
-126.34
-135.78
-145.38
-156.66
-171.15
-189.72
-211.93
-235.57
-256.56
-269.8
-270.44
-255.55
-225.15
-182.35
-132.34
-80.75
-32.08
11.13
48.11
79.17
104.74
124.9
139.42
148.18
151.68
151.07
148.13
144.59
141.73
140.1
139.53
139.49
139.41
138.88
137.65
135.54
132.28
127.56
121.15
113.0
103.29
92.36
80.63
68.45
56.13
43.93
32.11
20.88
10.41
0.64
-8.68
-18.03
-27.98
-38.95
-51.07
-64.05
-77.26
-89.99
-101.69
-112.32
-122.38
-132.88
-145.11
-160.37
-179.32
-201.47
-224.53
-244.5
-256.27
-255.08
-238.12
-205.64
-161.07
-109.9
-57.99
-9.89
31.93
66.93
95.54
118.24
135.13
146.02
151.01
150.89
147.35
142.52
138.39
136.18
136.12
137.46
139.0
139.58
138.53
135.73
131.46
126.1
119.85
112.7
104.42
94.84
83.95
71.96
59.39
46.92
35.25
24.89
16.0
8.27
0.98
-6.72
-15.53
-25.68
-36.8
-48.15
-58.93
-68.68
-77.45
-85.8
-94.63
-105.07
-118.14
-134.54
-154.13
-175.42
-195.37
-209.69
-213.88
-204.57
-180.78
-144.46
-99.89
-52.43
-6.96
33.18
66.42
92.43
111.42
123.53
128.96
128.31
122.97
115.17
107.46
102.0
99.92
101.07
104.19
107.59
109.77
109.82
107.64
103.63
98.45
92.58
86.12
78.83
70.31
60.36
49.16
37.3
25.6
14.75
5.0
-3.87
-12.41
-21.3
-31.01
-41.75
-53.36
-65.41
-77.33
-88.54
-98.76
-108.06
-117.1
-126.95
-138.95
-154.36
-173.76
-196.52
-220.24
-240.86
-253.28
-252.83
-236.79
-205.55
-162.6
-113.4
-63.67
-17.78
22.09
55.57
83.2
105.47
122.44
133.88
139.86
141.07
138.93
135.21
131.58
129.13
128.24
128.61
129.55
130.31
130.23
128.97
126.38
122.41
117.03
110.2
101.97
92.47
82.0
70.93
59.74
48.88
38.7
29.45
21.13
13.41
5.71
-2.71
-12.43
-23.67
-36.12
-49.05
-61.67
-73.35
-83.91
-93.66
-103.35
-113.98
-126.66
-142.42
-161.74
-184.1
-207.42
-228.07
-241.33
-242.71
-229.43
-201.49
-161.91
-115.85
-69.03
-26.03
10.77
41.02
65.73
86.06
102.54
114.98
122.94
126.42
126.21
123.82
120.97
119.02
118.59
119.49
121.08
122.59
123.41
123.21
121.86
119.33
115.52
110.32
103.56
95.21
85.45
74.67
63.48
52.51
42.25
32.93
24.52
16.77
9.29
1.6
-6.74
-16.04
-26.38
-37.52
-48.98
-60.22
-70.85
-80.75
-90.28
-100.1
-111.22
-124.8
-141.77
-162.3
-185.14
-207.33
-224.44
-231.65
-225.19
-203.68
-168.81
-124.77
-77.06
-30.76
10.59
45.47
73.84
96.27
113.17
124.51
130.22
130.67
127.19
121.9
117.22
114.89
115.45
118.1
121.26
123.42
123.79
122.47
120.16
117.5
114.52
110.6
104.72
95.98
84.2
70.07
55.09
40.97
29.06
19.77
12.46
5.72
-1.97
-11.58
-23.14
-35.82
-48.4
-59.85
-69.81
-78.71
-87.58
-97.75
-110.51
-126.77
-146.69
-169.24
-191.87
-210.67
-220.99
-218.77
-201.85
-170.9
-129.39
-82.55
-35.82
6.61
42.59
71.73
94.63
111.88
123.65
129.8
130.57
127.02
121.17
115.44
111.81
111.16
112.95
115.67
117.54
117.35
114.81
110.51
105.34
100.0
94.56
88.45
80.8
70.97
58.95
45.46
31.78
19.22
8.61
0.02
-7.33
-14.64
-23.16
-33.56
-45.76
-58.94
-71.93
-83.69
-93.7
-102.28
-110.32
-119.15
-130.2
-144.65
-163.11
-185.07
-208.45
-229.47
-243.15
-244.6
-230.67
-201.23
-159.42
-110.75
-61.2
-15.47
24.08
57.2
84.76
107.6
125.89
139.2
147.1
149.85
148.64
145.36
141.96
139.83
139.38
140.09
140.96
140.99
139.71
137.29
134.27
131.15
127.98
124.26
119.16
111.96
102.5
91.3
79.53
68.48
59.22
52.06
46.54
41.5
35.62
27.91
18.18
7.14
-4.03
-14.12
-22.61
-29.84
-37.02
-45.84
-58.18
-75.94
-100.87
-134.06
-175.2
-221.95
-269.86
-313.45
-347.85
-370.45
-381.69
-384.37
-382.11
-377.62
-371.72
-363.48
-351.27
-333.91
-311.43
-285.12
-257.05
-229.38
-203.71
-180.86
-160.78
-142.92
-126.57
-111.12
-96.25
-81.83
-67.85
-54.29
-41.23
-28.87
-17.68
-8.29
-1.31
2.92
4.5
4.03
2.44
0.7
-0.46
-0.83
-0.74
-0.89
-1.97
-4.33
-7.83
-11.96
-16.13
-19.92
-23.24
-26.22
-29.07
-31.97
-35.02
-38.38
-42.45
-47.84
-55.09
-64.25
-74.46
-83.81
-89.75
-89.95
-83.19
-69.86
-51.82
-31.5
-10.91
9.11
28.98
49.69
72.01
95.86
120.39
144.41
167.16
188.65
209.69
231.45
255.1
281.62
311.59
345.03
380.98
417.0
449.27
473.24
485.04
482.75
467.18
441.43
409.63
375.49
341.4
308.46
277.13
247.89
221.36
198.01
177.54
158.78
140.03
119.9
97.94
74.83
52.12
31.44
13.74
-1.13
-14.37
-27.88
-43.59
-62.79
-85.5
-110.19
-133.78
-152.29
-161.84
-159.83
-145.87
-121.88
-91.49
-58.8
-27.24
1.19
25.85
46.89
64.49
78.45
88.24
93.47
94.39
92.06
88.18
84.5
82.24
81.71
82.34
83.1
83.07
81.82
79.5
76.54
73.3
69.75
65.45
59.78
52.31
43.13
32.87
22.54
13.14
5.29
-1.05
-6.51
-12.1
-18.81
-27.18
-37.13
-47.92
-58.52
-67.96
-75.79
-82.22
-88.07
-94.57
-103.01
-114.34
-128.89
-146.01
-163.83
-179.36
-188.99
-189.44
-178.76
-157.12
-126.81
-91.67
-55.8
-22.5
6.39
30.47
50.15
65.89
77.82
85.73
89.49
89.5
86.82
83.03
79.65
77.63
77.06
77.28
77.29
76.32
74.15
71.12
67.81
64.64
61.56
58.07
53.46
47.2
39.32
30.44
21.5
13.46
6.83
1.54
-3.02
-7.69
-13.27
-20.16
-28.3
-37.21
-46.15
-54.4
-61.56
-67.7
-73.4
-79.59
-87.33
-97.53
-110.54
-125.85
-141.84
-155.75
-164.15
-163.79
-152.7
-130.9
-100.65
-65.74
-30.31
2.31
30.25
53.0
70.81
84.01
92.64
96.64
96.24
92.34
86.47
80.44
75.68
72.88
71.82
71.67
71.5
70.69
69.13
66.97
64.34
61.06
56.56
50.25
41.87
31.77
20.96
10.71
2.01
-4.77
-10.08
-14.94
-20.46
-27.39
-35.83
-45.19
-54.55
-63.05
-70.24
-76.36
-82.25
-89.13
-98.24
-110.46
-125.87
-143.42
-160.74
-174.41
-180.76
-176.85
-161.55
-136.02
-103.39
-67.74
-32.87
-1.31
25.89
48.72
67.48
82.25
92.75
98.71
100.35
98.59
94.9
90.87
87.65
85.69
84.74
84.07
82.99
81.1
78.39
75.2
71.83
68.35
64.5
59.79
53.72
46.13
37.32
27.98
18.98
11.03
4.38
-1.28
-6.72
-12.85
-20.39
-29.54
-39.83
-50.36
-60.15
-68.61
-75.78
-82.39
-89.52
-98.34
-109.76
-124.15
-141.09
-159.13
-175.72
-187.41
-190.69
-182.98
-163.68
-134.5
-99.04
-61.67
-26.14
5.28
31.87
53.98
72.21
86.78
97.5
104.05
106.48
105.54
102.53
99.02
96.25
94.74
94.3
94.27
93.89
92.72
90.7
88.07
85.05
81.66
77.62
72.51
65.99
58.01
48.89
39.27
29.85
21.21
13.67
7.13
1.22
-4.62
-11.01
-18.37
-26.81
-36.09
-45.66
-54.83
-63.1
-70.32
-76.89
-83.62
-91.52
-101.59
-114.4
-129.81
-146.59
-162.38
-173.87
-177.59
-170.89
-152.93
-125.14
-90.81
-54.09
-18.76
12.69
39.19
60.71
77.49
89.69
97.25
100.3
99.48
96.07
91.74
88.08
86.12
86.03
87.23
88.75
89.71
89.65
88.67
87.14
85.32
83.04
79.65
74.38
66.75
56.99
46.05
35.26
25.7
17.82
11.21
4.9
-2.17
-10.64
-20.45
-30.93
-41.15
-50.31
-58.15
-65.06
-71.93
-79.93
-90.19
-103.39
-119.42
-137.11
-154.1
-167.09
-172.52
-167.62
-151.35
-124.89
-91.39
-55.01
-19.68
11.86
38.35
59.58
75.85
87.35
94.15
96.46
95.01
91.14
86.58
82.89
81.01
80.98
82.11
83.37
83.96
83.51
82.17
80.27
77.98
75.07
70.92
64.86
56.51
46.2
34.86
23.78
14.04
6.05
-0.61
-6.99
-14.28
-23.27
-33.97
-45.62
-57.06
-67.27
-75.78
-82.92
-89.72
-97.57
-107.83
-121.39
-138.29
-157.31
-175.9
-190.39
-196.86
-192.24
-175.38
-147.64
-112.52
-74.53
-37.82
-5.08
22.76
46.03
65.45
81.39
93.67
101.88
105.92
106.41
104.64
102.19
100.32
99.59
99.76
100.07
99.73
98.3
95.84
92.69
89.18
85.38
80.99
75.47
68.41
59.69
49.63
38.95
28.49
18.99
10.82
3.83
-2.59
-9.32
-17.12
-26.25
-36.37
-46.6
-55.92
-63.71
-70.01
-75.59
-81.67
-89.48
-100.0
-113.7
-130.37
-148.91
-167.21
-182.17
-190.24
-188.32
-174.88
-150.6
-118.34
-82.18
-46.17
-13.12
15.73
40.36
61.15
78.18
91.04
99.21
102.66
102.24
99.56
96.52
94.61
94.41
95.56
97.12
98.16
98.2
97.33
95.95
94.39
92.57
89.94
85.74
79.43
71.01
61.16
51.02
41.7
33.88
27.5
21.8
15.68
8.23
-0.82
-11.03
-21.4
-30.89
-38.92
-45.62
-51.76
-58.5
-67.06
-78.34
-92.73
-109.75
-127.81
-144.19
-155.39
-158.0
-149.77
-130.5
-102.2
-68.48
-33.41
-0.34
28.67
52.86
72.14
86.55
96.0
100.43
100.19
96.4
90.81
85.42
81.88
80.9
82.11
84.35
86.22
86.68
85.43
82.76
79.25
75.27
70.71
65.11
57.93
49.03
38.8
28.11
18.01
9.3
2.23
-3.64
-9.21
-15.49
-23.19
-32.43
-42.67
-52.99
-62.49
-70.75
-78.0
-85.07
-93.16
-103.43
-116.71
-133.11
-151.68
-170.25
-185.47
-193.59
-191.37
-177.32
-152.27
-119.17
-82.17
-45.24
-11.18
18.75
44.4
65.99
83.54
96.7
105.09
108.75
108.49
105.8
102.41
99.73
98.49
98.54
99.14
99.34
98.44
96.27
93.1
89.44
85.63
81.63
77.01
71.1
63.44
54.04
43.47
32.75
22.88
14.51
7.58
1.45
-4.84
-12.16
-20.88
-30.9
-41.55
-52.05
-61.7
-70.15
-77.55
-84.5
-91.92
-100.92
-112.49
-127.16
-144.58
-163.12
-179.82
-190.9
-192.7
-182.84
-161.17
-129.92
-92.99
-54.78
-18.88
12.63
39.16
60.95
78.38
91.55
100.33
104.7
105.21
102.99
99.59
96.49
94.63
94.2
94.68
95.25
95.18
94.16
92.31
89.98
87.42
84.57
80.97
76.02
69.35
61.0
51.58
42.02
33.23
25.78
19.65
14.22
8.63
2.07
-5.89
-15.05
-24.73
-34.1
-42.47
-49.66
-55.97
-62.12
-68.98
-77.35
-87.88
-100.95
-116.42
-133.21
-149.1
-160.77
-164.59
-157.76
-139.41
-111.11
-76.46
-39.83
-5.1
25.33
50.58
70.69
85.87
96.08
101.13
101.16
97.1
90.7
84.13
79.28
77.15
77.57
79.42
81.25
81.92
81.03
78.88
76.08
72.99
69.44
64.77
58.24
49.51
38.92
27.52
16.57
7.08
-0.62
-6.95
-12.86
-19.38
-27.19
-36.3
-46.12
-55.75
-64.37
-71.65
-77.92
-84.12
-91.48
-101.25
-114.26
-130.54
-148.94
-167.03
-181.28
-187.89
-183.78
-167.73
-140.85
-106.36
-68.62
-31.75
1.34
29.44
52.6
71.41
86.22
96.96
103.3
105.2
103.39
99.33
94.89
91.67
90.39
90.76
91.73
92.17
91.35
89.26
86.38
83.25
80.08
76.48
71.76
65.2
56.55
46.15
34.9
23.92
14.21
6.17
-0.51
-6.67
-13.43
-21.63
-31.46
-42.41
-53.51
-63.69
-72.3
-79.35
-85.51
-91.95
-100.0
-110.86
-125.18
-142.63
-161.62
-179.16
-191.35
-194.32
-185.44
-164.29
-132.94
-95.36
-56.21
-19.45
12.49
38.95
60.42
77.68
91.16
100.8
106.36
107.96
106.44
