0
2.97
3.45
3.9
4.22
4.42
4.49
4.41
4.11
3.52
2.61
1.41
0.01
-1.47
-2.93
-4.3
-5.57
-6.77
-8.0
-9.35
-10.9
-12.65
-14.49
-16.19
-17.47
-18.06
-17.73
-16.27
-13.56
-9.54
-4.37
1.57
7.65
13.12
17.29
19.76
20.48
19.7
17.87
15.47
12.93
10.55
8.54
6.99
5.89
5.16
4.69
4.37
4.11
3.87
3.6
3.27
2.83
2.28
1.63
0.91
0.15
-0.65
-1.54
-2.55
-3.74
-5.13
-6.72
-8.51
-10.46
-12.53
-14.57
-16.36
-17.59
-17.95
-17.23
-15.34
-12.39
-8.62
-4.33
0.12
4.4
8.22
11.33
13.54
14.74
14.91
14.1
12.47
10.28
7.83
5.49
3.59
2.34
1.82
1.88
2.26
2.68
2.91
2.89
2.65
2.28
1.89
1.54
1.24
0.94
0.58
0.1
-0.58
-1.52
-2.78
-4.38
-6.33
-8.59
-11.06
-13.51
-15.62
-16.95
-17.05
-15.61
-12.55
-8.15
-2.94
2.36
7.12
10.87
13.44
14.86
15.26
14.78
13.55
11.72
9.5
7.18
5.08
3.43
2.34
1.78
1.62
1.76
2.1
2.56
3.01
3.27
3.1
2.42
1.27
-0.09
-1.41
-2.51
-3.43
-4.38
-5.63
-7.36
-9.53
-11.89
-14.07
-15.7
-16.46
-16.14
-14.67
-12.06
-8.47
-4.22
0.3
4.63
8.41
11.38
13.43
14.56
14.8
14.21
12.9
11.01
8.79
6.55
4.65
3.33
2.72
2.76
3.24
3.93
4.63
5.2
5.55
5.62
5.34
4.67
3.66
2.44
1.19
0.07
-0.93
-1.9
-3.04
-4.5
-6.37
-8.61
-11.09
-13.55
-15.63
-16.9
-16.94
-15.48
-12.52
-8.4
-3.66
1.09
5.38
8.89
11.48
13.08
13.66
13.2
11.83
9.86
7.72
5.87
4.64
4.14
4.24
4.61
4.93
4.99
4.73
4.3
3.89
3.64
3.54
3.43
3.12
2.4
1.22
-0.37
-2.24
-4.23
-6.17
-7.94
-9.45
-10.7
-11.82
-13.0
-14.42
-16.1
-17.83
-19.19
-19.68
-18.94
-16.84
-13.52
-9.32
-4.68
-0.06
4.13
7.49
9.75
10.78
10.63
9.52
7.75
5.67
3.59
1.78
0.47
-0.19
-0.19
0.32
1.01
1.54
1.67
1.39
0.88
0.38
0.04
-0.16
-0.35
-0.67
-1.19
-1.8
-2.31
-2.58
-2.54
-2.24
-1.82
-1.39
-1.03
-0.83
-0.93
-1.5
-2.72
-4.64
-7.1
-9.71
-11.87
-12.99
-12.61
-10.62
-7.27
-3.1
1.25
5.21
8.36
10.47
11.48
11.46
10.52
8.89
6.84
4.69
2.73
1.16
0.1
-0.46
-0.51
-0.1
0.7
1.75
2.8
3.58
3.86
3.61
2.95
2.12
1.31
0.6
-0.1
-0.92
-1.93
-3.07
-4.2
-5.18
-5.95
-6.63
-7.36
-8.25
-9.29
-10.41
-11.56
-12.76
-14.08
-15.54
-16.95
-17.98
-18.13
-17.02
-14.52
-10.83
-6.42
-1.9
2.2
5.51
7.86
9.23
9.73
9.52
8.74
7.57
6.17
4.74
3.48
2.59
2.14
2.11
2.39
2.81
3.24
3.6
3.87
4.06
4.17
4.2
4.13
3.94
3.62
3.1
2.33
1.27
-0.06
-1.56
-3.09
-4.51
-5.72
-6.68
-7.4
-7.99
-8.57
-9.33
-10.45
-12.04
-14.01
-16.08
-17.77
-18.57
-18.08
-16.11
-12.76
-8.38
-3.51
1.3
5.51
8.8
10.99
12.11
12.32
11.85
10.9
9.68
8.34
7.01
5.8
4.83
4.19
3.93
4.03
4.39
4.85
5.22
5.39
5.3
4.99
4.54
4.02
3.5
2.96
2.35
1.61
0.63
-0.64
-2.19
-3.9
-5.59
-7.03
-8.11
-8.85
-9.41
-10.03
-10.91
-12.2
-13.89
-15.85
-17.82
-19.4
-20.1
-19.49
-17.3
-13.59
-8.68
-3.1
2.56
7.82
12.32
15.85
18.25
19.41
19.39
18.36
16.65
14.67
12.81
11.33
10.3
9.67
9.33
9.2
9.25
9.48
9.9
10.42
10.88
11.07
10.77
9.92
8.55
6.83
4.96
3.08
1.25
-0.54
-2.3
-4.01
-5.64
-7.13
-8.49
-9.78
-11.04
-12.32
-13.6
-14.84
-16.05
-17.3
-18.73
-20.4
-22.15
-23.62
-24.21
-23.38
-20.73
-16.26
-10.36
-3.69
2.99
9.06
14.07
17.86
20.39
21.71
21.93
21.18
19.65
17.6
15.31
13.04
10.99
9.3
8.04
7.24
6.91
7.01
7.47
8.16
8.94
9.66
10.17
10.32
9.97
9.09
7.75
6.2
4.71
3.48
2.51
1.59
0.42
-1.17
-3.16
-5.28
-7.14
-8.5
-9.29
-9.71
-10.04
-10.58
-11.52
-12.98
-15.02
-17.52
-20.18
-22.46
-23.62
-23.02
-20.29
-15.54
-9.36
-2.62
3.79
9.23
13.38
16.18
17.71
18.1
17.47
16.01
13.99
11.73
9.58
7.78
6.48
5.69
5.37
5.47
5.95
6.74
7.72
8.68
9.39
9.66
9.45
8.82
7.93
6.92
5.89
4.82
3.65
2.34
0.86
-0.72
-2.33
-3.85
-5.22
-6.38
-7.31
-8.05
-8.69
-9.36
-10.22
-11.41
-12.98
-14.85
-16.74
-18.21
-18.76
-17.94
-15.57
-11.75
-6.87
-1.49
3.82
8.58
12.45
15.21
16.76
17.1
16.36
14.8
12.77
10.63
8.66
7.05
5.81
4.97
4.5
4.43
4.77
5.47
6.42
7.41
8.24
8.72
8.75
8.33
7.53
6.47
5.3
4.14
3.07
2.1
1.15
0.12
-1.11
-2.55
-4.13
-5.69
-7.09
-8.24
-9.17
-10.03
-10.92
-11.93
-13.05
-14.22
-15.35
-16.35
-17.05
-17.21
-16.5
-14.6
-11.36
-6.93
-1.71
3.67
8.58
12.56
15.37
16.96
17.4
16.8
15.29
13.11
10.62
8.24
6.31
5.02
4.33
4.06
4.0
4.05
4.2
4.51
4.99
5.56
6.06
6.33
6.27
5.86
5.17
4.27
3.23
2.11
0.89
-0.45
-1.97
-3.71
-5.65
-7.66
-9.49
-10.87
-11.63
-11.79
-11.61
-11.54
-12.02
-13.28
-15.25
-17.55
-19.6
-20.84
-20.83
-19.43
-16.69
-12.85
-8.23
-3.22
1.77
6.31
10.0
12.52
13.78
13.85
12.97
11.46
9.62
7.69
5.87
4.32
3.11
2.34
1.98
1.99
2.31
2.85
3.56
4.39
5.22
5.91
6.31
6.27
5.74
4.79
3.54
2.16
0.74
-0.68
-2.13
-3.66
-5.25
-6.85
-8.37
-9.73
-10.93
-12.01
-13.03
-14.06
-15.13
-16.24
-17.41
-18.57
-19.63
-20.33
-20.32
-19.24
-16.87
-13.21
-8.55
-3.36
1.84
6.6
10.63
13.76
15.91
16.99
16.96
15.89
13.99
11.62
9.24
7.25
5.92
5.28
5.26
5.69
6.43
7.34
8.26
9.01
9.39
9.28
8.66
7.66
6.45
5.17
3.9
2.65
1.39
0.15
-1.03
-2.1
-3.07
-4.0
-4.99
-6.07
-7.24
-8.48
-9.76
-11.19
-12.87
-14.88
-17.1
-19.15
-20.5
-20.59
-19.02
-15.78
-11.19
-5.83
-0.33
4.76
9.08
12.4
14.63
15.69
15.59
14.41
12.4
9.93
7.4
5.2
3.58
2.68
2.5
2.97
3.92
5.11
6.29
7.2
7.68
7.69
7.33
6.72
5.98
5.17
4.31
3.38
2.39
1.33
0.2
-1.03
-2.41
-3.92
-5.48
-6.97
-8.23
-9.25
-10.13
-11.11
-12.4
-14.05
-15.84
-17.28
-17.78
-16.84
-14.26
-10.25
-5.26
0.07
5.15
9.57
13.04
15.43
16.63
16.63
15.51
13.5
11.01
8.48
6.38
4.98
4.37
4.48
5.08
5.92
6.77
7.47
7.93
8.13
8.11
7.91
7.57
7.07
6.35
5.31
3.88
2.08
-0.0
-2.22
-4.42
-6.51
-8.44
-10.25
-11.99
-13.71
-15.45
-17.2
-18.9
-20.36
-21.27
-21.27
-20.01
-17.33
-13.3
-8.23
-2.59
3.14
8.49
13.04
16.47
18.56
19.22
18.53
16.78
14.36
11.75
9.36
7.53
6.43
6.04
6.18
6.59
6.98
7.17
7.14
6.97
6.78
6.62
6.43
6.1
5.53
4.65
3.46
1.97
0.21
-1.75
-3.78
-5.68
-7.28
-8.48
-9.33
-10.01
-10.75
-11.8
-13.25
-15.03
-16.89
-18.46
-19.32
-19.08
-17.49
-14.47
-10.18
-4.95
0.73
6.33
11.3
15.21
17.78
18.91
18.72
17.44
15.42
13.0
10.54
8.36
6.71
5.75
5.48
5.77
6.37
7.04
7.57
7.83
7.77
7.44
6.91
6.27
5.63
5.04
4.48
3.85
3.0
1.82
0.29
-1.5
-3.35
-5.09
-6.59
-7.81
-8.79
-9.66
-10.57
-11.65
-12.99
-14.55
-16.18
-17.56
-18.28
-17.95
-16.27
-13.15
-8.76
-3.5
2.07
7.35
11.8
15.04
16.9
17.4
16.73
15.19
13.13
10.89
8.8
7.15
6.1
5.69
5.83
6.35
7.06
7.79
8.42
8.82
8.89
8.61
8.03
7.31
6.63
6.05
5.52
4.87
3.91
2.54
0.83
-1.03
-2.85
-4.48
-5.89
-7.08
-8.1
-8.99
-9.81
-10.63
-11.54
-12.61
-13.85
-15.17
-16.34
-17.02
-16.85
-15.56
-13.03
-9.36
-4.84
0.1
4.95
9.21
12.49
14.58
15.46
15.32
14.46
13.21
11.82
10.46
9.23
8.23
7.54
7.21
7.22
7.46
7.74
7.95
8.03
8.03
7.95
7.78
7.4
6.69
5.6
4.18
2.56
0.86
-0.82
-2.41
-3.86
-5.12
-6.14
-6.91
-7.48
-7.95
-8.45
-9.08
-9.9
-10.95
-12.21
-13.69
-15.29
-16.79
-17.88
-18.18
-17.38
-15.33
-12.11
-8.03
-3.54
0.82
4.56
7.41
9.28
10.27
10.53
10.18
9.24
7.72
5.72
3.55
1.6
0.27
-0.26
-0.05
0.67
1.59
2.53
3.41
4.24
4.98
5.55
5.8
5.64
5.06
4.16
3.06
1.86
0.62
-0.64
-1.88
-3.06
-4.18
-5.23
-6.25
-7.29
-8.39
-9.53
-10.65
-11.71
-12.64
-13.41
-13.94
-14.1
-13.68
-12.49
-10.44
-7.61
-4.25
-0.7
2.74
5.86
8.51
10.53
11.76
11.99
11.16
9.43
7.19
5.0
3.33
2.47
2.38
2.81
3.42
3.96
4.34
4.56
4.64
4.54
4.23
3.66
2.89
1.99
1.08
0.22
-0.59
-1.42
-2.31
-3.25
-4.21
-5.13
-6.04
-7.05
-8.33
-9.99
-12.03
-14.24
-16.32
-17.92
-18.77
-18.67
-17.56
-15.43
-12.33
-8.39
-3.89
0.79
5.23
9.04
11.98
13.95
14.92
14.95
14.16
12.75
11.06
9.46
8.3
7.73
7.7
7.96
8.21
8.28
8.17
7.97
7.82
7.72
7.58
7.22
6.5
5.41
4.05
2.58
1.14
-0.2
-1.46
-2.67
-3.87
-5.09
-6.35
-7.73
-9.29
-11.16
-13.36
-15.82
-18.34
-20.59
-22.16
-22.7
-22.0
-20.05
-16.98
-13.03
-8.43
-3.37
1.96
7.28
12.19
16.21
18.93
20.15
19.93
18.62
16.7
14.64
12.8
11.38
10.41
9.88
9.69
9.71
9.83
9.92
9.88
9.61
9.04
8.14
6.92
5.51
4.07
2.75
1.63
0.66
-0.3
-1.41
-2.73
-4.23
-5.76
-7.18
-8.41
-9.46
-10.39
-11.26
-12.16
-13.18
-14.39
-15.9
-17.7
-19.6
-21.23
-22.07
-21.64
-19.66
-16.11
-11.3
-5.73
0.0
5.35
9.85
13.16
15.12
15.69
15.08
13.63
11.83
10.16
8.97
8.39
8.33
8.57
8.9
9.19
9.43
9.65
9.89
10.11
10.26
10.26
10.11
9.81
9.39
8.83
8.11
7.15
5.96
4.6
3.21
1.94
0.87
-0.0
-0.78
-1.57
-2.47
-3.43
-4.39
-5.27
-6.06
-6.81
-7.58
-8.37
-9.13
-9.8
-10.4
-11.05
-11.89
-12.89
-13.76
-14.03
-13.26
-11.25
-8.19
-4.54
-0.8
2.65
5.65
8.14
10.01
11.06
11.11
10.18
8.56
6.75
5.25
4.36
4.06
4.18
4.46
4.76
5.06
5.39
5.76
6.07
6.24
6.2
5.98
5.68
5.41
5.23
5.05
4.73
4.14
3.2
1.97
0.61
-0.73
-1.93
-2.99
-3.99
-4.98
-5.98
-6.93
-7.71
-8.25
-8.58
-8.82
-9.12
-9.59
-10.32
-11.32
-12.62
-14.15
-15.76
-17.18
-18.01
-17.84
-16.4
-13.68
-9.93
-5.64
-1.34
2.53
5.68
8.0
9.46
10.11
10.02
9.32
8.2
6.93
5.74
4.83
4.26
4.0
3.96
4.06
4.3
4.69
5.21
5.75
6.14
6.18
5.78
4.98
4.0
3.05
2.3
1.74
1.25
0.69
-0.07
-1.04
-2.2
-3.46
-4.79
-6.12
-7.32
-8.22
-8.68
-8.67
-8.36
-8.08
-8.18
-8.88
-10.21
-11.91
-13.62
-14.9
-15.36
-14.77
-13.09
-10.4
-6.93
-2.99
1.06
4.83
7.96
10.17
11.33
11.47
10.79
9.59
8.12
6.58
5.09
3.76
2.72
2.08
1.92
2.17
2.66
3.19
3.61
3.88
4.03
4.08
3.99
3.66
3.01
2.04
0.87
-0.32
-1.38
-2.24
-2.92
-3.55
-4.26
-5.12
-6.14
-7.25
-8.36
-9.39
-10.28
-11.06
-11.82
-12.7
-13.85
-15.36
-17.21
-19.17
-20.88
-21.87
-21.78
-20.4
-17.77
-14.09
-9.68
-4.91
-0.16
4.22
7.88
10.56
12.14
12.69
12.41
11.56
10.4
9.11
7.84
6.72
5.9
5.49
5.56
6.07
6.88
7.82
8.73
9.51
10.06
10.34
10.26
9.77
8.82
7.49
5.95
4.41
3.07
1.99
1.13
0.36
-0.44
-1.35
-2.36
-3.43
-4.53
-5.59
-6.57
-7.44
-8.21
-9.0
-9.99
-11.38
-13.26
-15.49
-17.71
-19.38
-19.99
-19.2
-16.94
-13.39
-8.9
-3.88
1.25
6.09
10.27
13.47
15.48
16.24
15.9
14.74
13.15
11.48
10.0
8.89
8.24
8.09
8.36
8.96
9.7
10.41
10.97
11.33
11.53
11.66
11.77
11.86
11.84
11.5
10.68
9.31
7.46
5.38
3.33
1.5
-0.06
-1.5
-2.97
-4.6
-6.37
-8.14
-9.72
-10.99
-11.94
-12.67
-13.37
-14.26
-15.55
-17.32
-19.44
-21.54
-23.07
-23.47
-22.33
-19.59
-15.44
-10.32
-4.74
0.81
5.88
10.08
13.12
14.87
15.39
14.89
13.67
12.06
10.33
8.75
7.49
6.69
6.38
6.47
6.81
7.29
7.81
8.4
9.07
9.78
10.4
10.75
10.69
10.17
9.23
8.03
6.73
5.51
4.46
3.56
2.69
1.67
0.33
-1.37
-3.3
-5.21
-6.85
-8.1
-9.02
-9.79
-10.61
-11.64
-12.96
-14.55
-16.31
-18.03
-19.4
-19.94
-19.2
-16.88
-12.96
-7.79
-2.01
3.69
8.73
12.72
15.53
17.12
17.56
16.91
15.34
13.12
10.63
8.32
6.56
5.52
5.22
5.49
6.17
7.11
8.19
9.31
10.35
11.18
11.62
11.54
10.88
9.65
8.0
6.11
4.24
2.56
1.14
-0.09
-1.31
-2.7
-4.36
-6.22
-8.1
-9.79
-11.2
-12.46
-13.84
-15.6
-17.86
-20.39
-22.71
-24.15
-24.12
-22.28
-18.67
-13.61
-7.67
-1.42
4.63
10.05
14.5
17.73
19.54
19.87
18.85
16.79
14.12
11.33
8.83
6.9
5.65
5.03
4.96
5.28
5.86
6.57
7.29
7.91
8.35
8.54
8.46
8.1
7.47
6.61
5.52
4.23
2.71
0.97
-0.96
-3.02
-5.1
-7.07
-8.84
-10.36
-11.65
-12.81
-14.02
-15.46
-17.29
-19.49
-21.89
-24.09
-25.54
-25.73
-24.27
-21.04
-16.25
-10.27
-3.62
3.13
9.47
14.94
19.15
21.89
23.06
22.75
21.18
18.71
15.74
12.7
9.96
7.83
6.46
5.83
5.83
6.26
6.94
7.74
8.54
9.22
9.59
9.46
8.71
7.39
5.71
3.93
2.22
0.55
-1.23
-3.37
-5.94
-8.79
-11.63
-14.11
-16.03
-17.44
-18.57
-19.78
-21.4
-23.59
-26.39
-29.65
-33.04
-36.08
-38.18
-38.8
-37.58
-34.51
-29.95
-24.54
-19.03
-14.07
-10.13
-7.42
-5.9
-5.44
-5.85
-6.94
-8.49
-10.2
-11.65
-12.32
-11.75
-9.63
-5.93
-0.86
5.24
11.96
18.95
25.84
32.22
37.62
41.65
44.08
44.86
44.21
42.41
39.79
36.6
33.05
29.36
25.65
22.05
18.58
15.22
11.89
8.57
5.31
2.17
-0.74
-3.39
-5.85
-8.29
-10.87
-13.65
-16.44
-18.82
-20.22
-20.13
-18.27
-14.7
-9.71
-3.78
2.53
8.72
14.25
18.65
21.56
22.81
22.46
20.78
18.17
15.05
11.82
8.8
6.25
4.37
3.24
2.88
3.17
3.91
4.85
5.72
6.28
6.39
6.0
5.2
4.16
3.09
2.16
1.43
0.86
0.3
-0.42
-1.47
-2.95
-4.79
-6.8
-8.72
-10.31
-11.46
-12.22
-12.84
-13.62
-14.84
-16.58
-18.69
-20.79
-22.34
-22.79
-21.69
-18.83
-14.29
-8.47
-2.02
4.37
10.06
14.62
17.84
19.68
20.21
19.55
17.85
15.4
12.6
9.97
7.98
6.91
6.71
7.11
7.74
8.31
8.69
8.96
9.19
9.39
9.45
9.19
8.48
7.31
5.79
4.08
2.26
0.33
-1.72
-3.87
-6.02
-7.99
-9.69
-11.21
-12.78
-14.63
-16.82
-19.07
-20.81
-21.39
-20.32
-17.45
-12.98
-7.39
-1.22
5.0
10.81
15.84
19.71
22.15
22.96
22.15
19.9
16.62
12.81
9.04
5.82
3.46
2.07
1.55
1.68
2.21
2.91
3.57
4.08
4.33
4.29
3.92
3.24
2.25
0.94
-0.64
-2.43
-4.29
-6.11
-7.8
-9.37
-10.89
-12.46
-14.2
-16.18
-18.41
-20.88
-23.43
-25.74
-27.29
-27.47
-25.75
-21.87
-16.0
-8.67
-0.69
7.06
13.85
19.18
22.79
24.58
24.62
23.12
20.4
16.93
13.24
9.86
7.18
5.44
4.63
4.59
5.07
5.79
6.52
7.1
7.46
7.58
7.46
7.08
6.4
5.35
3.91
2.11
0.1
-1.95
-3.88
-5.61
-7.12
-8.46
-9.73
-11.06
-12.6
-14.5
-16.84
-19.49
-22.08
-24.02
-24.65
-23.46
-20.24
-15.19
-8.79
-1.73
5.31
11.73
17.04
20.91
23.15
23.74
22.85
20.8
18.03
14.97
12.05
9.6
7.92
7.15
7.31
8.24
9.68
11.27
12.66
13.59
13.92
13.65
12.85
11.63
10.11
8.32
6.28
4.01
1.55
-1.01
-3.55
-5.92
-7.99
-9.67
-11.01
-12.14
-13.3
-14.7
-16.52
-18.77
-21.27
-23.64
-25.42
-26.16
-25.5
-23.21
-19.21
-13.65
-6.86
0.59
7.94
14.37
19.19
21.98
22.66
21.45
18.82
15.34
11.62
8.21
5.54
3.87
3.26
3.53
4.43
5.64
6.91
8.05
8.96
9.58
9.83
9.67
9.03
7.9
6.32
4.41
2.36
0.35
-1.52
-3.27
-4.99
-6.76
-8.58
-10.33
-11.85
-13.09
-14.13
-15.19
-16.51
-18.16
-19.99
-21.66
-22.72
-22.79
-21.58
-18.97
-14.99
-9.8
-3.78
2.51
8.33
12.98
15.99
17.18
16.75
15.09
12.69
9.95
7.25
4.93
3.25
2.45
2.6
3.56
4.99
6.47
7.64
8.3
8.45
8.22
7.73
7.07
6.2
5.08
3.7
2.15
0.57
-0.94
-2.36
-3.72
-5.08
-6.46
-7.81
-9.07
-10.24
-11.37
-12.59
-13.94
-15.31
-16.4
-16.8
-16.16
-14.27
-11.15
-7.0
-2.16
2.97
7.94
12.35
15.88
18.28
19.41
19.26
17.92
15.61
12.7
9.62
6.87
4.84
3.75
3.56
4.03
4.79
5.51
5.96
6.09
5.95
5.62
5.15
4.52
3.65
2.45
0.92
-0.86
-2.7
-4.48
-6.1
-7.54
-8.84
-10.06
-11.21
-12.36
-13.59
-15.07
-16.89
-19.01
-21.2
-23.03
-24.01
-23.71
-21.92
-18.62
-14.01
-8.41
-2.28
3.86
9.45
13.96
17.02
18.48
18.43
17.18
15.15
12.75
10.35
8.19
6.42
5.12
4.37
4.17
4.5
5.22
6.07
6.83
7.26
7.28
6.92
6.27
5.45
4.51
3.44
2.15
0.58
-1.32
-3.52
-5.9
-8.25
-10.39
-12.12
-13.34
-14.08
-14.5
-14.81
-15.3
-16.16
-17.51
-19.33
-21.41
-23.37
-24.73
-24.96
-23.65
-20.58
-15.9
-10.07
-3.73
2.37
7.63
11.64
14.25
15.54
15.7
15.0
13.69
12.01
10.22
8.58
7.34
6.71
6.74
7.3
8.15
8.99
9.64
10.04
10.21
10.19
9.93
9.32
8.28
6.84
5.19
3.58
2.2
1.05
0.02
-1.07
-2.28
-3.59
-4.86
-6.01
-7.03
-8.0
-9.02
-10.15
-11.4
-12.79
-14.36
-16.17
-18.22
-20.35
-22.18
-23.23
-22.99
-21.15
-17.7
-12.92
-7.31
-1.42
4.26
9.35
13.52
16.53
18.22
18.58
17.74
15.98
13.69
11.25
9.07
7.46
6.65
6.71
7.53
8.81
10.19
11.36
12.09
12.38
12.29
11.87
11.14
10.05
8.55
6.71
4.72
2.81
1.19
-0.08
-1.12
-2.16
-3.45
-5.11
-7.08
-9.13
-10.98
-12.38
-13.29
-13.86
-14.34
-15.04
-16.19
-17.89
-20.13
-22.73
-25.37
-27.58
-28.85
-28.67
-26.71
-22.91
-17.58
-11.3
-4.77
1.34
6.52
10.52
13.25
14.78
15.25
14.89
13.97
12.8
11.7
10.9
10.51
10.51
10.82
11.32
11.9
12.46
12.88
13.06
12.89
12.29
11.3
9.95
8.34
6.56
4.71
2.86
1.1
-0.54
-2.04
-3.44
-4.77
-6.07
-7.3
-8.41
-9.34
-10.1
-10.72
-11.34
-12.08
-13.1
-14.46
-16.07
-17.72
-18.99
-19.43
-18.62
-16.3
-12.5
-7.51
-1.8
4.08
9.64
14.46
18.27
20.87
22.21
22.31
21.32
19.49
17.14
14.67
12.4
10.64
9.52
9.04
9.02
9.26
9.51
9.65
9.64
9.53
9.33
9.03
8.53
7.71
6.5
4.91
3.0
0.89
-1.34
-3.6
-5.8
-7.84
-9.61
-11.04
-12.19
-13.23
-14.42
-16.06
-18.31
-21.12
-24.17
-26.94
-28.79
-29.17
-27.78
-24.59
-19.87
-14.06
-7.65
-1.15
5.0
10.41
14.74
17.73
19.29
19.5
18.61
16.99
14.99
12.93
11.04
9.45
8.27
7.6
7.5
7.94
8.83
9.95
10.98
11.63
11.65
10.93
9.55
7.71
5.71
3.82
2.19
0.84
-0.34
-1.51
-2.8
-4.22
-5.73
-7.23
-8.63
-9.95
-11.22
-12.54
-14.04
-15.84
-18.03
-20.57
-23.22
-25.58
-27.08
-27.11
-25.25
-21.35
-15.69
-8.86
-1.64
5.2
11.03
15.51
18.53
20.14
20.48
19.68
17.98
15.71
13.27
11.12
9.61
8.89
8.89
9.39
10.19
11.12
12.08
12.96
13.6
13.78
13.35
12.28
10.72
8.92
7.06
5.21
3.32
1.31
-0.85
-3.08
-5.24
-7.22
-8.97
-10.52
-11.91
-13.14
-14.18
-15.04
-15.79
-16.69
-18.0
-19.86
-22.15
-24.41
-25.98
-26.18
-24.53
-20.95
-15.69
-9.29
-2.38
4.47
10.74
16.03
20.02
22.48
23.35
22.75
21.02
18.62
16.03
13.65
11.74
10.44
9.82
9.87
10.52
11.65
13.0
14.28
15.22
15.62
15.37
14.44
12.91
10.91
8.63
6.3
4.14
2.29
0.77
-0.58
-1.95
-3.5
-5.27
-7.11
-8.84
-10.31
-11.5
-12.53
-13.63
-15.0
-16.77
-18.93
-21.31
-23.62
-25.42
-26.19
-25.47
-22.99
-18.77
-13.19
-6.87
-0.48
5.42
10.48
14.52
17.47
19.23
19.77
19.08
17.36
14.97
12.37
10.03
8.28
7.28
6.99
7.28
7.97
8.89
9.87
10.73
11.24
11.2
10.48
9.08
7.16
4.98
2.78
0.74
-1.14
-2.94
-4.8
-6.75
-8.76
-10.66
-12.28
-13.48
-14.25
-14.71
-15.12
-15.81
-17.03
-18.88
-21.17
-23.43
-25.01
-25.26
-23.77
-20.45
-15.59
-9.72
-3.45
2.63
8.03
12.42
15.54
17.28
17.61
16.62
14.58
11.86
8.93
6.24
4.14
2.82
2.27
2.38
2.98
3.87
4.91
5.92
6.71
7.11
7.03
6.45
5.51
4.36
3.1
1.77
0.34
-1.21
-2.86
-4.49
-5.98
-7.25
-8.26
-9.06
-9.74
-10.41
-11.21
-12.26
-13.63
-15.14
-16.46
-17.04
-16.33
-13.98
-10.03
-4.88
0.83
6.43
11.45
15.61
18.79
20.93
21.9
21.59
20.03
17.46
14.37
11.34
8.88
7.24
6.4
6.17
6.28
6.55
6.87
7.17
7.42
7.51
7.4
7.07
6.53
5.79
4.79
3.44
1.67
-0.47
-2.77
-4.93
-6.72
-8.1
-9.23
-10.47
-12.12
-14.3
-16.92
-19.64
-22.05
-23.73
-24.32
-23.5
-21.08
-16.99
-11.42
-4.86
2.04
8.55
14.09
18.29
21.03
22.35
22.31
21.04
18.72
15.68
12.35
9.25
6.83
5.29
4.6
4.52
4.78
5.18
5.63
6.09
6.49
6.69
6.49
5.77
4.54
2.98
1.28
-0.42
-2.07
-3.76
-5.56
-7.46
-9.39
-11.23
-12.94
-14.56
-16.27
-18.21
-20.44
-22.8
-24.93
-26.34
-26.52
-25.11
-21.97
-17.25
-11.3
-4.64
2.14
8.48
13.86
17.89
20.35
21.2
20.59
18.82
16.23
13.24
10.25
7.64
5.72
4.66
4.43
4.81
5.51
6.26
6.93
7.51
8.03
8.47
8.72
8.6
7.99
6.9
5.45
3.82
2.13
0.44
-1.29
-3.04
-4.78
-6.41
-7.86
-9.15
-10.35
-11.63
-13.12
-14.89
-16.88
-18.93
-20.73
-21.88
-21.93
-20.48
-17.32
-12.55
-6.6
-0.12
6.15
11.61
15.87
18.79
20.37
20.62
19.58
17.42
14.46
11.27
8.46
6.56
5.72
5.82
6.49
7.39
8.28
9.09
9.81
10.34
10.51
10.17
9.31
8.03
6.59
5.2
3.93
2.67
1.25
-0.48
-2.5
-4.62
-6.59
-8.19
-9.34
-10.1
-10.65
-11.17
-11.84
-12.81
-14.17
-15.97
-18.09
-20.24
-21.94
-22.62
-21.81
-19.27
-15.12
-9.74
-3.68
2.46
8.14
12.93
16.53
18.76
19.59
19.13
17.6
15.31
12.62
9.93
7.59
5.92
5.08
5.07
5.75
6.84
8.06
9.19
10.07
10.62
10.77
10.46
9.67
8.44
6.93
5.33
3.78
2.36
1.01
-0.41
-1.98
-3.75
-5.62
-7.45
-9.06
-10.35
-11.32
-12.13
-12.98
-14.09
-15.59
-17.44
-19.39
-21.06
-21.98
-21.73
-20.0
-16.73
-12.07
-6.39
-0.23
5.88
11.45
16.08
19.53
21.6
22.22
21.43
19.42
16.61
13.5
10.6
8.28
6.68
5.75
5.33
5.29
5.54
6.04
6.71
7.42
7.94
8.08
7.71
6.83
5.56
4.08
2.51
0.95
-0.61
-2.17
-3.71
-5.18
-6.5
-7.63
-8.63
-9.6
-10.68
-11.91
-13.28
-14.75
-16.23
-17.72
-19.15
-20.4
-21.19
-21.12
-19.81
-17.08
-13.05
-8.12
-2.85
2.25
6.82
10.59
13.38
14.97
15.21
14.1
11.87
9.0
6.09
3.65
2.02
1.23
1.18
1.65
2.46
3.42
4.35
5.07
5.42
5.37
5.0
4.41
3.71
2.91
1.94
0.73
-0.72
-2.3
-3.84
-5.25
-6.54
-7.82
-9.23
-10.82
-12.51
-14.15
-15.6
-16.86
-17.96
-18.95
-19.72
-19.97
-19.25
-17.14
-13.46
-8.42
-2.55
3.44
8.93
13.49
16.97
19.33
20.57
20.64
19.53
17.37
14.49
11.45
8.81
7.0
6.14
6.05
6.39
6.84
7.21
7.45
7.62
7.77
7.85
7.71
7.25
6.36
5.08
3.5
1.71
-0.22
-2.22
-4.19
-6.03
-7.62
-8.99
-10.29
-11.73
-13.53
-15.79
-18.45
-21.28
-23.96
-26.08
-27.2
-26.91
-24.88
-21.02
-15.53
-8.92
-1.84
4.97
10.9
15.5
18.5
19.84
19.59
17.93
15.21
11.84
8.3
5.13
2.74
1.4
1.07
1.5
2.27
3.01
3.55
3.93
4.3
4.7
5.01
4.97
4.38
3.19
1.56
-0.25
-2.08
-3.88
-5.71
-7.62
-9.52
-11.23
-12.61
-13.6
-14.36
-15.16
-16.3
-17.96
-20.12
-22.54
-24.73
-26.09
-25.96
-23.89
-19.77
-13.9
-6.92
0.35
7.18
13.04
17.65
20.89
22.76
23.24
22.43
20.56
18.03
15.35
13.0
11.3
10.27
9.78
9.6
9.59
9.72
10.04
10.51
10.97
11.14
10.76
9.75
8.27
6.64
5.14
3.89
2.77
1.52
-0.06
-1.98
-4.06
-6.02
-7.7
-9.05
-10.19
-11.27
-12.4
-13.62
-15.01
-16.66
-18.6
-20.68
-22.52
-23.48
-22.9
-20.38
-15.95
-10.04
-3.34
3.48
9.87
15.44
19.86
22.82
24.09
23.63
21.77
19.07
16.2
13.71
11.82
10.49
9.51
8.78
8.3
8.2
8.54
9.23
10.02
10.56
10.58
9.98
8.88
7.44
5.82
4.13
2.38
0.59
-1.19
-2.89
-4.43
-5.78
-6.99
-8.14
-9.31
-10.52
-11.78
-13.06
-14.39
-15.86
-17.57
-19.55
-21.65
-23.5
-24.58
-24.37
-22.5
-18.89
-13.8
-7.73
-1.33
4.74
9.92
13.83
16.31
17.38
17.21
16.02
14.1
11.73
9.21
6.84
4.95
3.74
3.35
3.76
4.78
6.15
7.55
8.72
9.48
9.76
9.57
8.99
8.04
6.75
5.11
3.15
0.97
-1.23
-3.25
-4.91
-6.14
-7.02
-7.67
-8.3
-9.04
-10.0
-11.23
-12.74
-14.45
-16.19
-17.71
-18.67
-18.73
-17.6
-15.08
-11.2
-6.18
-0.42
5.56
11.22
16.11
19.89
22.36
23.45
23.19
21.76
19.43
16.58
13.61
10.93
8.85
7.57
7.11
7.38
8.14
9.06
9.82
10.18
10.06
9.56
8.79
7.83
6.65
5.11
3.11
0.71
-1.88
-4.36
-6.51
-8.24
-9.64
-10.9
-12.19
-13.62
-15.3
-17.29
-19.59
-22.1
-24.47
-26.14
-26.46
-24.92
-21.33
-15.91
-9.26
-2.11
4.84
11.02
16.06
19.75
21.98
22.73
22.13
20.39
17.88
14.96
11.98
9.21
6.85
5.05
3.9
3.44
3.65
4.36
5.32
6.26
6.95
7.25
7.11
6.55
5.62
4.37
2.9
1.32
-0.26
-1.81
-3.34
-4.92
-6.55
-8.16
-9.66
-11.01
-12.32
-13.82
-15.81
-18.42
-21.44
-24.35
-26.38
-26.77
-25.03
-21.1
-15.34
-8.42
-1.11
5.9
12.08
17.02
20.45
22.22
22.33
20.95
18.47
15.34
12.04
8.97
6.4
4.52
3.48
3.34
4.05
5.44
7.17
8.84
10.15
10.92
11.13
10.85
10.1
8.9
7.28
5.34
3.27
1.28
-0.47
-2.01
-3.45
-4.95
-6.54
-8.13
-9.57
-10.74
-11.74
-12.81
-14.27
-16.28
-18.79
-21.49
-23.86
-25.32
-25.35
-23.59
-19.89
-14.39
-7.53
0.0
7.41
13.92
18.97
22.25
23.76
23.67
22.28
19.93
17.0
13.93
11.18
9.11
7.91
7.53
7.77
8.36
9.12
9.93
10.76
11.53
12.03
12.04
11.39
10.07
8.27
6.27
4.33
2.57
0.95
-0.64
-2.31
-4.07
-5.84
-7.51
-9.0
-10.29
-11.43
-12.52
-13.65
-14.95
-16.56
-18.58
-20.95
-23.35
-25.19
-25.75
-24.38
-20.83
-15.3
-8.46
-1.18
5.71
11.6
16.19
19.36
21.07
21.37
20.3
18.08
15.05
11.73
8.62
6.18
4.62
3.95
4.01
4.55
5.35
6.21
7.04
7.73
8.22
8.38
8.07
7.2
5.71
3.73
1.49
-0.7
-2.54
-3.91
-4.87
-5.62
-6.36
-7.22
-8.19
-9.15
-10.03
-10.81
-11.65
-12.77
-14.39
-16.59
-19.23
-21.98
-24.3
-25.65
-25.56
-23.73
-20.16
-15.13
-9.16
-2.93
2.9
7.75
11.24
13.27
13.96
13.57
12.42
10.79
8.94
7.09
5.46
4.25
3.61
3.62
4.2
5.14
6.18
7.09
7.72
8.02
7.98
7.63
7.0
6.11
5.01
3.77
2.44
1.03
-0.47
-2.05
-3.68
-5.24
-6.61
-7.68
-8.5
-9.24
-10.1
-11.23
-12.65
-14.25
-15.85
-17.25
-18.24
-18.58
-17.93
-15.95
-12.4
-7.37
-1.31
5.01
10.74
15.24
18.24
19.8
20.19
19.61
18.22
16.09
13.38
10.4
7.62
5.44
4.09
3.52
3.49
3.69
3.92
4.14
4.37
4.64
4.87
4.9
4.55
3.73
2.46
0.87
-0.88
-2.63
-4.28
-5.8
-7.14
-8.28
-9.24
-10.08
-10.95
-12.0
-13.41
-15.3
-17.69
-20.45
-23.24
-25.61
-27.0
-26.95
-25.19
-21.68
-16.65
-10.57
-3.95
2.63
8.65
13.68
17.36
19.49
20.0
19.04
16.94
14.16
11.23
8.59
6.58
5.38
4.99
5.32
6.22
7.46
8.75
9.82
10.41
10.42
9.91
9.04
7.99
6.87
5.63
4.2
2.47
0.46
-1.72
-3.9
-5.93
-7.76
-9.38
-10.85
-12.25
-13.61
-15.01
-16.55
-18.36
-20.51
-22.91
-25.31
-27.2
-28.03
-27.28
-24.67
-20.23
-14.28
-7.36
-0.16
6.65
12.49
16.96
19.86
21.17
21.07
19.86
17.88
15.5
13.03
10.73
8.83
7.52
6.92
7.09
7.98
9.4
11.06
12.6
13.72
14.23
14.06
13.28
11.99
10.33
8.43
6.4
4.35
2.3
0.23
-1.89
-4.05
-6.19
-8.15
-9.77
-11.02
-12.06
-13.18
-14.73
-16.93
-19.74
-22.84
-25.72
-27.79
-28.54
-27.59
-24.79
-20.18
