0
-9.23
-0.42
7.68
14.9
21.11
26.22
30.15
32.89
34.51
35.11
34.83
33.8
32.2
30.3
28.39
26.79
25.68
25.08
24.81
24.63
24.26
23.6
22.69
21.66
20.66
19.74
18.78
17.55
15.79
13.38
10.42
7.2
4.15
1.64
-0.18
-1.39
-2.27
-3.19
-4.42
-6.06
-8.06
-10.3
-12.65
-15.06
-17.47
-19.8
-21.94
-23.82
-25.49
-27.16
-29.11
-31.53
-34.23
-36.65
-37.89
-37.11
-33.82
-28.17
-20.92
-13.18
-6.02
-0.13
4.33
7.65
10.29
12.55
14.44
15.71
16.06
15.42
14.09
12.61
11.57
11.31
11.81
12.78
13.85
14.77
15.49
16.13
16.8
17.55
18.22
18.56
18.26
17.11
15.09
12.41
9.49
6.74
4.45
2.62
1.01
-0.74
-2.93
-5.63
-8.74
-12.01
-15.21
-18.21
-20.95
-23.48
-25.86
-28.21
-30.64
-33.26
-36.14
-39.13
-41.82
-43.57
-43.66
-41.57
-37.2
-31.02
-23.84
-16.62
-10.06
-4.48
0.22
4.31
8.04
11.44
14.34
16.48
17.69
17.99
17.61
16.9
16.22
15.83
15.84
16.18
16.71
17.25
17.71
18.02
18.18
18.2
17.97
17.4
16.37
14.85
12.92
10.8
8.72
6.83
5.14
3.47
1.59
-0.71
-3.46
-6.48
-9.48
-12.18
-14.44
-16.36
-18.24
-20.37
-22.97
-25.98
-29.26
-32.6
-35.92
-39.21
-42.3
-44.84
-46.17
-45.62
-42.7
-37.46
-30.49
-22.68
-14.91
-7.77
-1.45
4.16
9.21
13.69
17.45
20.26
21.99
22.74
22.8
22.6
22.44
22.46
22.6
22.71
22.69
22.57
22.46
22.47
22.59
22.73
22.65
22.18
21.23
19.81
18.0
15.84
13.37
10.58
7.55
4.49
1.67
-0.73
-2.69
-4.4
-6.23
-8.45
-11.15
-14.21
-17.35
-20.33
-23.07
-25.58
-27.97
-30.31
-32.69
-35.19
-37.91
-40.85
-43.78
-46.14
-47.22
-46.34
-43.12
-37.66
-30.44
-22.23
-13.81
-5.84
1.27
7.32
12.33
16.37
19.53
21.86
23.39
24.17
24.37
24.27
24.21
24.46
25.13
26.13
27.32
28.53
29.7
30.81
31.82
32.63
33.02
32.76
31.66
29.69
27.01
23.88
20.65
17.57
14.82
12.44
10.4
8.6
6.9
5.14
3.15
0.79
-1.89
-4.76
-7.62
-10.29
-12.73
-15.05
-17.45
-20.08
-23.0
-26.15
-29.37
-32.38
-34.8
-36.12
-35.82
-33.59
-29.44
-23.81
-17.36
-10.8
-4.6
1.06
6.19
10.82
14.82
17.92
19.81
20.36
19.74
18.41
16.93
15.81
15.34
15.5
16.1
16.82
17.41
17.74
17.79
17.66
17.45
17.18
16.8
16.16
15.12
13.54
11.4
8.88
6.24
3.77
1.64
-0.23
-2.08
-4.2
-6.75
-9.69
-12.75
-15.57
-17.93
-19.86
-21.54
-23.27
-25.28
-27.64
-30.3
-33.2
-36.21
-39.07
-41.35
-42.4
-41.63
-38.69
-33.67
-27.12
-19.81
-12.44
-5.45
0.99
6.95
12.47
17.52
21.92
25.39
27.65
28.58
28.25
27.05
25.53
24.25
23.57
23.54
23.92
24.33
24.48
24.29
23.86
23.37
22.9
22.35
21.5
20.12
18.08
15.45
12.45
9.43
6.73
4.51
2.74
1.21
-0.41
-2.4
-4.9
-7.85
-11.0
-14.1
-16.92
-19.42
-21.69
-23.89
-26.13
-28.44
-30.8
-33.23
-35.83
-38.67
-41.58
-44.11
-45.52
-44.99
-42.01
-36.59
-29.3
-21.06
-12.78
-5.11
1.71
7.73
13.11
17.9
21.98
25.15
27.27
28.35
28.61
28.37
27.97
27.65
27.49
27.46
27.48
27.47
27.4
27.26
27.09
26.84
26.45
25.73
24.52
22.73
20.37
17.63
14.75
11.96
9.42
7.16
5.14
3.26
1.38
-0.7
-3.17
-6.15
-9.57
-13.13
-16.42
-19.12
-21.12
-22.6
-23.89
-25.34
-27.08
-29.12
-31.4
-33.9
-36.58
-39.25
-41.44
-42.39
-41.34
-37.8
-31.85
-24.14
-15.66
-7.47
-0.31
5.5
10.06
13.71
16.84
19.68
22.26
24.45
25.98
26.64
26.45
25.62
24.62
23.89
23.73
24.22
25.16
26.28
27.28
28.01
28.4
28.5
28.35
27.92
27.15
25.95
24.26
22.16
19.85
17.63
15.72
14.26
13.14
12.09
10.78
9.06
6.9
4.51
2.12
-0.15
-2.33
-4.56
-6.94
-9.48
-12.07
-14.63
-17.2
-20.0
-23.26
-27.03
-30.95
-34.28
-36.16
-35.94
-33.43
-28.99
-23.3
-17.1
-10.95
-5.17
0.12
4.88
9.11
12.71
15.56
17.53
18.52
18.58
17.95
17.04
16.35
16.21
16.68
17.51
18.29
18.68
18.6
18.27
17.99
17.98
18.15
18.2
17.77
16.66
14.88
12.71
10.44
8.3
6.33
4.45
2.55
0.63
-1.22
-2.9
-4.36
-5.7
-7.1
-8.71
-10.64
-12.86
-15.26
-17.71
-20.15
-22.57
-25.03
-27.63
-30.45
-33.55
-36.87
-40.17
-43.02
-44.83
-44.99
-43.1
-39.11
-33.38
-26.58
-19.51
-12.91
-7.21
-2.55
1.26
4.53
7.59
10.6
13.51
16.11
18.19
19.63
20.49
20.97
21.28
21.55
21.81
22.01
22.18
22.39
22.74
23.3
23.97
24.53
24.73
24.39
23.42
21.89
19.9
17.6
15.13
12.61
10.13
7.74
5.44
3.18
0.95
-1.3
-3.57
-5.88
-8.24
-10.7
-13.28
-15.92
-18.52
-20.93
-23.12
-25.15
-27.23
-29.62
-32.52
-35.93
-39.52
-42.7
-44.71
-44.87
-42.83
-38.69
-33.01
-26.57
-20.16
-14.26
-9.05
-4.4
-0.14
3.89
7.62
10.83
13.28
14.8
15.42
15.36
14.96
14.52
14.2
13.98
13.78
13.54
13.36
13.45
13.97
14.91
16.06
17.05
17.58
17.5
16.91
16.02
15.05
14.1
13.1
11.95
10.47
8.63
6.53
4.39
2.46
0.88
-0.36
-1.5
-2.82
-4.52
-6.63
-8.95
-11.26
-13.41
-15.44
-17.48
-19.7
-22.17
-24.86
-27.71
-30.59
-33.31
-35.54
-36.8
-36.65
-34.86
-31.55
-27.17
-22.28
-17.32
-12.47
-7.72
-3.05
1.49
5.73
9.43
12.4
14.59
16.04
16.89
17.32
17.56
17.85
18.39
19.24
20.39
21.67
22.96
24.16
25.21
26.11
26.8
27.24
27.32
26.97
26.13
24.8
23.07
21.06
18.93
16.8
14.7
12.55
10.23
7.67
4.94
2.22
-0.23
-2.28
-3.99
-5.62
-7.48
-9.78
-12.52
-15.45
-18.3
-20.87
-23.21
-25.54
-28.13
-30.99
-33.82
-36.0
-36.84
-35.87
-33.04
-28.74
-23.62
-18.29
-13.19
-8.47
-4.12
-0.06
3.72
7.1
9.89
11.87
12.93
13.11
12.61
11.78
10.99
10.52
10.48
10.8
11.31
11.85
12.34
12.73
13.01
13.12
12.97
12.52
11.78
10.83
9.76
8.57
7.23
5.68
3.93
2.11
0.4
-1.08
-2.32
-3.49
-4.79
-6.41
-8.35
-10.52
-12.8
-15.09
-17.38
-19.67
-21.97
-24.2
-26.33
-28.38
-30.46
-32.69
-35.02
-37.15
-38.48
-38.38
-36.37
-32.39
-26.82
-20.33
-13.68
-7.47
-2.07
2.45
6.16
9.24
11.86
14.11
15.97
17.31
18.02
18.13
17.85
17.49
17.39
17.69
18.31
19.01
19.56
19.87
20.02
20.16
20.36
20.59
20.66
20.38
19.65
18.45
16.91
15.17
13.35
11.57
9.87
8.25
6.67
5.01
3.17
1.05
-1.3
-3.75
-6.11
-8.29
-10.36
-12.48
-14.84
-17.48
-20.31
-23.19
-26.09
-29.08
-32.28
-35.61
-38.66
-40.71
-40.99
-39.02
-34.85
-29.02
-22.33
-15.56
-9.18
-3.36
1.93
6.76
11.06
14.65
17.29
18.86
19.46
19.39
19.15
19.22
19.91
21.24
22.97
24.75
26.26
27.33
27.92
28.08
27.87
27.29
26.35
25.08
23.56
21.91
20.21
18.49
16.69
14.74
12.61
10.33
7.94
5.56
3.26
1.1
-0.92
-2.81
-4.59
-6.34
-8.13
-10.06
-12.19
-14.49
-16.86
-19.12
-21.09
-22.66
-23.88
-24.91
-25.92
-26.93
-27.7
-27.77
-26.59
-23.78
-19.27
-13.35
-6.56
0.46
7.15
13.16
18.31
22.54
25.83
28.16
29.5
29.89
29.52
28.67
27.68
26.82
26.21
25.84
25.55
25.18
24.6
23.79
22.81
21.75
20.68
19.64
18.62
17.54
16.26
14.66
12.67
10.37
7.98
5.78
3.96
2.59
1.54
0.6
-0.45
-1.78
-3.39
-5.22
-7.17
-9.2
-11.35
-13.7
-16.29
-19.09
-21.99
-24.95
-28.03
-31.31
-34.8
-38.21
-40.95
-42.21
-41.36
-38.19
-33.01
-26.59
-19.78
-13.28
-7.49
-2.45
1.96
5.93
9.59
12.94
15.82
17.95
19.07
19.07
18.18
16.91
15.83
15.41
15.76
16.63
17.61
18.36
18.77
18.97
19.15
19.44
19.76
19.9
19.58
18.61
16.99
14.87
12.54
10.25
8.17
6.31
4.54
2.64
0.43
-2.18
-5.15
-8.28
-11.3
-13.96
-16.14
-17.86
-19.35
-20.88
-22.64
-24.74
-27.12
-29.69
-32.41
-35.21
-37.94
-40.22
-41.48
-41.09
-38.6
-34.03
-27.9
-21.07
-14.37
-8.38
-3.26
1.15
5.12
8.8
12.15
14.98
17.08
18.35
18.88
18.9
18.72
18.58
18.58
18.72
18.93
19.22
19.61
20.14
20.81
21.44
21.8
21.66
20.92
19.68
18.12
16.45
14.72
12.88
10.84
8.59
6.28
4.16
2.45
1.17
0.14
-1.0
-2.55
-4.68
-7.33
-10.22
-13.08
-15.71
-18.1
-20.36
-22.61
-24.93
-27.31
-29.75
-32.31
-35.08
-38.01
-40.77
-42.68
-42.95
-40.92
-36.46
-30.03
-22.49
-14.82
-7.73
-1.52
3.82
8.46
12.56
16.2
19.38
22.1
24.32
25.92
26.73
26.64
25.73
24.27
22.75
21.67
21.37
21.95
23.23
24.9
26.61
28.1
29.19
29.83
29.97
29.64
28.83
27.55
25.81
23.67
21.31
18.95
16.88
15.28
14.19
13.41
12.62
11.4
9.46
6.7
3.25
-0.62
-4.52
-8.1
-11.15
-13.67
-16.0
-18.73
-22.54
-27.93
-34.92
-42.85
-50.45
-56.23
-58.94
-57.97
-53.56
-46.61
-38.37
-29.99
-22.28
-15.65
-10.16
-5.69
-2.02
1.08
3.78
6.13
8.08
9.53
10.42
10.85
11.12
11.68
12.89
14.91
17.5
20.2
22.5
24.06
24.88
25.19
25.25
25.19
24.95
24.44
23.64
22.81
22.29
22.37
22.99
23.69
23.72
22.44
19.62
15.57
11.01
6.73
3.21
0.48
-1.85
-4.32
-7.33
-10.98
-15.03
-19.03
-22.62
-25.65
-28.23
-30.6
-32.87
-34.86
-36.08
-36.0
-34.22
-30.79
-26.17
-21.05
-16.1
-11.66
-7.76
-4.17
-0.64
2.99
6.63
10.03
12.84
14.83
15.94
16.37
16.45
16.54
16.81
17.25
17.69
18.02
18.22
18.37
18.46
18.34
17.66
16.09
13.54
10.28
6.9
4.01
1.98
0.81
0.23
-0.15
-0.5
-0.8
-0.88
-0.62
-0.2
0.01
-0.51
-2.12
-4.93
-8.72
-13.08
-17.5
-21.56
-24.9
-27.36
-28.93
-29.79
-30.34
-31.07
-32.41
-34.45
-36.82
-38.72
-39.23
-37.66
-33.84
-28.22
-21.69
-15.18
-9.38
-4.48
-0.32
3.42
6.94
10.16
12.77
14.49
15.2
15.1
14.61
14.2
14.18
14.58
15.22
15.82
16.21
16.39
16.5
16.74
17.26
18.08
19.07
20.03
20.72
20.95
20.63
19.81
18.6
17.13
15.44
13.52
11.27
8.69
5.89
3.11
0.59
-1.51
-3.16
-4.52
-5.76
-7.05
-8.46
-9.97
-11.56
-13.24
-15.01
-16.9
-18.92
-21.12
-23.51
-26.09
-28.76
-31.21
-33.01
-33.62
-32.63
-29.87
-25.49
-19.91
-13.7
-7.43
-1.51
3.8
8.44
12.43
15.84
18.68
20.89
22.37
22.98
22.74
21.81
20.59
19.5
18.85
18.73
18.96
19.21
19.14
18.55
17.48
16.2
15.06
14.34
14.12
14.24
14.42
14.34
13.82
12.83
11.51
10.0
8.43
6.86
5.33
3.97
2.91
2.2
1.73
1.22
0.32
-1.27
-3.64
-6.68
-10.09
-13.51
-16.65
-19.39
-21.72
-23.83
-25.92
-28.13
-30.39
-32.41
-33.67
-33.62
-31.85
-28.31
-23.32
-17.52
-11.64
-6.3
-1.85
1.63
4.33
6.43
8.09
9.27
9.91
9.96
9.59
9.19
9.2
9.93
11.39
13.33
15.32
16.99
18.15
18.78
18.99
18.88
18.44
17.66
16.55
15.17
13.68
12.2
10.79
9.38
7.84
6.04
3.98
1.77
-0.36
-2.12
-3.3
-3.83
-3.9
-3.81
-4.03
-4.95
-6.84
-9.72
-13.36
-17.37
-21.35
-25.01
-28.26
-31.23
-34.09
-36.95
-39.72
-42.06
-43.52
-43.59
-41.92
-38.38
-33.21
-26.82
-19.72
-12.41
-5.27
1.38
7.24
12.02
15.54
17.81
19.08
19.74
20.14
20.5
20.82
20.98
20.93
20.76
20.71
20.99
21.77
23.0
24.55
26.2
27.7
28.78
29.18
28.68
27.21
24.89
22.01
18.98
16.14
13.66
11.5
9.42
7.17
4.55
1.51
-1.91
-5.59
-9.39
-13.18
-16.82
-20.18
-23.13
-25.66
-27.86
-29.95
-32.13
-34.58
-37.36
-40.5
-44.02
-47.91
-52.0
-55.89
-58.92
-60.31
-59.4
-55.91
-49.92
-41.8
-32.0
-21.11
-9.83
0.87
9.9
16.32
19.66
20.19
18.76
16.41
13.94
11.65
9.43
7.07
4.51
2.05
0.17
-0.68
-0.23
1.6
4.78
9.34
15.31
22.64
30.99
39.66
47.67
54.04
58.11
59.76
59.35
57.44
54.54
50.84
46.3
40.88
34.81
28.73
23.45
19.64
17.4
16.22
15.09
12.97
9.34
4.34
-1.29
-6.71
-11.41
-15.51
-19.58
-24.16
-29.28
-34.3
-38.04
-39.42
-37.97
-34.04
-28.63
-22.83
-17.38
-12.37
-7.51
-2.48
2.68
7.52
11.4
13.78
14.57
14.1
12.94
11.64
10.51
9.58
8.71
7.77
6.78
5.93
5.46
5.54
6.16
7.14
8.17
8.92
9.19
8.89
8.07
6.77
4.97
2.66
-0.12
-3.16
-6.13
-8.65
-10.47
-11.56
-12.02
-12.0
-11.55
-10.53
-8.78
-6.21
-2.96
0.52
3.55
5.4
5.5
3.62
-0.05
-4.89
-9.96
-14.29
-17.17
-18.29
-17.8
-16.1
-13.59
-10.45
-6.64
-2.0
3.46
9.49
15.62
21.32
26.15
29.82
32.23
33.34
33.25
32.12
30.25
28.04
25.9
24.19
23.07
22.51
22.25
21.95
21.25
19.86
17.72
14.97
11.94
9.0
6.41
4.17
2.1
-0.08
-2.51
-5.04
-7.27
-8.77
-9.25
-8.77
-7.79
-6.93
-6.76
-7.59
-9.34
-11.71
-14.37
-17.1
-19.92
-22.93
-26.24
-29.87
-33.73
-37.59
-41.17
-44.09
-45.93
-46.26
-44.79
-41.4
-36.3
-29.94
-22.95
-15.97
-9.51
-3.88
0.81
4.66
7.93
10.83
13.53
16.06
18.38
20.39
22.08
23.48
24.64
25.6
26.36
26.92
27.35
27.8
28.46
29.38
30.48
31.47
31.99
31.71
30.49
28.36
25.52
22.27
18.97
15.94
13.46
11.63
10.35
9.25
7.83
5.57
2.15
-2.41
-7.76
-13.3
-18.39
-22.62
-25.87
-28.31
-30.28
-32.07
-33.89
-35.82
-37.95
-40.4
-43.23
-46.27
-48.98
-50.45
-49.67
-45.95
-39.25
-30.28
-20.23
-10.34
-1.56
5.73
11.58
16.23
19.92
22.78
24.84
26.22
27.14
27.85
28.46
28.81
28.47
26.96
24.04
19.93
15.35
11.26
8.51
7.53
8.2
9.96
12.1
14.01
15.29
15.73
15.27
13.95
11.9
9.44
6.95
4.85
3.37
2.47
1.81
0.92
-0.59
-2.91
-5.89
-9.14
-12.16
-14.59
-16.3
-17.41
-18.23
-19.1
-20.23
-21.62
-23.18
-24.79
-26.42
-28.1
-29.76
-31.14
-31.69
-30.77
-27.92
-23.13
-16.9
-10.05
-3.45
2.37
7.31
11.61
15.61
19.49
23.06
25.94
27.68
28.03
27.03
25.07
22.75
20.59
18.92
17.77
16.92
16.08
15.03
13.8
12.55
11.5
10.76
10.2
9.53
8.49
6.94
5.01
3.01
1.25
-0.1
-1.06
-1.78
-2.49
-3.35
-4.44
-5.75
-7.17
-8.52
-9.62
-10.39
-10.9
-11.4
-12.24
-13.69
-15.8
-18.4
-21.17
-23.81
-26.13
-27.99
-29.23
-29.55
-28.57
-26.03
-21.92
-16.59
-10.61
-4.67
0.69
5.18
8.82
11.81
14.38
16.65
18.54
19.84
20.4
20.23
19.54
18.73
18.12
17.88
17.97
18.17
18.25
18.1
17.77
17.37
17.05
16.92
16.95
17.04
16.97
16.53
15.55
14.07
12.26
10.38
8.67
7.17
5.82
4.45
2.88
1.03
-1.08
-3.4
-5.85
-8.36
-10.87
-13.35
-15.75
-18.04
-20.18
-22.13
-23.85
-25.4
-26.98
-28.87
-31.28
-34.08
-36.77
-38.52
-38.54
-36.42
-32.32
-26.88
-20.93
-15.08
-9.63
-4.54
0.26
4.78
8.82
12.13
14.54
16.02
16.73
16.87
16.75
16.6
16.61
16.87
17.34
17.82
18.15
18.16
17.87
17.35
16.75
16.17
15.66
15.17
14.64
13.97
13.1
12.0
10.69
9.19
7.5
5.61
3.51
1.29
-0.88
-2.76
-4.2
-5.23
-6.12
-7.22
-8.82
-10.97
-13.46
-16.04
-18.53
-20.93
-23.34
-25.84
-28.39
-30.89
-33.25
-35.48
-37.55
-39.32
-40.35
-40.04
-37.84
-33.52
-27.42
-20.26
-12.99
-6.35
-0.74
3.84
7.62
10.91
13.89
16.56
18.81
20.52
21.68
22.33
22.61
22.64
22.44
22.0
21.35
20.55
19.78
19.18
18.86
18.75
18.7
18.49
18.0
17.19
16.11
14.89
13.68
12.61
11.85
11.47
11.47
11.68
11.85
11.71
11.11
10.05
8.69
7.27
5.99
4.94
4.08
3.21
2.13
0.62
-1.38
-3.79
-6.39
-8.97
-11.39
-13.59
-15.49
-16.93
-17.66
-17.36
-15.82
-13.01
-9.09
-4.25
1.27
7.17
12.91
17.62
20.14
19.41
14.88
6.92
-3.08
-13.07
-20.92
-25.04
-24.8
-20.58
-13.54
-5.17
3.12
10.37
16.06
20.11
22.66
23.91
24.09
23.35
21.96
20.14
18.12
15.95
13.62
11.05
8.23
5.21
2.12
-1.01
-4.18
-7.45
-10.8
-14.03
-16.78
-18.74
-19.74
-19.94
-19.71
-19.52
-19.7
-20.45
-21.82
-23.83
-26.47
-29.62
-32.88
-35.59
-36.96
-36.3
-33.28
-28.07
-21.22
-13.47
-5.56
1.93
8.61
14.21
18.62
21.88
24.19
25.85
27.13
28.26
29.34
30.35
31.3
32.25
33.32
34.63
36.22
37.99
39.77
41.38
42.74
43.9
44.96
45.92
46.62
46.73
45.84
43.63
39.95
34.74
28.1
20.2
11.36
2.06
-7.04
-15.28
-22.16
-27.54
-31.65
-35.08
-38.66
-43.23
-49.51
-57.79
-67.85
-78.91
-89.72
-98.88
-105.13
-107.69
-106.28
-101.1
-92.71
-81.87
-69.49
-56.53
-43.79
-31.9
-21.24
-11.94
-4.02
2.62
8.2
13.07
17.6
21.96
25.98
29.11
30.69
30.36
28.39
25.72
23.54
22.74
23.5
25.2
26.81
27.46
26.83
25.26
23.44
21.98
21.09
20.57
20.05
19.29
18.31
17.31
16.4
15.49
14.26
12.42
9.97
7.3
5.07
3.86
3.88
4.78
5.88
6.44
6.0
4.47
2.13
-0.54
-3.04
-4.96
-6.1
-6.53
-6.59
-6.83
-7.74
-9.5
-11.81
-13.95
-15.01
-14.29
-11.54
-7.06
-1.51
4.36
9.89
14.66
18.44
21.22
23.12
24.33
25.08
25.52
25.78
25.99
26.35
27.16
28.67
30.97
33.78
36.46
38.21
38.38
36.76
33.7
29.97
26.46
23.89
22.61
22.56
23.34
24.35
24.91
24.38
22.16
17.85
11.38
3.12
-6.13
-15.27
-23.29
-29.56
-34.11
-37.48
-40.44
-43.55
-46.9
-50.2
-53.04
-55.2
-56.87
-58.49
-60.33
-62.19
-63.17
-62.02
-57.57
-49.33
-37.62
-23.58
-8.66
5.76
18.71
29.61
38.25
44.67
49.07
51.87
53.58
54.73
55.78
57.0
58.43
60.01
61.49
62.53
62.68
61.48
58.63
54.14
48.36
41.89
35.38
29.23
23.56
18.21
12.9
7.42
1.68
-4.28
-10.4
-16.71
-23.46
-30.98
-39.56
-49.17
-59.37
-69.3
-77.99
-84.75
-89.42
-92.35
-94.14
-95.06
-94.9
-93.03
-88.91
-82.51
-74.6
-66.41
-59.01
-52.75
-47.08
-40.92
-33.31
-24.0
-13.54
-3.0
6.57
14.63
21.24
26.76
31.55
35.72
39.09
41.34
42.22
41.64
39.78
36.94
33.62
30.38
27.76
26.09
25.48
25.72
26.4
27.03
27.22
26.77
25.62
23.85
21.59
19.05
16.51
14.25
12.46
11.11
9.94
8.55
6.72
4.59
2.56
1.11
0.41
0.12
-0.44
-1.96
-4.68
-8.28
-12.06
-15.4
-18.19
-20.8
-23.82
-27.55
-31.78
-35.87
-39.14
-41.2
-42.18
-42.42
-42.15
-41.3
-39.44
-36.1
-31.09
-24.66
-17.43
-10.14
-3.34
2.64
7.77
12.07
15.51
17.96
19.31
19.57
18.97
17.92
16.88
16.18
15.96
16.17
16.68
17.38
18.19
19.07
19.98
20.88
21.75
22.57
23.37
24.12
24.74
25.08
24.91
24.03
22.42
20.24
17.78
15.38
13.25
11.44
9.81
8.21
6.53
4.8
3.16
1.66
0.24
-1.36
-3.44
-6.17
-9.5
-13.16
-16.77
-20.05
-22.88
-25.26
-27.16
-28.4
-28.64
-27.54
-24.92
-20.86
-15.71
-9.93
-3.89
2.16
8.06
13.7
18.94
23.64
27.76
31.33
34.44
37.17
39.51
41.31
42.36
42.37
41.03
38.1
33.48
27.44
20.62
13.97
8.54
5.11
3.93
4.74
6.9
9.63
12.18
13.99
14.68
14.16
12.55
10.23
7.67
5.22
2.98
0.8
-1.6
-4.35
-7.38
-10.39
-13.11
-15.47
-17.7
-20.17
-23.17
-26.65
-30.28
-33.52
-36.0
-37.6
-38.41
-38.58
-38.05
-36.5
-33.56
-29.06
-23.2
-16.57
-9.92
-3.9
1.09
4.96
7.88
10.15
12.12
14.05
15.99
17.72
18.82
18.88
17.74
15.67
13.35
11.6
10.95
11.45
12.71
14.13
15.27
16.02
16.53
17.05
17.72
18.44
18.95
18.96
18.25
16.78
14.71
12.36
10.09
8.21
6.83
5.81
4.89
3.76
2.26
0.44
-1.52
-3.47
-5.4
-7.49
-9.99
-13.07
-16.76
-20.94
-25.42
-30.13
-35.04
-40.1
-45.03
-49.25
-52.04
-52.75
-51.11
-47.34
-42.14
-36.38
-30.75
-25.64
-21.08
-16.95
-13.12
-9.56
-6.35
-3.62
-1.5
-0.06
0.71
0.98
1.14
1.6
2.73
4.57
6.86
9.12
10.91
12.06
12.77
13.47
14.55
16.15
18.06
19.85
21.06
21.37
20.76
19.42
17.71
15.9
14.14
12.37
10.44
8.22
5.69
3.04
0.5
-1.77
-3.78
-5.75
-7.96
-10.6
-13.7
-17.11
-20.66
-24.25
-27.87
-31.54
-35.15
-38.37
-40.63
-41.24
-39.69
-35.79
-29.8
-22.33
-14.13
-5.89
1.88
8.88
14.95
20.0
23.98
26.87
28.63
29.22
28.59
26.75
23.83
20.25
16.71
14.02
12.85
13.51
15.74
18.86
22.03
24.55
26.01
26.37
25.74
24.3
22.15
19.41
16.29
13.09
10.2
7.93
6.45
5.68
5.41
5.39
5.39
5.26
4.89
4.19
3.2
1.93
0.47
-1.18
-3.03
-5.17
-7.64
-10.44
-13.45
-16.53
-19.64
-22.77
-25.86
-28.7
-30.86
-31.81
-31.12
-28.65
-24.67
-19.8
-14.74
-10.13
-6.27
-3.16
-0.49
2.06
4.63
6.97
8.56
8.87
7.65
5.21
2.36
0.15
-0.53
0.82
4.15
9.02
14.77
20.69
26.13
30.53
33.53
34.92
34.7
33.09
30.52
27.46
24.39
21.69
19.5
17.7
15.9
13.65
10.65
6.86
2.56
-1.85
-5.98
-9.62
-12.78
-15.61
-18.31
-21.04
-23.89
-26.86
-29.93
-33.13
-36.5
-40.04
-43.53
-46.46
-48.16
-47.96
-45.5
-40.91
-34.72
-27.64
-20.31
-13.12
-6.25
0.1
5.67
10.14
13.26
15.02
15.68
15.62
15.23
14.82
14.61
14.78
15.43
16.55
17.97
19.34
20.29
20.55
20.08
19.04
17.8
16.76
16.2
16.22
16.68
17.2
17.33
16.67
15.05
12.65
9.89
7.25
5.07
3.4
2.04
0.67
-1.0
-3.14
-5.71
-8.57
-11.51
-14.29
-16.76
-18.89
-20.8
-22.71
-24.88
-27.45
-30.4
-33.53
-36.51
-38.93
-40.35
-40.35
-38.59
-34.94
-29.6
-23.09
-16.14
-9.44
-3.43
1.73
6.11
9.91
13.26
16.2
18.65
20.44
21.42
21.55
20.96
19.98
19.04
18.56
18.73
19.47
20.48
21.39
21.99
22.25
22.3
22.26
22.15
21.86
21.28
20.33
19.05
17.58
16.01
14.41
12.75
10.97
9.05
7.08
5.23
3.68
2.53
1.79
1.27
0.68
-0.27
-1.73
-3.69
-5.95
-8.27
-10.48
-12.51
-14.43
-16.34
-18.32
-20.43
-22.71
-25.18
-27.74
-30.14
-31.89
-32.42
-31.26
-28.3
-23.8
-18.32
-12.51
-6.87
-1.7
2.88
6.85
10.18
12.85
14.8
15.99
16.45
16.3
15.75
15.14
14.78
14.83
15.27
15.86
16.36
16.69
17.05
17.76
19.07
20.86
22.68
23.83
23.77
22.3
19.69
16.53
13.49
11.09
9.52
8.67
8.21
7.67
6.65
4.9
2.4
-0.6
-3.76
-6.72
-9.3
-11.5
-13.4
-15.15
-16.86
-18.61
-20.52
-22.71
-25.27
-28.13
-31.0
-33.35
-34.55
-34.06
-31.65
-27.47
-21.93
-15.65
-9.18
-2.94
2.86
8.09
12.71
16.66
19.87
22.26
23.76
24.38
24.22
23.46
22.36
21.25
20.45
20.16
20.44
21.15
22.07
22.98
23.83
24.62
25.4
26.08
26.36
25.89
24.39
21.91
18.83
15.73
13.1
11.15
9.67
8.23
6.4
3.97
1.0
-2.31
-5.68
-8.97
-12.15
-15.22
-18.2
-21.08
-23.84
-26.52
-29.13
-31.62
-33.8
-35.28
-35.61
-34.39
-31.47
-27.02
-21.47
-15.42
-9.53
-4.37
-0.34
2.45
4.19
5.31
6.33
7.66
9.44
11.51
13.56
15.38
16.91
18.27
19.59
20.79
21.69
22.04
21.82
21.24
20.7
20.51
20.67
20.86
20.48
19.05
16.36
12.66
8.57
4.86
2.09
0.45
-0.36
-0.96
-1.98
-3.78
-6.28
-9.12
-11.87
-14.4
-16.87
-19.64
-22.95
-26.72
-30.62
-34.25
-37.37
-39.96
-42.07
-43.63
-44.27
-43.47
-40.78
-36.11
-29.81
-22.52
-15.01
-7.9
-1.52
4.02
8.74
12.72
15.89
18.14
19.35
19.47
18.69
17.44
16.24
15.57
15.62
16.37
17.56
18.88
20.05
20.9
21.38
21.43
21.09
20.42
19.55
18.62
17.72
16.79
15.67
14.14
12.01
9.33
6.33
3.41
0.95
-0.87
-2.17
-3.33
-4.79
-6.85
-9.5
-12.55
-15.72
-18.84
-21.92
-25.04
-28.21
-31.33
-34.24
-36.81
-39.03
-40.81
-41.95
-42.01
-40.43
-36.85
-31.26
-24.16
-16.36
-8.69
-1.73
4.33
9.6
14.35
18.76
22.82
26.32
28.93
30.4
30.66
29.9
28.52
27.02
25.8
25.03
24.59
24.18
23.42
22.09
20.18
17.88
15.46
13.11
10.93
8.83
6.68
4.44
2.2
0.18
-1.39
-2.37
-2.8
-2.83
-2.7
-2.56
-2.45
-2.29
-1.97
-1.4
-0.6
0.25
0.88
0.99
0.43
-0.85
-2.68
-4.85
-7.13
-9.4
-11.62
-13.84
-16.06
-18.23
-20.24
-21.92
-23.07
-23.61
-23.56
-23.05
-22.3
-21.47
-20.63
-19.66
-18.37
-16.58
-14.3
-11.76
-9.28
-7.03
-4.95
-2.68
0.21
3.95
8.49
13.49
18.45
22.97
26.87
30.21
33.15
35.84
38.26
40.27
41.7
42.41
42.44
41.92
41.01
39.74
37.98
35.53
32.24
28.18
23.55
18.6
13.53
8.43
3.35
-1.66
-6.48
-11.02
-15.26
-19.37
-23.54
-27.86
-32.23
-36.4
-40.08
-43.07
-45.3
-46.66
-46.96
-45.9
-43.2
-38.8
-32.93
-26.13
-19.13
-12.6
-6.96
-2.27
1.76
5.54
9.28
12.89
15.92
17.81
18.22
17.3
15.62
13.97
12.95
12.71
12.96
13.18
13.02
12.46
11.86
11.7
12.27
13.49
14.85
15.69
15.47
13.94
11.38
8.37
5.62
3.65
2.66
2.39
2.33
1.86
0.57
-1.67
-4.64
-7.91
-11.08
-13.89
-16.3
-18.45
-20.51
-22.57
-24.65
-26.7
-28.75
-30.88
-33.14
-35.33
-36.95
-37.27
-35.6
-31.64
-25.73
-18.76
-11.83
-5.83
-1.14
2.35
5.04
7.28
9.16
10.53
11.21
11.21
10.74
10.22
10.0
10.28
11.02
12.05
13.14
14.13
14.96
15.69
16.43
17.27
18.16
18.92
19.27
18.91
17.69
15.67
13.18
10.66
8.53
6.98
5.99
5.35
4.82
4.24
3.56
2.85
2.14
1.42
0.58
-0.48
-1.8
-3.26
-4.52
-5.19
-4.96
-3.88
-2.47
-1.57
-1.99
-4.12
-7.65
-11.64
-14.9
-16.5
-16.18
-14.42
-12.11
-10.06
-8.66
-7.76
-6.87
-5.5
-3.47
-0.95
1.67
4.04
5.94
7.35
8.31
8.82
8.85
8.37
7.48
6.44
5.63
5.36
5.86
7.13
9.02
11.22
13.26
14.68
15.1
14.44
12.9
10.93
8.99
7.29
5.72
4.0
1.83
-0.79
-3.61
-6.19
-8.13
-9.2
-9.42
-8.98
-8.15
-7.27
-6.66
-6.66
-7.48
-9.18
-11.61
-14.48
-17.45
-20.3
-23.01
-25.65
-28.37
-31.24
-34.08
-36.46
-37.76
-37.41
-35.1
-30.95
-25.49
-19.43
-13.37
-7.62
-2.21
2.99
8.0
12.56
16.23
18.55
19.25
18.43
16.51
14.09
11.8
10.19
9.55
9.97
11.27
13.15
15.23
17.27
19.09
20.65
21.91
22.81
23.28
23.29
22.91
22.31
21.67
21.07
20.41
19.48
18.03
15.87
13.04
9.75
6.36
3.24
0.64
-1.41
-3.08
-4.68
-6.52
-8.76
-11.37
-14.21
-17.15
-20.11
-23.2
-26.52
-30.13
-33.81
-37.08
-39.29
-39.78
-38.12
-34.35
-28.96
-22.76
-16.61
-11.11
-6.46
-2.5
1.09
4.62
8.16
11.54
14.4
16.33
16.98
16.29
14.55
12.39
10.64
10.03
10.89
13.03
15.79
18.42
20.32
21.25
21.24
20.47
19.16
17.52
15.82
14.36
13.36
12.84
12.56
12.13
11.23
9.71
7.69
5.34
2.77
-0.08
-3.33
-6.99
-10.88
-14.64
-17.91
-20.53
-22.63
-24.6
-26.83
-29.58
-32.85
-36.42
-40.0
-43.21
-45.72
-47.11
-46.92
-44.71
-40.25
-33.75
-25.86
-17.61
-9.99
-3.64
1.36
5.43
9.12
12.78
16.34
19.35
21.25
21.76
21.05
19.74
18.6
18.25
18.87
20.2
21.73
23.0
23.77
24.1
24.22
24.25
24.17
23.83
23.17
22.3
21.52
21.12
21.12
21.2
20.84
19.64
17.54
14.88
12.17
9.78
7.69
5.6
3.1
-0.01
-3.65
-7.47
-11.13
-14.48
-17.62
-20.83
-24.31
-28.08
-31.89
-35.39
-38.26
-40.45
-42.2
-43.8
-45.45
-46.91
-47.56
-46.6
-43.41
-37.83
-30.29
-21.63
-12.77
-4.48
2.82
8.93
13.8
17.36
19.58
20.5
20.36
19.57
18.63
17.98
17.89
18.39
19.33
20.47
21.56
22.4
22.91
23.11
23.22
23.46
24.04
24.92
25.81
26.21
25.63
23.83
20.97
17.53
14.11
11.17
8.89
7.22
5.96
4.94
4.03
3.18
2.29
1.18
-0.31
-2.3
-4.76
-7.5
-10.29
-12.88
-15.22
-17.48
-20.02
-23.23
-27.35
-32.32
-37.7
-42.77
-46.72
-48.88
-48.82
-46.46
-42.05
-36.05
-29.04
-21.67
-14.5
-8.01
-2.49
1.97
5.56
8.62
11.63
14.96
18.76
22.85
26.77
29.98
32.09
33.04
33.12
32.78
32.46
32.38
32.56
32.9
33.38
34.07
35.05
36.31
37.55
38.29
38.03
36.41
33.48
29.64
25.48
21.57
18.27
15.65
13.54
11.71
9.93
8.05
6.0
3.75
1.32
-1.3
-4.11
-7.15
-10.4
-13.84
-17.35
-20.78
-23.97
-26.88
-29.6
-32.34
-35.24
-38.17
-40.61
-41.7
-40.6
-36.89
-30.83
-23.34
-15.53
-8.35
-2.19
3.06
7.78
12.2
16.24
19.49
21.53
22.16
21.63
20.47
19.27
18.46
18.15
18.23
18.51
18.87
19.33
19.95
20.81
21.84
22.86
23.56
23.61
22.7
20.71
17.76
14.27
10.82
7.96
5.94
4.55
3.32
1.72
-0.47
-3.06
-5.57
-7.55
-8.78
-9.4
-9.76
-10.26
-11.21
-12.78
-15.05
-17.98
-21.45
-25.18
-28.88
-32.3
-35.32
-38.03
-40.54
-42.89
-44.88
-46.14
-46.25
-44.9
-42.01
-37.68
-32.17
-25.8
-18.9
-11.77
-4.74
1.9
7.86
12.88
16.79
19.45
20.87
21.15
20.6
19.62
18.7
18.26
18.55
19.62
21.26
23.16
24.97
26.38
27.22
27.41
26.97
26.01
24.67
23.08
21.31
19.34
17.12
14.62
11.88
9.03
6.21
3.51
0.93
-1.59
-4.13
-6.7
-9.28
-11.89
-14.58
-17.45
-20.52
-23.65
-26.59
-29.08
