0
20.19
19.66
19.0
18.5
18.35
18.61
19.21
20.01
20.87
21.69
22.38
22.84
23.0
22.81
22.28
21.49
20.6
19.67
18.73
17.73
16.55
15.14
13.47
11.59
9.6
7.59
5.64
3.84
2.24
0.87
-0.31
-1.4
-2.53
-3.87
-5.51
-7.5
-9.76
-12.14
-14.48
-16.67
-18.72
-20.77
-23.05
-25.81
-29.13
-32.93
-36.89
-40.5
-43.17
-44.33
-43.57
-40.77
-36.13
-30.16
-23.55
-16.92
-10.72
-5.1
-0.06
4.45
8.42
11.74
14.3
16.05
17.07
17.53
17.57
17.38
17.07
16.79
16.65
16.74
17.08
17.63
18.32
19.03
19.69
20.22
20.58
20.69
20.5
19.98
19.17
18.14
16.96
15.74
14.52
13.35
12.21
11.08
9.87
8.51
6.97
5.32
3.69
2.24
1.06
0.13
-0.67
-1.5
-2.51
-3.76
-5.24
-6.96
-8.91
-11.12
-13.58
-16.2
-18.86
-21.49
-24.12
-26.89
-29.98
-33.36
-36.71
-39.37
-40.53
-39.6
-36.38
-31.23
-24.88
-18.16
-11.7
-5.82
-0.54
4.2
8.44
12.09
15.01
17.15
18.52
19.28
19.6
19.65
19.5
19.24
18.93
18.69
18.63
18.83
19.31
20.02
20.82
21.59
22.19
22.52
22.46
21.91
20.83
19.27
17.39
15.42
13.57
11.94
10.45
8.98
7.39
5.67
3.94
2.34
0.98
-0.22
-1.42
-2.79
-4.43
-6.3
-8.28
-10.22
-12.05
-13.74
-15.36
-17.02
-18.86
-20.99
-23.47
-26.3
-29.39
-32.53
-35.39
-37.51
-38.41
-37.63
-34.94
-30.44
-24.56
-18.03
-11.61
-5.85
-0.99
3.01
6.38
9.29
11.81
13.85
15.29
16.05
16.21
15.95
15.53
15.19
15.06
15.2
15.55
16.03
16.55
17.09
17.61
18.09
18.44
18.56
18.39
17.9
17.15
16.23
15.24
14.19
13.1
11.91
10.61
9.18
7.65
6.05
4.43
2.86
1.38
0.01
-1.29
-2.62
-4.11
-5.82
-7.79
-9.93
-12.08
-14.1
-15.91
-17.55
-19.14
-20.86
-22.86
-25.26
-28.09
-31.31
-34.79
-38.27
-41.31
-43.36
-43.81
-42.24
-38.56
-33.1
-26.51
-19.56
-12.95
-7.08
-2.11
2.03
5.46
8.32
10.73
12.82
14.64
16.25
17.6
18.6
19.22
19.48
19.5
19.47
19.53
19.74
20.11
20.55
20.98
21.35
21.59
21.69
21.62
21.35
20.85
20.07
18.95
17.5
15.77
13.91
12.08
10.45
9.04
7.81
6.64
5.43
4.16
2.87
1.6
0.35
-0.93
-2.35
-4.0
-5.93
-8.14
-10.56
-13.1
-15.62
-18.0
-20.16
-22.1
-23.91
-25.78
-27.93
-30.54
-33.69
-37.24
-40.82
-43.87
-45.72
-45.75
-43.59
-39.25
-33.14
-26.01
-18.65
-11.75
-5.68
-0.53
3.81
7.5
10.63
13.26
15.41
17.14
18.49
19.54
20.31
20.78
20.94
20.84
20.59
20.35
20.29
20.55
21.17
22.11
23.2
24.18
24.75
24.7
23.97
22.68
21.15
19.67
18.43
17.41
16.45
15.35
14.01
12.44
10.77
9.13
7.6
6.22
4.99
3.88
2.82
1.73
0.46
-1.11
-3.02
-5.21
-7.53
-9.78
-11.85
-13.7
-15.39
-17.05
-18.88
-21.08
-23.83
-27.16
-30.9
-34.56
-37.46
-38.86
-38.21
-35.37
-30.62
-24.51
-17.77
-11.06
-4.84
0.6
5.14
8.77
11.54
13.54
14.91
15.8
16.34
16.64
16.77
16.76
16.65
16.48
16.3
16.2
16.26
16.53
17.02
17.66
18.39
19.07
19.58
19.79
19.6
18.93
17.79
16.34
14.8
13.41
12.27
11.31
10.28
8.95
7.2
5.14
3.05
1.21
-0.3
-1.6
-2.99
-4.74
-6.97
-9.55
-12.23
-14.76
-16.98
-18.95
-20.8
-22.73
-24.9
-27.45
-30.41
-33.71
-37.19
-40.48
-43.11
-44.48
-44.07
-41.56
-36.94
-30.59
-23.18
-15.5
-8.25
-1.9
3.41
7.73
11.23
14.06
16.28
17.93
19.04
19.71
20.03
20.09
19.96
19.7
19.4
19.19
19.18
19.45
20.0
20.74
21.53
22.23
22.71
22.86
22.59
21.84
20.64
19.17
17.65
16.35
15.37
14.61
13.77
12.52
10.67
8.28
5.64
3.15
1.06
-0.57
-1.96
-3.39
-5.09
-7.1
-9.31
-11.55
-13.69
-15.69
-17.64
-19.65
-21.81
-24.18
-26.8
-29.72
-32.95
-36.41
-39.85
-42.76
-44.47
-44.31
-41.87
-37.16
-30.65
-23.18
-15.63
-8.7
-2.73
2.28
6.49
10.06
13.03
15.37
17.06
18.15
18.76
19.05
19.16
19.21
19.28
19.45
19.8
20.35
21.11
22.02
23.01
23.97
24.75
25.17
25.1
24.49
23.39
22.03
20.65
19.47
18.56
17.83
17.12
16.26
15.13
13.68
11.9
9.82
7.51
5.13
2.85
0.85
-0.8
-2.16
-3.36
-4.57
-5.97
-7.65
-9.59
-11.7
-13.85
-15.93
-18.0
-20.21
-22.83
-26.04
-29.81
-33.75
-37.2
-39.37
-39.61
-37.61
-33.46
-27.63
-20.75
-13.49
-6.44
-0.01
5.55
10.18
13.91
16.83
19.07
20.74
21.9
22.63
22.96
22.93
22.61
22.06
21.39
20.75
20.26
20.04
20.13
20.5
21.03
21.57
21.93
21.97
21.6
20.84
19.75
18.43
16.98
15.48
13.91
12.21
10.33
8.22
5.91
3.54
1.27
-0.75
-2.48
-4.05
-5.65
-7.51
-9.71
-12.13
-14.55
-16.72
-18.54
-20.1
-21.67
-23.58
-26.11
-29.39
-33.32
-37.56
-41.56
-44.62
-46.07
-45.44
-42.6
-37.8
-31.56
-24.55
-17.37
-10.53
-4.35
1.0
5.48
9.15
12.12
14.53
16.45
17.86
18.74
19.14
19.19
19.13
19.16
19.39
19.79
20.24
20.63
20.93
21.18
21.41
21.61
21.67
21.48
20.94
20.04
18.86
17.53
16.15
14.79
13.43
12.0
10.44
8.69
6.77
4.77
2.82
1.05
-0.52
-1.91
-3.23
-4.59
-6.08
-7.76
-9.65
-11.77
-14.09
-16.54
-19.03
-21.47
-23.9
-26.43
-29.31
-32.68
-36.48
-40.31
-43.48
-45.19
-44.83
-42.23
-37.63
-31.59
-24.8
-17.84
-11.13
-4.93
0.57
5.23
8.97
11.83
13.96
15.57
16.86
17.91
18.69
19.13
19.23
19.07
18.84
18.73
18.88
19.3
19.89
20.55
21.15
21.66
22.03
22.22
22.17
21.78
20.99
19.8
18.27
16.54
14.74
12.92
11.08
9.14
7.05
4.82
2.58
0.52
-1.19
-2.53
-3.66
-4.88
-6.42
-8.37
-10.6
-12.83
-14.8
-16.45
-17.9
-19.42
-21.27
-23.62
-26.49
-29.84
-33.51
-37.22
-40.54
-42.89
-43.65
-42.37
-38.91
-33.55
-26.88
-19.66
-12.57
-6.12
-0.58
3.99
7.63
10.49
12.69
14.34
15.52
16.31
16.77
17.02
17.16
17.31
17.55
17.91
18.42
19.02
19.66
20.28
20.81
21.18
21.34
21.24
20.87
20.21
19.28
18.14
16.87
15.59
14.38
13.23
12.07
10.75
9.21
7.44
5.57
3.77
2.16
0.75
-0.59
-2.04
-3.75
-5.75
-7.94
-10.17
-12.35
-14.5
-16.8
-19.45
-22.62
-26.18
-29.79
-32.82
-34.61
-34.64
-32.66
-28.79
-23.51
-17.46
-11.31
-5.6
-0.61
3.6
7.14
10.13
12.64
14.6
15.89
16.43
16.26
15.56
14.63
13.79
13.25
13.09
13.3
13.74
14.3
14.92
15.55
16.16
16.64
16.87
16.71
16.11
15.12
13.87
12.5
11.07
9.54
7.83
5.9
3.82
1.75
-0.17
-1.87
-3.43
-5.01
-6.79
-8.83
-11.02
-13.16
-15.08
-16.72
-18.25
-19.97
-22.22
-25.19
-28.81
-32.73
-36.44
-39.36
-40.96
-40.87
-38.92
-35.14
-29.8
-23.4
-16.55
-9.93
-4.0
0.98
5.01
8.27
10.97
13.26
15.18
16.73
17.85
18.54
18.87
18.97
19.01
19.15
19.49
20.0
20.57
21.04
21.33
21.44
21.46
21.49
21.55
21.49
21.11
20.25
18.84
17.02
15.0
12.98
11.05
9.18
7.26
5.2
3.01
0.76
-1.45
-3.55
-5.61
-7.72
-9.96
-12.35
-14.76
-17.03
-19.1
-21.02
-23.03
-25.43
-28.43
-31.99
-35.77
-39.17
-41.51
-42.17
-40.77
-37.25
-31.89
-25.25
-18.04
-10.96
-4.58
0.84
5.24
8.78
11.66
14.02
15.91
17.31
18.22
18.72
18.95
19.08
19.22
19.41
19.62
19.83
20.05
20.35
20.76
21.25
21.7
21.91
21.75
21.19
20.31
19.23
18.08
16.87
15.59
14.18
12.63
10.98
9.32
7.75
6.3
4.95
3.57
2.03
0.22
-1.88
-4.21
-6.6
-8.88
-10.94
-12.79
-14.54
-16.35
-18.38
-20.78
-23.6
-26.85
-30.37
-33.8
-36.6
-38.12
-37.82
-35.48
-31.29
-25.77
-19.64
-13.5
-7.69
-2.33
2.62
7.19
11.29
14.74
17.35
19.04
19.86
20.04
19.91
19.77
19.84
20.15
20.63
21.1
21.45
21.64
21.77
21.91
22.15
22.44
22.67
22.72
22.51
22.01
21.24
20.17
18.78
17.02
14.89
12.48
9.92
7.43
5.15
3.18
1.5
-0.04
-1.63
-3.47
-5.68
-8.26
-11.1
-14.04
-16.97
-19.82
-22.66
-25.6
-28.81
-32.36
-36.21
-40.13
-43.73
-46.47
-47.85
-47.51
-45.41
-41.82
-37.31
-32.52
-28.05
-24.31
-21.51
-19.67
-18.76
-18.68
-19.31
-20.49
-21.98
-23.48
-24.65
-25.16
-24.73
-23.2
-20.45
-16.45
-11.16
-4.58
3.2
11.94
21.18
30.28
38.51
45.31
50.42
53.84
55.77
56.44
55.97
54.44
51.98
48.82
45.32
41.78
38.33
34.89
31.3
27.46
23.46
19.51
15.82
12.45
9.24
5.97
2.48
-1.24
-5.06
-8.81
-12.44
-16.05
-19.76
-23.58
-27.22
-30.16
-31.8
-31.67
-29.65
-26.0
-21.23
-15.93
-10.59
-5.52
-0.83
3.41
7.18
10.38
12.93
14.82
16.09
16.85
17.22
17.36
17.36
17.3
17.21
17.16
17.14
17.18
17.27
17.39
17.53
17.67
17.81
17.91
17.9
17.64
17.09
16.24
15.22
14.17
13.17
12.16
10.96
9.38
7.34
4.96
2.54
0.41
-1.23
-2.4
-3.32
-4.26
-5.47
-7.07
-9.06
-11.33
-13.73
-16.12
-18.37
-20.45
-22.4
-24.37
-26.55
-29.08
-31.99
-35.07
-37.93
-40.02
-40.81
-39.91
-37.19
-32.85
-27.32
-21.18
-14.98
-9.19
-4.07
0.27
3.87
6.81
9.23
11.24
12.91
14.27
15.28
15.92
16.19
16.2
16.14
16.24
16.65
17.4
18.35
19.28
20.03
20.54
20.83
21.0
21.03
20.89
20.46
19.71
18.66
17.36
15.89
14.28
12.53
10.66
8.76
6.96
5.36
4.0
2.78
1.54
0.14
-1.52
-3.41
-5.44
-7.51
-9.51
-11.39
-13.12
-14.71
-16.21
-17.7
-19.34
-21.33
-23.83
-26.84
-30.07
-32.89
-34.56
-34.38
-32.06
-27.8
-22.24
-16.19
-10.35
-5.06
-0.38
3.78
7.48
10.67
13.24
15.13
16.42
17.26
17.81
18.11
18.14
17.85
17.25
16.52
15.89
15.59
15.72
16.22
16.92
17.59
18.0
18.01
17.54
16.62
15.3
13.7
11.97
10.22
8.54
6.96
5.5
4.16
2.91
1.73
0.54
-0.73
-2.18
-3.86
-5.77
-7.79
-9.83
-11.79
-13.66
-15.48
-17.36
-19.38
-21.63
-24.22
-27.19
-30.54
-34.1
-37.43
-39.93
-40.96
-40.07
-37.12
-32.43
-26.52
-20.06
-13.59
-7.48
-1.95
2.92
7.07
10.51
13.21
15.21
16.54
17.25
17.46
17.3
16.96
16.62
16.39
16.32
16.39
16.56
16.82
17.2
17.71
18.34
18.96
19.38
19.38
18.85
17.84
16.49
15.0
13.52
12.14
10.8
9.4
7.89
6.25
4.59
3.01
1.58
0.28
-1.05
-2.55
-4.35
-6.45
-8.73
-11.01
-13.13
-15.05
-16.91
-18.92
-21.36
-24.37
-27.93
-31.82
-35.65
-38.94
-41.19
-41.96
-40.94
-38.03
-33.36
-27.35
-20.61
-13.81
-7.53
-2.12
2.37
6.07
9.22
11.96
14.28
16.11
17.33
17.97
18.15
18.11
18.08
18.21
18.54
19.01
19.51
19.96
20.31
20.55
20.69
20.74
20.66
20.43
20.0
19.39
18.59
17.62
16.45
15.06
13.41
11.54
9.53
7.52
5.65
3.95
2.42
0.94
-0.6
-2.31
-4.19
-6.21
-8.31
-10.44
-12.58
-14.74
-16.91
-19.06
-21.16
-23.25
-25.47
-28.0
-30.94
-34.22
-37.47
-40.08
-41.35
-40.77
-38.14
-33.7
-27.96
-21.58
-15.13
-8.95
-3.24
1.93
6.54
10.51
13.79
16.35
18.2
19.41
20.06
20.24
20.05
19.59
18.98
18.4
18.0
17.96
18.4
19.35
20.7
22.18
23.43
24.09
23.94
23.0
21.5
19.78
18.18
16.85
15.78
14.82
13.76
12.5
10.99
9.32
7.57
5.82
4.13
2.53
1.02
-0.4
-1.75
-3.09
-4.48
-5.98
-7.65
-9.48
-11.43
-13.48
-15.65
-18.02
-20.7
-23.75
-27.06
-30.32
-32.99
-34.45
-34.19
-31.98
-27.97
-22.67
-16.73
-10.77
-5.18
-0.11
4.44
8.51
12.04
14.89
16.87
17.92
18.13
17.77
17.2
16.69
16.37
16.18
16.01
15.82
15.71
15.92
16.6
17.75
19.07
20.16
20.6
20.24
19.21
17.83
16.44
15.21
14.15
13.09
11.89
10.44
8.71
6.75
4.61
2.42
0.3
-1.58
-3.14
-4.4
-5.55
-6.82
-8.45
-10.52
-12.95
-15.5
-17.93
-20.14
-22.15
-24.15
-26.42
-29.14
-32.36
-35.86
-39.2
-41.77
-42.91
-42.1
-39.13
-34.18
-27.8
-20.71
-13.67
-7.18
-1.52
3.32
7.45
11.01
14.07
16.62
18.58
19.89
20.5
20.46
19.92
19.15
18.43
18.04
18.13
18.66
19.48
20.39
21.22
21.87
22.32
22.57
22.6
22.34
21.73
20.74
19.46
18.02
16.6
15.31
14.15
12.99
11.66
10.01
8.06
5.97
4.01
2.38
1.18
0.28
-0.59
-1.69
-3.18
-5.09
-7.31
-9.67
-12.0
-14.24
-16.39
-18.52
-20.76
-23.22
-26.0
-29.12
-32.55
-36.1
-39.45
-42.15
-43.64
-43.38
-41.05
-36.66
-30.62
-23.62
-16.42
-9.62
-3.56
1.71
6.24
10.07
13.19
15.54
17.15
18.18
18.87
19.4
19.85
20.14
20.17
19.89
19.39
18.91
18.7
18.92
19.58
20.5
21.37
21.9
21.89
21.33
20.34
19.13
17.88
16.66
15.44
14.16
12.77
11.3
9.81
8.34
6.88
5.33
3.61
1.69
-0.35
-2.36
-4.23
-5.95
-7.57
-9.21
-10.93
-12.71
-14.43
-15.96
-17.26
-18.38
-19.55
-21.0
-22.97
-25.57
-28.82
-32.5
-36.19
-39.27
-41.05
-40.9
-38.49
-33.94
-27.8
-20.86
-13.94
-7.63
-2.23
2.27
6.02
9.16
11.76
13.82
15.35
16.39
17.05
17.47
17.77
17.98
18.1
18.09
17.97
17.85
17.86
18.13
18.65
19.28
19.78
19.97
19.72
19.1
18.22
17.24
16.23
15.19
14.1
12.94
11.73
10.5
9.24
7.93
6.54
5.08
3.67
2.42
1.37
0.43
-0.58
-1.85
-3.44
-5.2
-6.95
-8.48
-9.78
-10.95
-12.24
-13.85
-15.91
-18.45
-21.44
-24.76
-28.22
-31.47
-33.95
-35.07
-34.39
-31.75
-27.43
-21.97
-16.03
-10.18
-4.8
-0.09
3.87
7.1
9.64
11.6
13.12
14.32
15.21
15.74
15.83
15.46
14.78
14.07
13.61
13.58
13.94
14.51
15.11
15.61
16.0
16.31
16.51
16.51
16.12
15.21
13.77
12.0
10.19
8.63
7.45
6.57
5.73
4.66
3.23
1.5
-0.28
-1.86
-3.14
-4.23
-5.45
-7.1
-9.32
-11.98
-14.74
-17.23
-19.25
-20.84
-22.27
-23.9
-26.01
-28.7
-31.9
-35.25
-38.29
-40.44
-41.15
-40.04
-37.01
-32.27
-26.3
-19.73
-13.15
-7.01
-1.58
3.04
6.85
9.93
12.38
14.28
15.7
16.69
17.3
17.6
17.66
17.58
17.41
17.18
16.91
16.6
16.31
16.17
16.28
16.7
17.33
17.96
18.33
18.26
17.69
16.7
15.48
14.19
12.91
11.64
10.31
8.83
7.2
5.46
3.67
1.91
0.19
-1.5
-3.18
-4.89
-6.61
-8.37
-10.19
-12.15
-14.29
-16.66
-19.18
-21.77
-24.39
-27.07
-30.0
-33.29
-36.93
-40.58
-43.61
-45.29
-44.99
-42.48
-37.93
-31.89
-25.05
-18.07
-11.43
-5.39
-0.08
4.47
8.26
11.3
13.63
15.36
16.62
17.58
18.36
19.03
19.58
19.95
20.12
20.14
20.17
20.4
20.98
21.89
22.88
23.61
23.76
23.17
21.96
20.42
18.89
17.57
16.48
15.45
14.28
12.84
11.13
9.25
7.36
5.57
3.91
2.37
0.89
-0.58
-2.11
-3.77
-5.6
-7.62
-9.82
-12.16
-14.6
-17.08
-19.59
-22.13
-24.79
-27.63
-30.74
-34.09
-37.46
-40.38
-42.21
-42.28
-40.18
-35.88
-29.83
-22.75
-15.43
-8.52
-2.38
2.86
7.2
10.74
13.56
15.77
17.47
18.79
19.77
20.41
20.71
20.71
20.5
20.31
20.34
20.75
21.59
22.74
23.99
25.08
25.74
25.8
25.2
23.99
22.33
20.4
18.37
16.34
14.36
12.43
10.57
8.77
7.03
5.33
3.59
1.77
-0.2
-2.29
-4.44
-6.54
-8.48
-10.23
-11.85
-13.51
-15.39
-17.67
-20.45
-23.77
-27.54
-31.53
-35.3
-38.27
-39.79
-39.36
-36.79
-32.26
-26.31
-19.6
-12.76
-6.26
-0.32
4.92
9.43
13.18
16.13
18.3
19.72
20.53
20.87
20.95
20.93
20.91
20.91
20.86
20.73
20.58
20.54
20.74
21.23
21.88
22.45
22.67
22.4
21.64
20.54
19.24
17.81
16.22
14.38
12.27
9.94
7.49
5.09
2.84
0.79
-1.03
-2.65
-4.12
-5.52
-7.02
-8.8
-10.98
-13.59
-16.44
-19.29
-21.94
-24.36
-26.76
-29.5
-32.83
-36.7
-40.64
-43.85
-45.44
-44.78
-41.68
-36.47
-29.81
-22.5
-15.22
-8.4
-2.26
3.13
7.78
11.68
14.86
17.35
19.28
20.76
21.9
22.71
23.14
23.17
22.85
22.36
21.97
21.96
22.45
23.35
24.43
25.37
25.91
25.91
25.38
24.4
23.09
21.59
20.02
18.54
17.27
16.27
15.49
14.77
13.84
12.46
10.53
8.14
5.53
3.03
0.88
-0.86
-2.34
-3.82
-5.55
-7.65
-10.02
-12.48
-14.81
-16.94
-18.97
-21.08
-23.49
-26.35
-29.7
-33.51
-37.56
-41.48
-44.67
-46.43
-46.07
-43.23
-38.01
-31.01
-23.14
-15.36
-8.33
-2.38
2.52
6.61
10.14
13.26
16.0
18.3
20.09
21.35
22.11
22.45
22.51
22.42
22.32
22.31
22.45
22.79
23.34
24.09
24.94
25.74
26.25
26.29
25.71
24.53
22.9
21.02
19.09
17.24
15.52
13.89
12.33
10.79
9.28
7.8
6.39
5.07
3.86
2.75
1.7
0.63
-0.54
-1.9
-3.46
-5.22
-7.11
-9.05
-10.95
-12.75
-14.44
-16.11
-17.91
-20.06
-22.72
-25.99
-29.72
-33.52
-36.75
-38.66
-38.6
-36.22
-31.64
-25.37
-18.21
-10.97
-4.3
1.47
6.21
10.0
12.98
15.3
17.07
18.4
19.32
19.85
20.0
19.79
19.29
18.66
18.08
17.68
17.58
17.8
18.31
19.01
19.76
20.39
20.75
20.73
20.3
19.5
18.44
17.22
15.91
14.53
13.05
11.45
9.77
8.07
6.45
4.98
3.68
2.51
1.32
-0.01
-1.57
-3.36
-5.33
-7.37
-9.4
-11.4
-13.38
-15.39
-17.49
-19.71
-22.13
-24.83
-27.9
-31.34
-34.94
-38.23
-40.55
-41.18
-39.67
-36.0
-30.61
-24.22
-17.61
-11.34
-5.68
-0.65
3.79
7.7
11.02
13.7
15.69
17.0
17.71
17.94
17.82
17.51
17.13
16.81
16.67
16.79
17.22
17.96
18.96
20.08
21.13
21.9
22.18
21.88
21.03
19.76
18.28
16.77
15.38
14.12
12.94
11.72
10.33
8.71
6.87
4.94
3.07
1.36
-0.14
-1.5
-2.82
-4.13
-5.47
-6.81
-8.15
-9.55
-11.13
-13.01
-15.22
-17.7
-20.33
-22.98
-25.68
-28.56
-31.77
-35.29
-38.83
-41.76
-43.35
-42.97
-40.32
-35.61
-29.39
-22.45
-15.51
-9.13
-3.62
0.96
4.65
7.6
9.95
11.84
13.34
14.47
15.21
15.53
15.46
15.12
14.65
14.26
14.12
14.38
15.08
16.15
17.43
18.64
19.53
19.87
19.59
18.74
17.51
16.13
14.8
13.63
12.63
11.72
10.78
9.7
8.41
6.9
5.25
3.57
2.01
0.65
-0.51
-1.53
-2.52
-3.57
-4.72
-5.96
-7.28
-8.66
-10.14
-11.76
-13.53
-15.45
-17.49
-19.64
-21.92
-24.43
-27.28
-30.56
-34.22
-37.98
-41.3
-43.5
-43.91
-42.13
-38.16
-32.43
-25.65
-18.57
-11.77
-5.57
-0.07
4.7
8.73
11.93
14.31
15.9
16.91
17.52
17.86
17.97
17.8
17.35
16.7
16.05
15.6
15.51
15.78
16.34
17.06
17.78
18.4
18.79
18.86
18.57
17.93
17.06
16.07
15.1
14.17
13.25
12.27
11.16
9.87
8.44
6.93
5.43
4.07
2.93
2.0
1.15
0.17
-1.16
-2.93
-5.09
-7.45
-9.78
-11.96
-13.96
-15.89
-17.9
-20.13
-22.73
-25.74
-29.08
-32.42
-35.23
-36.83
-36.58
-34.14
-29.59
-23.44
-16.47
-9.5
-3.15
2.23
6.57
9.97
12.59
14.56
15.96
16.81
17.08
16.81
16.09
15.16
14.28
13.7
13.58
13.88
14.42
14.96
15.32
15.44
15.38
15.23
15.05
14.87
14.6
14.14
13.39
12.28
10.8
8.99
6.97
4.89
2.91
1.13
-0.39
-1.72
-2.94
-4.22
-5.68
-7.41
-9.4
-11.58
-13.83
-16.05
-18.18
-20.24
-22.31
-24.49
-26.92
-29.69
-32.9
-36.48
-40.17
-43.47
-45.68
-46.1
-44.27
-40.13
-34.09
-26.84
-19.19
-11.78
-5.03
0.86
5.81
9.81
12.88
15.12
16.68
17.73
18.44
18.86
19.02
18.95
18.76
18.6
18.64
18.99
19.59
20.28
20.85
21.16
21.15
20.84
20.29
19.53
18.58
17.49
16.38
15.34
14.41
13.49
12.36
10.78
8.64
6.08
3.38
0.88
-1.22
-2.95
-4.53
-6.2
-8.11
-10.22
-12.37
-14.39
-16.22
-17.94
-19.78
-21.96
-24.68
-28.0
-31.84
-35.92
-39.78
-42.79
-44.31
-43.83
-41.13
-36.4
-30.16
-23.14
-16.01
-9.25
-3.12
2.33
7.08
11.09
14.29
16.63
18.14
18.96
19.29
19.36
19.31
19.25
19.21
19.22
19.3
19.47
19.74
20.13
20.64
21.24
21.83
22.31
22.54
22.41
21.91
21.1
20.11
19.03
17.91
16.73
15.4
13.85
12.04
9.99
7.79
5.61
3.6
1.92
0.59
-0.55
-1.77
-3.36
-5.5
-8.11
-10.9
-13.55
-15.85
-17.83
-19.79
-22.05
-24.87
-28.36
-32.42
-36.81
-41.08
-44.6
-46.65
-46.54
-43.85
-38.63
-31.43
-23.16
-14.79
-7.12
-0.56
4.81
9.15
12.65
15.5
17.83
19.73
21.26
22.45
23.28
23.7
23.66
23.23
22.55
21.9
21.53
21.66
22.28
23.26
24.33
25.18
25.55
25.31
24.47
23.18
21.68
20.22
18.96
17.9
16.86
15.62
14.02
12.06
9.92
7.85
6.05
4.52
3.13
1.65
-0.1
-2.13
-4.34
-6.56
-8.67
-10.64
-12.55
-14.51
-16.68
-19.18
-22.1
-25.45
-29.15
-32.9
-36.22
-38.48
-39.08
-37.6
-34.01
-28.67
-22.23
-15.42
-8.81
-2.69
2.9
8.01
12.61
16.52
19.49
21.34
22.09
21.99
21.44
20.81
20.32
20.05
19.96
20.02
20.22
20.54
20.95
21.37
21.68
21.81
21.66
21.22
20.47
19.42
18.14
16.73
15.33
14.07
12.98
11.96
10.84
9.46
7.75
5.78
3.71
1.75
0.01
-1.5
-2.89
-4.33
-6.01
-8.01
-10.27
-12.63
-14.93
-17.07
-19.12
-21.3
-23.84
-26.91
-30.52
-34.52
-38.6
-42.35
-45.29
-46.87
-46.56
-43.99
-39.12
-32.36
-24.5
-16.42
-8.9
-2.36
3.15
7.77
11.64
14.82
17.22
18.82
19.73
20.19
20.51
20.89
21.37
21.87
22.26
22.5
22.63
22.74
22.89
23.08
23.26
23.38
23.39
23.27
22.94
22.32
21.32
19.93
18.26
16.51
14.9
13.52
12.35
11.27
10.09
8.68
7.0
5.13
3.2
1.34
-0.43
-2.16
-3.97
-5.98
-8.19
-10.55
-12.92
-15.17
-17.23
-19.16
-21.07
-23.11
-25.43
-28.13
-31.28
-34.91
-38.85
-42.71
-45.82
-47.36
-46.64
-43.33
-37.66
-30.36
-22.37
-14.56
-7.48
-1.31
4.02
8.64
12.63
15.93
18.47
20.2
21.2
21.62
21.66
21.52
21.33
21.18
21.06
20.99
20.97
21.05
21.29
21.71
22.29
22.92
23.45
23.7
23.56
23.01
22.09
20.9
19.56
18.19
16.84
15.52
14.2
12.82
11.32
9.69
7.98
6.26
4.62
3.11
1.7
0.27
-1.33
-3.18
-5.26
-7.42
-9.49
-11.38
-13.13
-14.92
-16.91
-19.24
-21.97
-25.06
-28.47
-32.1
-35.71
-38.86
-40.91
-41.23
-39.38
-35.4
-29.73
-23.11
-16.29
-9.81
-3.89
1.4
6.08
10.11
13.39
15.82
17.38
18.17
18.38
18.21
17.87
17.49
17.16
16.95
16.88
16.97
17.25
17.69
18.27
18.92
19.52
19.92
19.98
19.64
18.88
17.8
16.55
15.3
14.14
13.08
12.01
10.75
9.13
7.1
4.74
2.29
-0.0
-1.89
-3.34
-4.43
-5.41
-6.53
-7.97
-9.77
-11.86
-14.08
-16.29
-18.36
-20.27
-22.12
-24.05
-26.25
-28.91
-32.1
-35.71
-39.39
-42.59
-44.63
-44.87
-42.93
-38.8
-32.89
-25.85
-18.43
-11.24
-4.7
1.0
5.86
9.9
13.19
15.78
17.71
19.04
19.8
20.09
20.04
19.8
19.55
19.42
19.5
19.79
20.25
20.82
21.42
21.98
22.43
22.71
22.75
22.54
22.06
21.33
20.36
19.19
17.88
16.49
15.11
13.83
12.61
11.38
9.98
8.26
6.17
3.78
1.31
-0.98
-2.9
-4.41
-5.64
-6.83
-8.24
-10.0
-12.06
-14.31
-16.56
-18.72
-20.79
-22.85
-25.03
-27.44
-30.17
-33.29
-36.82
-40.65
-44.45
-47.68
-49.6
-49.55
-47.11
-42.24
-35.38
-27.3
-18.85
-10.79
-3.61
2.45
7.42
11.41
14.58
17.05
18.92
20.3
21.22
21.71
21.81
21.56
21.07
20.54
20.14
20.04
20.28
20.78
21.4
21.98
22.42
22.68
22.78
22.74
22.54
22.11
21.39
20.29
18.81
17.01
15.02
13.01
11.15
9.49
8.0
6.59
5.2
3.81
2.46
1.18
-0.06
-1.39
-2.96
-4.89
-7.18
-9.71
-12.27
-14.71
-16.94
-19.01
-21.06
-23.27
-25.79
-28.74
-32.13
-35.82
-39.44
-42.4
-43.96
-43.44
-40.48
-35.19
-28.16
-20.28
-12.46
-5.39
0.59
5.44
9.32
12.42
14.92
16.92
18.49
19.68
20.48
20.91
20.97
20.69
20.18
19.58
19.04
18.67
18.55
18.68
19.04
19.53
20.04
20.44
20.61
20.47
19.94
18.98
17.66
16.08
14.41
12.81
11.34
9.97
8.57
7.0
5.22
3.29
1.39
-0.35
-1.88
-3.28
-4.76
-6.48
-8.52
-10.79
-13.16
-15.48
-17.69
-19.83
-22.08
-24.65
-27.71
-31.3
-35.25
-39.15
-42.42
-44.42
-44.58
-42.59
-38.5
-32.67
-25.71
-18.31
-11.08
-4.5
1.19
5.9
9.67
12.59
14.73
16.16
16.97
17.28
17.26
17.12
17.02
17.0
17.06
17.15
17.29
17.58
18.13
18.98
20.07
21.16
22.0
22.37
22.15
21.38
20.2
18.76
17.25
15.78
14.41
13.12
11.83
10.39
8.69
6.72
4.57
2.43
0.45
-1.32
-2.95
-4.59
-6.39
-8.37
-10.49
-12.59
-14.57
-16.39
-18.16
-20.07
-22.34
-25.13
-28.52
-32.43
-36.65
-40.78
-44.26
-46.47
-46.83
-45.0
-40.99
-35.19
-28.25
-20.94
-13.88
-7.44
-1.73
3.28
7.68
11.44
14.47
16.67
18.07
18.81
19.14
19.3
19.43
19.53
19.6
19.65
19.78
20.14
20.77
21.59
22.41
22.98
23.14
22.85
22.21
21.36
20.41
19.42
18.38
17.28
16.07
14.74
13.27
11.67
9.99
8.3
6.65
5.07
3.54
2.02
0.47
-1.17
-2.94
-4.88
-6.96
-9.17
-11.42
-13.64
-15.79
-17.9
-20.1
-22.59
-25.55
-29.08
-33.16
-37.5
-41.6
-44.75
-46.2
-45.37
-42.05
-36.53
-29.49
-21.81
-14.25
-7.31
-1.21
4.05
8.5
12.17
15.1
17.39
19.16
20.52
21.5
22.07
22.21
22.0
21.64
21.4
21.45
21.89
22.65
23.59
24.6
25.59
26.41
26.92
26.94
26.38
25.29
23.85
22.28
20.75
19.28
17.76
16.07
14.13
11.97
9.73
7.58
5.61
3.85
2.21
0.52
-1.36
-3.46
-5.74
-8.06
-10.28
-12.39
-14.44
-16.57
-18.92
-21.55
-24.46
-27.62
-30.93
-34.26
-37.36
-39.77
-40.92
-40.23
-37.37
-32.38
-25.76
-18.31
-10.89
-4.2
1.42
5.99
9.72
12.82
15.45
17.59
19.16
20.11
20.45
20.33
19.95
19.48
19.1
18.9
18.93
19.22
19.76
20.53
21.43
22.34
23.11
23.6
23.69
23.34
22.53
21.36
19.95
18.45
16.98
15.55
14.1
12.5
10.63
8.47
6.13
3.78
1.59
-0.37
-2.09
-3.68
-5.25
-6.9
-8.67
-10.59
-12.66
-14.88
-17.2
-19.59
-22.02
-24.49
-27.09
-29.94
-33.18
-36.78
-40.48
-43.74
-45.8
-45.95
-43.75
-39.21
-32.82
-25.38
-17.76
-10.6
-4.26
1.23
5.97
10.09
13.64
16.54
18.72
20.12
20.82
20.99
20.87
20.69
20.57
20.55
20.61
20.75
20.98
21.32
21.8
22.36
22.9
23.3
23.44
23.27
22.76
21.95
20.89
19.65
18.29
16.85
15.33
13.71
11.95
10.04
7.97
5.82
3.7
1.75
0.09
-1.28
-2.42
-3.56
-4.87
-6.49
-8.44
-10.59
-12.8
-14.96
-17.1
-19.28
-21.62
-24.22
-27.13
-30.38
-33.96
-37.76
-41.49
-44.61
-46.41
-46.26
-43.77
-39.05
-32.63
-25.33
-17.96
-11.12
-5.07
0.16
4.68
8.6
11.98
14.81
17.08
18.75
19.84
20.39
20.52
20.37
20.15
20.09
20.32
20.88
21.68
22.55
23.31
23.84
24.09
24.04
23.69
23.0
21.97
20.62
19.07
17.45
15.88
14.41
13.0
11.56
10.04
8.41
6.71
5.03
3.44
2.01
0.77
-0.36
-1.51
-2.85
-4.52
-6.53
-8.75
-10.97
-13.02
-14.86
-16.59
-18.42
-20.56
-23.15
-26.26
-29.8
-33.53
-37.02
-39.71
-40.94
-40.21
-37.28
-32.33
-25.89
-18.71
-11.48
-4.77
1.13
6.11
10.23
13.56
16.19
18.12
19.35
19.89
19.79
19.23
18.47
17.76
17.27
17.04
16.96
16.95
16.96
17.08
17.37
17.85
18.39
18.75
18.75
18.3
17.51
16.53
15.52
14.5
13.39
12.07
10.48
8.64
6.63
4.56
2.48
0.42
-1.66
-3.8
-6.04
-8.4
-10.84
-13.25
-15.52
-17.62
-19.61
-21.66
-23.95
-26.61
-29.66
-33.02
-36.44
-39.52
-41.79
-42.71
-41.81
-38.89
-34.07
-27.83
-20.85
-13.81
-7.23
-1.38
3.64
7.84
11.27
13.97
15.96
17.31
18.11
18.48
18.53
18.44
18.31
18.24
18.22
18.21
18.15
18.03
17.88
17.75
17.62
17.42
17.06
16.51
15.77
14.95
14.13
13.34
12.5
11.55
10.42
9.1
7.59
5.92
4.15
2.34
0.67
-0.72
-1.73
-2.47
-3.17
-4.15
-5.63
-7.67
-10.14
-12.84
-15.54
-18.1
-20.48
-22.77
-25.16
-27.94
-31.34
-35.42
-39.92
-44.23
-47.47
-48.82
-47.7
-44.03
-38.19
-30.92
-23.04
-15.27
-8.15
-1.95
3.26
7.54
11.03
13.88
16.24
18.2
19.79
21.01
21.81
22.19
22.19
21.95
21.66
21.49
21.57
21.94
22.58
23.4
24.26
24.96
25.3
25.1
24.32
23.04
21.45
19.79
18.21
16.75
15.3
13.73
11.94
9.97
7.92
5.89
3.92
1.97
-0.02
-2.1
-4.25
-6.41
-8.56
-10.67
-12.76
-14.85
-16.91
-18.97
-21.13
-23.55
-26.43
-29.83
-33.54
-37.06
-39.66
-40.61
-39.42
-36.0
-30.69
-24.1
-16.98
-9.99
-3.62
1.93
6.64
10.62
13.99
16.78
18.95
20.44
21.24
21.45
21.28
20.95
20.65
20.5
20.52
20.69
21.03
21.53
22.15
22.77
23.22
23.34
23.06
22.42
21.5
20.39
19.11
17.64
15.98
14.14
12.19
10.19
8.17
6.1
3.99
1.86
-0.23
-2.23
-4.14
-6.03
-7.99
-10.03
-12.12
-14.2
-16.27
-18.44
-20.87
-23.74
-27.13
-30.89
-34.64
-37.77
-39.59
-39.47
-37.11
-32.6
-26.45
-19.44
-12.33
-5.7
0.18
5.26
9.58
13.17
16.01
18.09
19.46
20.19
20.44
20.3
19.91
19.35
18.77
18.29
18.04
18.07
18.37
18.87
19.45
19.97
20.31
20.36
20.06
19.4
18.4
17.1
15.54
