0
38.49
35.03
31.26
27.29
23.2
19.11
15.17
11.47
7.99
4.51
0.75
-3.53
-8.38
-13.62
-18.91
-23.92
-28.48
-32.69
-36.84
-41.39
-46.84
-53.63
-61.98
-71.62
-81.63
-90.39
-95.98
-96.61
-91.37
-80.56
-65.71
-49.01
-32.72
-18.44
-6.84
2.27
9.58
15.86
21.69
27.36
32.91
38.2
42.99
47.01
49.97
51.63
51.95
51.13
49.63
48.06
47.03
46.88
47.58
48.72
49.68
49.88
48.97
46.96
44.15
41.02
37.97
35.2
32.7
30.27
27.63
24.62
21.2
17.48
13.6
9.69
5.75
1.68
-2.71
-7.54
-12.8
-18.32
-23.85
-29.11
-33.91
-38.26
-42.37
-46.63
-51.6
-57.79
-65.58
-74.86
-84.78
-93.79
-99.82
-100.99
-96.18
-85.6
-70.76
-53.98
-37.58
-23.2
-11.44
-2.04
5.77
12.71
19.25
25.55
31.57
37.23
42.34
46.64
49.83
51.63
51.98
51.07
49.4
47.53
46.01
45.19
45.17
45.8
46.76
47.6
47.92
47.46
46.18
44.29
42.11
39.96
37.98
36.1
34.04
31.5
28.3
24.41
20.05
15.55
11.24
7.29
3.59
-0.19
-4.46
-9.52
-15.35
-21.58
-27.63
-33.04
-37.61
-41.6
-45.57
-50.14
-55.84
-62.95
-71.38
-80.57
-89.46
-96.51
-99.96
-98.31
-90.92
-78.35
-62.32
-45.13
-29.02
-15.4
-4.73
3.44
9.93
15.59
21.04
26.55
32.12
37.56
42.52
46.64
49.58
51.22
51.65
51.17
50.21
49.17
48.4
48.11
48.35
48.97
49.66
50.01
49.63
48.32
46.12
43.27
40.11
36.85
33.55
30.04
26.14
21.78
17.09
12.42
8.12
4.36
1.06
-2.1
-5.56
-9.61
-14.28
-19.33
-24.34
-28.95
-33.02
-36.68
-40.35
-44.64
-50.17
-57.36
-66.17
-75.86
-84.98
-91.53
-93.58
-89.89
-80.45
-66.56
-50.39
-34.31
-20.12
-8.63
0.24
7.17
12.95
18.11
22.87
27.16
30.84
33.73
35.75
36.97
37.55
37.69
37.62
37.46
37.3
37.18
37.21
37.52
38.21
39.14
39.96
40.13
39.14
36.79
33.28
29.14
24.98
21.19
17.85
14.69
11.33
7.42
2.81
-2.39
-7.83
-13.11
-17.9
-22.08
-25.76
-29.38
-33.48
-38.64
-45.29
-53.49
-62.77
-71.99
-79.46
-83.29
-82.01
-75.15
-63.5
-48.9
-33.61
-19.59
-7.94
1.21
8.37
14.26
19.53
24.53
29.36
33.94
38.01
41.22
43.31
44.19
44.04
43.26
42.31
41.53
41.09
41.01
41.18
41.46
41.65
41.52
40.8
39.27
36.89
33.75
30.1
26.17
22.17
18.21
14.42
10.83
7.39
3.92
0.12
-4.27
-9.31
-14.73
-20.04
-24.81
-28.86
-32.43
-36.06
-40.37
-45.86
-52.84
-61.27
-70.7
-80.13
-87.98
-92.43
-91.89
-85.66
-74.37
-59.79
-44.27
-29.91
-17.93
-8.5
-1.02
5.37
11.4
17.41
23.48
29.46
35.07
39.96
43.78
46.23
47.27
47.11
46.23
45.19
44.53
44.56
45.31
46.54
47.81
48.67
48.7
47.73
45.77
43.03
39.79
36.34
32.87
29.45
26.12
22.87
19.69
16.58
13.5
10.35
6.95
3.1
-1.31
-6.27
-11.55
-16.83
-21.84
-26.46
-30.84
-35.29
-40.17
-45.87
-52.68
-60.71
-69.7
-78.79
-86.5
-90.99
-90.62
-84.65
-73.6
-59.22
-43.75
-29.27
-17.0
-7.21
0.54
6.95
12.65
18.08
23.43
28.69
33.68
38.05
41.4
43.42
44.09
43.64
42.52
41.18
40.04
39.35
39.23
39.63
40.35
41.07
41.44
41.16
40.08
38.19
35.63
32.58
29.29
25.98
22.81
19.85
17.06
14.2
10.97
7.06
2.36
-3.04
-8.8
-14.51
-19.76
-24.36
-28.32
-31.92
-35.59
-39.89
-45.32
-52.19
-60.33
-68.96
-76.62
-81.49
-81.91
-76.97
-66.94
-53.28
-38.14
-23.66
-11.38
-1.84
5.25
10.71
15.36
19.76
24.04
28.05
31.51
34.18
35.98
36.92
37.11
36.7
35.87
34.83
33.86
33.27
33.25
33.78
34.58
35.13
34.88
33.43
30.67
26.84
22.44
18.02
13.98
10.42
7.13
3.75
-0.07
-4.45
-9.25
-14.13
-18.71
-22.78
-26.42
-29.96
-33.95
-38.93
-45.23
-52.78
-60.99
-68.63
-74.12
-75.9
-72.98
-65.28
-53.76
-40.14
-26.32
-13.86
-3.61
4.34
10.46
15.4
19.78
23.92
27.88
31.51
34.54
36.76
38.12
38.68
38.66
38.28
37.7
37.03
36.38
35.85
35.57
35.61
35.85
36.02
35.7
34.52
32.33
29.25
25.66
22.02
18.71
15.79
13.01
9.91
6.04
1.17
-4.52
-10.59
-16.46
-21.73
-26.3
-30.4
-34.5
-39.14
-44.78
-51.74
-59.99
-69.02
-77.69
-84.35
-87.23
-85.1
-77.75
-66.21
-52.35
-38.28
-25.56
-14.9
-6.15
1.3
8.15
14.8
21.34
27.62
33.35
38.24
42.06
44.67
46.11
46.51
46.12
45.18
43.96
42.73
41.75
41.19
41.11
41.39
41.73
41.73
41.05
39.49
37.05
33.88
30.26
26.5
22.86
19.53
16.56
13.78
10.88
7.48
3.32
-1.65
-7.17
-12.8
-18.1
-22.84
-27.01
-30.91
-35.01
-39.89
-46.06
-53.72
-62.6
-71.74
-79.61
-84.4
-84.63
-79.69
-70.08
-57.34
-43.45
-30.2
-18.73
-9.34
-1.65
4.98
11.17
17.3
23.47
29.57
35.31
40.28
44.04
46.26
46.83
45.98
44.2
42.1
40.24
38.97
38.39
38.4
38.77
39.18
39.27
38.69
37.15
34.61
31.22
27.37
23.54
20.09
17.13
14.53
11.93
8.96
5.35
1.03
-3.78
-8.73
-13.38
-17.48
-20.98
-24.16
-27.5
-31.55
-36.76
-43.25
-50.84
-58.83
-66.06
-71.09
-72.55
-69.56
-62.17
-51.41
-39.0
-26.72
-15.87
-6.94
0.29
6.43
11.99
17.2
22.02
26.3
29.89
32.74
34.81
36.07
36.52
36.23
35.42
34.4
33.52
33.06
33.07
33.44
33.85
33.86
33.07
31.26
28.5
25.1
21.51
18.12
15.1
12.36
9.6
6.52
2.91
-1.25
-5.81
-10.49
-14.99
-19.17
-23.07
-27.02
-31.54
-37.15
-44.04
-51.83
-59.46
-65.47
-68.34
-67.05
-61.44
-52.2
-40.7
-28.53
-17.03
-7.03
1.24
8.02
13.73
18.77
23.32
27.38
30.78
33.33
34.96
35.73
35.87
35.62
35.19
34.6
33.83
32.87
31.79
30.83
30.22
30.09
30.27
30.36
29.84
28.31
25.7
22.32
18.68
15.29
12.41
9.97
7.64
4.99
1.68
-2.34
-6.88
-11.55
-15.93
-19.76
-23.02
-25.94
-28.88
-32.26
-36.46
-41.74
-48.09
-55.15
-62.09
-67.68
-70.53
-69.51
-64.23
-55.21
-43.81
-31.75
-20.54
-11.03
-3.37
2.84
8.18
13.12
17.89
22.5
26.84
30.74
33.95
36.24
37.47
37.65
37.01
35.96
34.95
34.3
34.13
34.35
34.78
35.17
35.33
35.05
34.2
32.68
30.52
27.83
24.82
21.65
18.46
15.27
12.11
8.99
5.94
2.98
0.03
-3.05
-6.35
-9.88
-13.49
-16.97
-20.18
-23.11
-25.95
-28.91
-32.28
-36.3
-41.15
-46.96
-53.57
-60.43
-66.47
-70.32
-70.69
-66.91
-59.21
-48.71
-37.01
-25.63
-15.57
-7.16
-0.2
5.76
11.09
16.04
20.69
25.01
28.92
32.25
34.82
36.43
36.98
36.58
35.49
34.16
32.99
32.32
32.26
32.73
33.5
34.23
34.66
34.55
33.85
32.58
30.85
28.72
26.24
23.43
20.3
16.93
13.47
10.1
6.92
3.93
0.97
-2.14
-5.5
-9.09
-12.74
-16.26
-19.52
-22.6
-25.67
-28.97
-32.66
-36.88
-41.79
-47.47
-53.88
-60.57
-66.56
-70.53
-71.19
-67.79
-60.47
-50.28
-38.72
-27.29
-16.94
-8.04
-0.46
6.1
11.93
17.16
21.8
25.75
28.91
31.19
32.59
33.2
33.19
32.71
31.9
30.87
29.7
28.55
27.61
27.05
26.85
26.81
26.5
25.52
23.6
20.77
17.38
13.9
10.79
8.27
6.26
4.46
2.41
-0.22
-3.54
-7.39
-11.4
-15.22
-18.65
-21.76
-24.77
-28.06
-32.01
-36.9
-42.87
-49.7
-56.74
-62.86
-66.63
-66.81
-62.78
-54.9
-44.41
-32.98
-22.11
-12.75
-5.11
1.1
6.37
11.12
15.64
20.0
24.09
27.63
30.29
31.81
32.14
31.58
30.6
29.7
29.18
29.09
29.34
29.76
30.27
30.79
31.22
31.36
30.9
29.57
27.25
24.01
20.18
16.23
12.64
9.71
7.43
5.48
3.36
0.56
-3.15
-7.66
-12.59
-17.5
-22.02
-26.06
-29.73
-33.3
-37.14
-41.69
-47.32
-54.13
-61.67
-68.83
-74.02
-75.68
-72.86
-65.69
-55.38
-43.73
-32.49
-22.8
-14.92
-8.46
-2.75
2.74
8.23
13.59
18.5
22.65
25.85
28.11
29.57
30.45
30.97
31.29
31.48
31.62
31.79
32.05
32.47
32.99
33.45
33.63
33.33
32.46
31.07
29.27
27.2
24.93
22.52
19.97
17.33
14.69
12.11
9.57
6.93
3.93
0.31
-4.03
-8.98
-14.16
-19.17
-23.66
-27.58
-31.18
-34.94
-39.38
-44.94
-51.75
-59.51
-67.39
-74.17
-78.44
-79.01
-75.3
-67.62
-57.03
-45.05
-33.17
-22.44
-13.3
-5.69
0.78
6.56
12.02
17.31
22.41
27.12
31.2
34.39
36.58
37.83
38.34
38.36
38.13
37.9
37.86
38.2
39.02
40.3
41.8
43.11
43.79
43.49
42.09
39.72
36.66
33.24
29.77
26.42
23.27
20.26
17.2
13.82
9.86
5.17
-0.14
-5.74
-11.2
-16.21
-20.66
-24.74
-28.76
-33.13
-38.19
-44.17
-51.11
-58.75
-66.42
-72.94
-76.91
-77.02
-72.64
-64.04
-52.43
-39.54
-27.01
-15.92
-6.59
1.23
8.06
14.31
20.1
25.29
29.61
32.81
34.84
35.82
35.94
35.48
34.69
33.8
33.05
32.62
32.62
33.03
33.65
34.13
34.09
33.2
31.39
28.8
25.79
22.7
19.8
17.12
14.48
11.58
8.18
4.16
-0.36
-5.15
-9.91
-14.39
-18.51
-22.31
-26.07
-30.21
-35.27
-41.64
-49.32
-57.62
-65.21
-70.4
-71.65
-68.17
-60.19
-48.87
-35.91
-22.95
-11.19
-1.15
7.15
14.04
19.9
25.06
29.72
33.88
37.36
39.95
41.39
41.67
41.02
39.86
38.65
37.7
37.11
36.79
36.59
36.4
36.16
35.85
35.39
34.56
33.1
30.87
27.88
24.33
20.62
17.07
13.84
10.88
7.93
4.69
0.94
-3.33
-7.94
-12.55
-16.8
-20.49
-23.64
-26.48
-29.46
-33.15
-38.1
-44.7
-52.88
-62.03
-70.85
-77.62
-80.62
-78.74
-71.84
-60.88
-47.58
-33.92
-21.52
-11.24
-3.14
3.31
8.87
14.19
19.6
25.08
30.34
35.02
38.79
41.49
43.14
43.89
43.95
43.63
43.19
42.88
42.83
43.1
43.63
44.27
44.89
45.36
45.51
45.19
44.23
42.55
40.16
37.21
33.88
30.35
26.74
23.11
19.47
15.8
12.02
7.96
3.46
-1.58
-7.09
-12.75
-18.2
-23.15
-27.59
-31.83
-36.32
-41.62
-48.11
-55.82
-64.28
-72.49
-78.99
-82.2
-80.96
-74.93
-64.82
-52.16
-38.78
-26.18
-15.14
-5.75
2.39
9.7
16.48
22.75
28.46
33.48
37.73
41.14
43.58
44.96
45.25
44.63
43.4
42.02
40.97
40.53
40.76
41.43
42.13
42.4
41.94
40.64
38.63
36.12
33.34
30.43
27.43
24.39
21.35
18.4
15.53
12.65
9.61
6.21
2.39
-1.77
-6.0
-10.04
-13.67
-16.86
-19.78
-22.83
-26.52
-31.35
-37.59
-45.14
-53.37
-61.12
-66.92
-69.38
-67.63
-61.6
-52.11
-40.6
-28.63
-17.49
-7.92
-0.06
6.3
11.55
16.02
19.94
23.4
26.37
28.71
30.32
31.11
31.17
30.75
30.18
29.79
29.8
30.27
31.12
32.19
33.26
34.09
34.42
33.93
32.38
29.69
26.04
21.86
17.67
13.95
10.86
8.2
5.55
2.43
-1.39
-5.78
-10.33
-14.49
-17.93
-20.69
-23.16
-25.97
-29.74
-34.84
-41.25
-48.42
-55.37
-60.81
-63.51
-62.56
-57.72
-49.53
-39.12
-27.91
-17.22
-7.92
-0.33
5.73
10.7
15.07
19.13
23.0
26.57
29.64
32.04
33.66
34.53
34.78
34.62
34.26
33.9
33.69
33.7
33.95
34.34
34.68
34.73
34.28
33.24
31.64
29.66
27.51
25.34
23.18
20.93
18.44
15.66
12.67
9.69
6.92
4.44
2.15
-0.2
-2.87
-6.02
-9.65
-13.64
-17.81
-22.02
-26.18
-30.29
-34.42
-38.8
-43.7
-49.37
-55.73
-62.23
-67.76
-70.92
-70.52
-66.04
-57.88
-47.18
-35.48
-24.19
-14.21
-5.84
1.07
6.87
11.93
16.51
20.69
24.47
27.74
30.35
32.13
32.95
32.87
32.05
30.83
29.6
28.68
28.31
28.54
29.25
30.16
30.94
31.31
31.06
30.15
28.73
27.02
25.24
23.54
21.94
20.29
18.37
16.03
13.27
10.28
7.32
4.64
2.32
0.23
-1.9
-4.32
-7.18
-10.46
-14.02
-17.72
-21.41
-25.1
-28.94
-33.08
-37.79
-43.24
-49.45
-56.1
-62.49
-67.53
-70.03
-69.03
-64.12
-55.67
-44.71
-32.68
-20.98
-10.66
-2.22
4.36
9.45
13.58
17.17
20.52
23.68
26.51
28.74
30.15
30.65
30.37
29.63
28.79
28.09
27.64
27.37
27.18
27.04
26.96
26.97
27.02
26.93
26.46
25.42
23.73
21.51
18.95
16.25
13.58
10.99
8.48
5.97
3.37
0.55
-2.55
-5.9
-9.37
-12.72
-15.77
-18.45
-20.89
-23.35
-26.15
-29.61
-33.91
-39.11
-44.99
-50.96
-55.99
-58.84
-58.43
-54.2
-46.48
-36.37
-25.37
-14.92
-5.95
1.21
6.7
10.94
14.31
17.11
19.44
21.29
22.59
23.31
23.48
23.25
22.84
22.42
22.1
21.93
21.92
22.07
22.39
22.81
23.19
23.33
23.04
22.16
20.65
18.56
16.0
13.2
10.43
7.94
5.88
4.13
2.35
0.15
-2.73
-6.19
-9.87
-13.3
-16.16
-18.4
-20.26
-22.16
-24.52
-27.74
-32.13
-37.87
-44.79
-52.24
-59.01
-63.6
-64.67
-61.5
-54.36
-44.4
-33.25
-22.52
-13.26
-5.82
0.07
4.94
9.35
13.62
17.77
21.67
25.12
27.95
30.07
31.43
31.98
31.75
30.88
29.63
28.41
27.65
27.64
28.42
29.75
31.17
32.17
32.29
31.33
29.41
26.86
24.13
21.6
19.48
17.75
16.16
14.49
12.54
10.27
7.74
5.05
2.31
-0.42
-3.12
-5.75
-8.32
-10.84
-13.3
-15.71
-18.05
-20.39
-22.9
-25.94
-29.94
-35.28
-42.01
-49.66
-57.22
-63.28
-66.47
-65.84
-61.16
-53.04
-42.69
-31.59
-21.0
-11.69
-3.96
2.31
7.39
11.56
15.1
18.28
21.32
24.38
27.34
29.88
31.6
32.28
32.02
31.28
30.65
30.55
31.04
31.9
32.78
33.39
33.63
33.43
32.79
31.69
30.16
28.32
26.39
24.58
22.94
21.44
19.88
18.08
15.97
13.6
11.07
8.57
6.16
3.84
1.52
-0.93
-3.65
-6.59
-9.61
-12.5
-15.12
-17.5
-19.91
-22.69
-26.2
-30.64
-36.04
-42.14
-48.34
-53.65
-56.85
-56.81
-52.92
-45.39
-35.35
-24.41
-14.18
-5.74
0.61
5.18
8.57
11.31
13.73
15.94
17.94
19.67
21.07
22.09
22.7
22.89
22.7
22.18
21.46
20.68
20.05
19.75
19.89
20.41
21.08
21.57
21.55
20.83
19.33
17.15
14.49
11.54
8.52
5.6
2.95
0.64
-1.34
-3.1
-4.77
-6.47
-8.26
-10.1
-11.92
-13.69
-15.53
-17.72
-20.65
-24.66
-29.78
-35.5
-40.75
-44.16
-44.53
-41.32
-34.88
-26.35
-17.22
-8.77
-1.71
3.84
8.18
11.66
14.55
16.98
18.99
20.69
22.12
23.31
24.15
24.49
24.29
23.61
22.67
21.75
21.07
20.78
20.84
21.14
21.47
21.59
21.27
20.35
18.8
16.71
14.25
11.61
8.92
6.26
3.73
1.43
-0.57
-2.3
-3.96
-5.78
-8.0
-10.63
-13.5
-16.27
-18.62
-20.46
-21.91
-23.29
-25.06
-27.6
-31.16
-35.74
-40.95
-46.01
-49.83
-51.3
-49.6
-44.57
-36.8
-27.42
-17.77
-8.98
-1.71
3.85
7.9
10.77
12.83
14.42
15.8
17.19
18.65
20.08
21.27
21.93
21.8
20.81
19.11
17.06
15.13
13.72
13.05
13.16
13.86
14.88
15.92
16.73
17.14
17.09
16.56
15.6
14.24
12.52
10.52
8.34
6.1
4.0
2.11
0.49
-0.99
-2.53
-4.38
-6.64
-9.28
-12.1
-14.86
-17.34
-19.47
-21.38
-23.31
-25.63
-28.68
-32.66
-37.46
-42.52
-46.88
-49.37
-48.97
-45.28
-38.61
-29.97
-20.72
-12.14
-5.06
0.25
3.95
6.46
8.22
9.58
10.82
12.13
13.63
15.29
16.96
18.38
19.29
19.53
19.17
18.48
17.8
17.42
17.45
17.78
18.18
18.39
18.21
17.6
16.61
15.35
13.95
12.51
11.11
9.74
8.4
7.01
5.54
4.0
2.5
1.17
0.05
-0.94
-2.09
-3.71
-5.98
-8.84
-11.96
-14.91
-17.36
-19.22
-20.66
-22.04
-23.75
-26.1
-29.3
-33.35
-37.92
-42.34
-45.6
-46.65
-44.77
-39.9
-32.74
-24.47
-16.33
-9.24
-3.62
0.59
3.67
5.99
7.81
9.37
10.8
12.15
13.37
14.33
14.85
14.87
14.42
13.72
13.02
12.5
12.3
12.42
12.78
13.28
13.81
14.25
14.41
14.09
13.09
11.32
8.89
6.08
3.3
0.88
-1.02
-2.53
-4.0
-5.81
-8.13
-10.93
-13.93
-16.79
-19.28
-21.37
-23.26
-25.27
-27.75
-30.95
-35.01
-39.75
-44.64
-48.77
-51.07
-50.55
-46.76
-39.98
-31.2
-21.77
-12.97
-5.62
0.08
4.37
7.7
10.47
12.9
15.01
16.74
17.98
18.68
18.89
18.74
18.36
17.92
17.53
17.3
17.27
17.53
18.12
18.99
19.97
20.82
21.24
21.02
20.11
18.61
16.73
14.64
12.47
10.28
8.08
5.96
3.99
2.25
0.76
-0.57
-1.95
-3.61
-5.75
-8.48
-11.69
-15.21
-18.81
-22.37
-25.91
-29.58
-33.64
-38.27
-43.63
-49.69
-56.16
-62.33
-67.19
-69.54
-68.4
-63.4
-54.98
-44.37
-33.13
-22.66
-13.76
-6.6
-0.82
4.08
8.52
12.7
16.6
20.12
23.13
25.59
27.54
29.1
30.4
31.5
32.4
33.07
33.56
34.05
34.81
36.0
37.55
39.12
40.27
40.59
39.98
38.62
36.86
35.06
33.35
31.69
29.85
27.62
24.96
21.95
18.89
16.06
13.63
11.49
9.24
6.43
2.74
-1.81
-6.86
-11.88
-16.46
-20.45
-23.98
-27.41
-31.19
-35.74
-41.36
-48.15
-55.74
-63.29
-69.41
-72.57
-71.56
-65.94
-56.26
-43.9
-30.59
-17.9
-6.88
2.08
9.1
14.59
19.1
23.1
26.93
30.74
34.55
38.16
41.33
43.85
45.58
46.54
46.86
46.7
46.32
45.93
45.74
45.84
46.23
46.75
47.15
47.14
46.54
45.3
43.59
41.64
39.74
38.03
36.47
34.86
33.0
30.78
28.28
25.69
23.18
20.72
18.09
14.99
11.2
6.75
1.89
-3.05
-7.75
-12.06
-16.0
-19.78
-23.67
-28.02
-33.21
-39.45
-46.54
-53.75
-59.82
-63.33
-63.08
-58.59
-50.3
-39.48
-27.77
-16.69
-7.22
0.35
6.33
11.27
15.71
19.95
24.03
27.8
31.03
33.55
35.18
35.87
35.7
34.86
33.68
32.54
31.77
31.52
31.81
32.5
33.41
34.3
34.89
34.9
34.05
32.22
29.53
26.36
23.15
20.26
17.77
15.49
13.09
10.31
7.03
3.37
-0.44
-4.16
-7.61
-10.74
-13.62
-16.39
-19.24
-22.43
-26.2
-30.7
-35.83
-41.16
-45.85
-48.75
-48.84
-45.52
-38.94
-29.98
-20.0
-10.32
-1.87
5.03
10.5
14.94
18.63
21.76
24.3
26.22
27.49
28.16
28.3
28.07
27.61
27.08
26.61
26.26
25.99
25.72
25.41
25.08
24.79
24.62
24.58
24.61
24.53
24.09
23.06
21.32
18.89
15.98
12.92
10.04
7.5
5.25
3.03
0.54
-2.4
-5.8
-9.42
-13.0
-16.3
-19.2
-21.75
-24.06
-26.34
-28.84
-31.83
-35.54
-40.01
-44.93
-49.54
-52.75
-53.5
-51.04
-45.36
-37.21
-27.85
-18.68
-10.69
-4.33
0.49
4.2
7.29
10.07
12.68
15.17
17.48
19.54
21.19
22.29
22.69
22.38
21.52
20.42
19.51
19.05
19.13
19.58
20.09
20.37
20.24
19.65
18.66
17.38
15.9
14.32
12.74
11.21
9.76
8.3
6.72
4.92
2.93
0.86
-1.1
-2.86
-4.48
-6.12
-7.98
-10.15
-12.58
-15.1
-17.57
-19.9
-22.17
-24.57
-27.33
-30.74
-34.93
-39.8
-44.81
-49.06
-51.43
-51.0
-47.37
-40.9
-32.57
-23.62
-15.17
-7.87
-1.91
2.85
6.76
10.05
12.9
15.35
17.4
18.97
20.06
20.67
20.87
20.78
20.48
20.06
19.58
19.12
18.84
18.83
19.14
19.67
20.21
20.48
20.3
19.64
18.54
17.18
15.74
14.31
12.9
11.4
9.6
7.36
4.64
1.65
-1.22
-3.56
-5.17
-6.17
-6.94
-8.01
-9.71
-12.12
-15.0
-17.97
-20.69
-22.97
-24.84
-26.55
-28.43
-30.94
-34.42
-38.91
-43.98
-48.72
-51.89
-52.35
-49.5
-43.51
-35.29
-26.17
-17.43
-9.98
-4.19
0.02
2.95
4.97
6.43
7.62
8.79
10.14
11.74
13.49
15.19
16.57
17.45
17.76
17.63
17.23
16.76
16.33
15.99
15.71
15.43
15.08
14.55
13.69
12.39
10.62
8.54
6.37
4.4
2.85
1.73
0.9
0.12
-0.8
-2.03
-3.57
-5.42
-7.51
-9.79
-12.21
-14.75
-17.4
-20.24
-23.39
-27.04
-31.39
-36.54
-42.38
-48.42
-53.75
-57.18
-57.63
-54.53
-48.08
-39.31
-29.67
-20.5
-12.69
-6.44
-1.5
2.54
5.98
9.03
11.72
14.11
16.21
18.02
19.49
20.55
21.22
21.58
21.79
22.01
22.3
22.65
23.03
23.41
23.81
24.2
24.52
24.68
24.56
24.05
23.05
21.46
19.23
16.4
13.15
9.81
6.72
4.09
1.88
-0.09
-2.16
-4.56
-7.38
-10.57
-13.98
-17.48
-20.98
-24.44
-27.85
-31.3
-34.99
-39.21
-44.27
-50.3
-57.0
-63.54
-68.56
-70.67
-68.83
-62.86
-53.47
-42.1
-30.45
-19.82
-10.89
-3.7
2.14
7.1
11.52
15.53
19.16
22.37
25.09
27.27
28.87
29.86
30.3
30.33
30.21
30.19
30.53
31.37
32.69
34.34
36.03
37.41
38.14
38.0
37.0
35.3
33.18
30.84
28.36
25.64
22.55
19.02
15.16
11.31
7.82
4.98
2.81
1.04
-0.76
-3.08
-6.14
-9.92
-14.08
-18.22
-22.02
-25.47
-28.82
-32.59
-37.3
-43.33
-50.72
-59.01
-67.26
-74.12
-78.11
-78.09
-73.59
-65.05
-53.73
-41.29
-29.29
-18.84
-10.33
-3.59
1.89
6.7
11.27
15.84
20.42
24.89
28.95
32.34
34.85
36.43
37.24
37.63
37.93
38.45
39.36
40.63
42.14
43.69
45.04
45.98
46.31
45.88
44.7
42.88
40.68
38.39
36.21
34.19
32.19
30.0
27.41
24.38
21.03
17.58
14.24
11.04
7.83
4.35
0.38
-4.19
-9.25
-14.51
-19.65
-24.45
-28.91
-33.24
-37.84
-43.19
-49.72
-57.62
-66.57
-75.61
-83.15
-87.35
-86.71
-80.66
-69.84
-55.93
-41.05
-27.09
-15.16
-5.53
2.16
8.48
13.96
18.95
23.72
28.39
33.01
37.4
41.26
44.25
46.15
47.03
47.23
47.2
47.31
47.79
48.65
49.75
50.9
51.89
52.43
52.23
51.06
48.89
45.94
42.63
39.42
36.59
34.12
31.75
29.13
26.01
22.42
18.63
14.97
11.72
8.86
6.11
3.05
-0.66
-5.08
-9.97
-14.89
-19.45
-23.52
-27.28
-31.14
-35.61
-41.19
-48.18
-56.65
-66.12
-75.55
-83.31
-87.57
-86.82
-80.53
-69.38
-55.11
-39.88
-25.57
-13.3
-3.34
4.6
11.04
16.45
21.18
25.48
29.53
33.36
36.82
39.65
41.59
42.51
42.54
42.06
41.53
41.32
41.67
42.55
43.81
45.15
46.23
46.69
46.26
44.71
42.02
38.35
34.0
29.4
24.98
21.02
17.56
14.41
11.17
7.48
3.09
-1.95
-7.43
-13.01
-18.35
-23.25
-27.66
-31.72
-35.74
-40.25
-45.83
-52.89
-61.31
-70.15
-77.76
-82.11
-81.53
-75.31
-64.06
-49.47
-33.71
-18.81
-6.07
4.06
11.79
17.74
22.62
27.0
31.22
35.41
39.34
42.73
45.2
46.58
46.88
46.37
45.46
44.63
44.3
44.72
45.87
47.42
48.74
49.21
48.33
46.02
42.53
38.4
34.11
30.01
26.19
22.57
19.06
15.6
12.21
8.88
5.55
2.0
-1.98
-6.54
-11.61
-16.93
-22.09
-26.69
-30.56
-33.85
-37.07
-40.86
-45.91
-52.63
-61.04
-70.55
-79.93
-87.4
-91.11
-89.6
-82.44
-70.44
-55.4
-39.56
-24.82
-12.28
-2.12
6.05
12.87
18.89
24.43
29.67
34.68
39.39
43.62
47.05
49.38
50.48
50.43
49.57
48.39
47.33
46.73
46.73
47.29
48.15
48.91
49.1
48.39
46.68
44.12
41.1
37.97
34.97
32.07
29.09
25.85
22.27
18.45
14.58
10.87
7.36
3.92
0.35
-3.55
-7.85
-12.5
-17.3
-22.04
-26.55
-30.73
-34.63
-38.41
-42.4
-47.05
-52.87
-60.16
-68.76
-77.8
-85.67
-90.42
-90.33
-84.59
-73.63
-59.04
-43.05
-27.8
-14.71
-4.34
3.56
9.66
14.73
19.41
24.11
28.95
33.77
38.18
41.74
44.13
45.25
45.32
44.7
43.78
42.85
42.12
41.67
41.55
41.75
42.14
42.48
42.49
41.95
40.75
38.96
36.77
34.33
31.73
28.95
25.93
22.65
19.2
15.71
12.28
8.84
5.17
1.03
-3.74
-9.01
-14.45
-19.6
-24.15
-28.01
-31.47
-34.99
-39.11
-44.29
-50.79
-58.51
-66.84
-74.6
-80.15
-81.85
-78.6
-70.32
-58.14
-43.99
-29.95
-17.6
-7.64
0.08
6.16
11.26
15.83
20.07
24.01
27.6
30.7
33.15
34.78
35.56
35.63
35.29
34.85
34.51
34.37
34.39
34.57
34.92
35.42
35.91
36.07
35.5
33.91
31.23
27.68
23.71
19.82
16.39
13.58
11.24
8.98
6.32
2.88
-1.49
-6.59
-11.97
-17.1
-21.62
-25.46
-28.82
-32.11
-35.81
-40.36
-46.11
-53.15
-61.08
-68.98
-75.32
-78.5
-77.24
-71.11
-60.75
-47.61
-33.53
-20.16
-8.6
0.71
7.89
13.4
17.9
21.97
26.03
30.2
34.29
37.91
40.61
42.1
42.38
41.7
40.47
39.12
37.97
37.18
36.76
36.56
36.43
36.18
35.7
34.91
33.76
32.21
30.17
27.67
24.75
21.58
18.35
15.24
12.3
9.52
6.8
3.99
0.97
-2.39
-6.16
-10.36
-14.9
-19.56
-24.1
-28.33
-32.19
-35.89
-39.84
-44.6
-50.65
-58.19
-66.75
-75.16
-81.64
-84.34
-82.02
-74.53
-62.95
-49.21
-35.36
-22.94
-12.58
-4.2
2.69
8.64
14.03
19.09
23.93
28.59
32.96
36.83
39.89
41.9
42.78
42.64
41.78
40.58
39.39
38.47
38.0
37.97
38.2
38.38
38.16
37.28
35.68
33.52
31.08
28.64
26.38
24.31
22.31
20.21
17.89
15.35
12.72
10.18
7.83
5.61
3.23
0.31
-3.49
-8.22
-13.66
-19.3
-24.58
-29.09
-32.77
-35.86
-38.93
-42.67
-47.74
-54.48
-62.66
-71.28
-78.68
-82.96
-82.56
-76.86
-66.46
-52.93
-38.39
-24.77
-13.34
-4.5
2.06
7.04
11.18
15.06
18.97
22.91
26.71
30.05
32.64
34.3
34.98
34.84
34.15
33.25
32.46
31.99
31.93
32.22
32.69
33.11
33.28
33.03
32.3
31.02
29.2
26.84
24.03
20.92
17.72
14.6
11.66
8.78
5.77
2.41
-1.4
-5.57
-9.88
-14.07
-17.95
-21.47
-24.71
-27.82
-31.01
-34.57
-38.83
-44.14
-50.63
-57.97
-65.15
-70.61
-72.72
-70.33
-63.29
-52.54
-39.81
-26.93
-15.28
-5.56
2.23
8.41
13.4
17.56
21.12
24.24
26.93
29.16
30.77
31.67
31.91
31.69
31.37
31.22
31.39
31.84
32.44
33.08
33.72
34.32
34.8
35.0
34.67
33.63
31.77
29.16
25.98
22.54
19.09
15.79
12.67
9.62
6.44
2.95
-0.96
-5.24
-9.76
-14.33
-18.78
-23.02
-27.02
-30.88
-34.77
-39.03
-44.05
-50.2
-57.59
-65.78
-73.69
-79.72
-82.21
-80.02
-72.97
-62.0
-48.85
-35.51
-23.49
-13.48
-5.41
1.27
7.17
12.7
18.05
23.21
28.13
32.63
36.46
39.25
40.73
40.87
39.98
38.58
37.3
36.57
36.54
37.08
37.89
38.66
39.08
38.91
38.0
36.33
34.03
31.38
28.63
25.9
23.15
20.29
17.23
14.05
10.89
7.82
4.81
1.7
-1.67
-5.35
-9.24
-13.13
-16.83
-20.28
-23.52
-26.67
-29.89
-33.4
-37.49
-42.52
-48.73
-56.06
-63.91
-71.11
-76.16
-77.57
-74.42
-66.68
-55.34
-42.12
-28.94
-17.29
-7.91
-0.74
4.82
9.45
13.72
17.9
22.05
26.06
29.74
32.84
35.07
36.24
36.38
35.77
34.93
34.39
34.51
35.32
36.61
37.94
38.93
39.23
38.67
37.27
35.2
32.8
30.38
28.21
26.35
24.67
22.95
20.98
18.6
15.83
12.76
9.57
6.37
3.25
0.13
-3.13
-6.72
-10.69
-14.99
-19.37
-23.6
-27.55
-31.34
-35.33
-40.02
-45.84
-52.96
-61.02
-69.1
-75.75
-79.36
-78.64
-73.1
-63.29
-50.68
-37.11
-24.23
-13.07
-3.91
3.47
9.52
14.65
19.15
23.23
26.98
30.36
33.18
35.14
36.0
35.75
34.62
33.06
31.49
30.22
29.43
29.12
29.19
29.47
29.73
29.66
29.01
27.66
25.67
23.28
20.77
18.38
16.22
14.25
12.28
10.09
7.41
4.08
0.08
-4.39
-9.0
-13.37
-17.24
-20.56
-23.55
-26.61
-30.29
-35.06
-41.25
-48.72
-56.82
-64.27
-69.47
-70.89
-67.62
-59.75
-48.34
-35.11
-21.8
-9.72
0.5
8.77
15.31
20.38
24.23
27.1
29.22
30.83
32.07
32.96
33.4
33.35
32.86
32.11
31.33
30.72
30.41
30.42
30.69
31.11
31.52
31.66
31.22
29.97
27.78
24.76
21.22
17.55
14.14
11.18
8.63
6.25
3.7
0.69
-2.89
-6.92
-11.14
-15.2
-18.88
-22.13
-25.07
-27.96
-31.16
-35.04
-39.97
-46.13
-53.35
-60.97
-67.79
-72.31
-73.18
-69.6
-61.7
-50.52
-37.69
-24.95
-13.65
-4.5
2.46
7.67
11.83
15.6
19.4
23.37
27.32
30.88
33.64
35.36
36.03
35.85
35.19
34.4
33.78
33.52
33.69
34.21
34.91
35.48
35.63
35.12
33.89
32.02
29.65
26.99
24.2
21.38
18.6
15.9
13.29
10.74
8.13
5.34
2.21
-1.4
-5.53
-10.1
-14.92
-19.67
-24.02
-27.77
-30.89
-33.64
-36.46
-39.91
-44.49
-50.35
-57.17
-64.02
-69.42
-71.79
-69.93
-63.52
-53.31
-40.92
-28.24
-16.82
-7.43
-0.08
5.69
10.43
14.52
18.17
21.46
24.45
27.16
29.54
31.51
32.96
33.85
34.29
34.47
34.57
34.73
35.04
35.54
36.19
36.9
37.47
37.63
37.13
35.81
33.69
30.9
27.66
24.19
20.66
17.21
13.92
10.81
7.9
5.11
2.39
-0.36
-3.24
-6.32
-9.61
-13.03
-16.43
-19.64
-22.56
-25.33
-28.36
-32.21
-37.39
-44.04
-51.72
-59.39
-65.6
-68.88
-68.19
-63.22
-54.49
-43.22
-30.95
-19.16
-8.89
-0.61
5.77
10.66
14.57
17.94
21.03
23.93
26.62
28.95
30.77
31.9
32.23
31.81
30.79
29.44
28.11
27.08
26.55
26.55
26.96
27.46
27.61
27.02
25.45
22.92
19.76
16.43
13.36
10.75
8.57
6.54
4.36
1.84
-1.08
-4.24
-7.4
-10.34
-12.94
-15.34
-17.92
-21.24
-25.89
-32.18
-39.94
-48.36
-56.09
-61.59
-63.5
-61.13
-54.63
-45.01
-33.81
-22.59
-12.54
-4.16
2.64
8.32
13.35
18.0
22.25
25.93
28.86
30.92
32.09
32.44
32.1
31.28
30.24
29.28
28.59
28.27
28.28
28.54
28.92
29.32
29.58
29.52
28.85
27.32
24.86
21.6
17.94
14.32
11.1
8.41
6.1
3.78
1.04
-2.43
-6.69
-11.46
-16.26
-20.58
-24.11
-26.93
-29.48
-32.4
-36.31
-41.55
-48.1
-55.47
-62.67
-68.43
-71.32
-70.18
-64.57
-54.95
-42.66
-29.53
-17.27
-7.0
0.94
6.87
11.42
15.22
18.68
22.0
25.22
28.24
30.84
32.8
33.91
34.14
33.64
32.72
31.69
30.8
30.2
30.0
30.23
30.84
31.64
32.28
32.36
31.61
30.01
27.75
25.18
22.52
19.89
17.22
14.44
11.49
8.4
5.2
1.84
-1.76
-5.64
-9.72
-13.78
-17.57
-20.87
-23.7
-26.28
-28.95
-32.14
-36.24
-41.53
-48.07
-55.51
-62.99
-69.17
-72.51
-71.73
