0
29.85
30.3
30.36
29.82
28.65
26.9
24.77
22.49
20.25
18.22
16.42
14.8
13.19
11.38
9.25
6.71
3.84
0.77
-2.32
-5.18
-7.65
-9.68
-11.38
-13.04
-15.05
-17.61
-20.67
-23.87
-26.69
-28.73
-29.95
-30.7
-31.59
-33.26
-36.18
-40.48
-45.89
-51.67
-56.75
-59.82
-59.67
-55.6
-47.73
-36.99
-24.98
-13.37
-3.48
4.07
9.33
12.87
15.39
17.45
19.37
21.18
22.77
24.03
24.93
25.58
26.1
26.63
27.14
27.54
27.75
27.77
27.79
28.01
28.61
29.49
30.31
30.58
29.9
28.18
25.68
22.92
20.45
18.59
17.34
16.37
15.21
13.42
10.9
7.84
4.76
2.18
0.45
-0.5
-1.04
-1.74
-3.02
-5.0
-7.5
-10.21
-12.84
-15.33
-17.72
-20.1
-22.51
-24.97
-27.63
-30.76
-34.66
-39.4
-44.5
-49.0
-51.58
-51.05
-46.75
-38.89
-28.47
-16.99
-5.97
3.41
10.6
15.64
18.95
21.06
22.4
23.19
23.56
23.59
23.42
23.26
23.24
23.37
23.54
23.58
23.46
23.26
23.14
23.28
23.74
24.41
25.07
25.4
25.17
24.24
22.65
20.59
18.36
16.26
14.5
13.1
11.9
10.63
9.01
6.93
4.45
1.82
-0.64
-2.71
-4.29
-5.59
-6.99
-8.92
-11.61
-14.96
-18.53
-21.76
-24.24
-25.93
-27.26
-28.84
-31.32
-35.05
-40.06
-45.92
-51.81
-56.6
-59.01
-57.89
-52.65
-43.55
-31.69
-18.77
-6.54
3.68
11.32
16.46
19.65
21.48
22.49
23.04
23.34
23.57
23.82
24.19
24.7
25.32
25.92
26.29
26.25
25.68
24.69
23.56
22.71
22.4
22.66
23.19
23.54
23.22
21.99
19.88
17.21
14.45
12.06
10.35
9.34
8.76
8.08
6.8
4.62
1.61
-1.83
-5.15
-7.96
-10.18
-12.07
-14.03
-16.43
-19.42
-22.88
-26.51
-29.89
-32.67
-34.72
-36.13
-37.27
-38.77
-41.18
-44.85
-49.72
-55.25
-60.45
-64.07
-64.85
-61.94
-55.19
-45.35
-33.9
-22.41
-11.75
-1.45
10.1
24.87
43.84
66.06
88.67
107.91
120.54
125.11
122.28
114.03
102.53
89.3
75.08
60.31
45.81
32.95
23.25
17.74
16.48
18.57
22.62
27.29
31.66
35.12
37.19
37.23
34.54
28.64
19.69
8.54
-3.32
-14.39
-23.49
-30.17
-34.64
-37.51
-39.47
-41.01
-42.42
-43.8
-45.18
-46.58
-47.99
-49.29
-50.32
-50.98
-51.29
-51.5
-52.02
-53.27
-55.64
-59.33
-64.39
-70.61
-77.42
-83.84
-88.54
-90.15
-87.64
-80.77
-70.14
-57.12
-43.36
-30.32
-18.96
-9.57
-2.08
3.82
8.43
11.95
14.54
16.38
17.71
18.78
19.89
21.19
22.69
24.18
25.44
26.25
26.65
26.84
27.13
27.75
28.69
29.68
30.33
30.24
29.15
27.04
24.12
20.76
17.39
14.34
11.78
9.62
7.54
5.17
2.24
-1.31
-5.27
-9.33
-13.2
-16.73
-19.9
-22.84
-25.88
-29.45
-33.99
-39.7
-46.19
-52.36
-56.59
-57.29
-53.5
-45.3
-33.77
-20.67
-7.74
3.69
12.95
19.93
24.85
28.04
29.83
30.5
30.29
29.45
28.29
27.11
26.22
25.8
25.88
26.32
26.87
27.3
27.48
27.32
26.82
25.93
24.66
23.03
21.04
18.69
15.96
12.8
9.2
5.24
1.05
-3.24
-7.53
-11.8
-16.05
-20.29
-24.58
-29.03
-33.92
-39.44
-45.5
-51.5
-56.27
-58.43
-56.85
-51.09
-41.67
-29.8
-17.03
-4.78
5.97
14.73
21.47
26.3
29.54
31.4
32.13
31.98
31.24
30.3
29.52
29.19
29.38
29.92
30.46
30.61
30.19
29.24
28.04
26.89
25.95
25.11
24.05
22.32
19.55
15.56
10.45
4.6
-1.46
-7.23
-12.36
-16.81
-20.83
-24.96
-29.74
-35.66
-42.85
-50.94
-58.97
-65.52
-69.05
-68.34
-62.9
-53.2
-40.52
-26.56
-12.91
-0.68
9.59
17.91
24.53
29.8
34.02
37.41
40.11
42.19
43.7
44.7
45.29
45.61
45.77
45.82
45.8
45.72
45.6
45.43
45.11
44.41
43.07
40.87
37.85
34.28
30.57
27.04
23.79
20.53
16.88
12.47
7.22
1.35
-4.65
-10.22
-15.06
-19.1
-22.64
-26.21
-30.43
-35.9
-42.9
-51.25
-60.12
-68.08
-73.31
-74.17
-69.76
-60.27
-47.06
-32.18
-17.7
-5.09
5.03
12.89
19.17
24.6
29.72
34.74
39.62
44.13
48.03
51.13
53.41
54.93
55.82
56.22
56.2
55.88
55.32
54.73
54.28
54.06
53.99
53.85
53.29
52.03
50.01
47.33
44.28
41.16
38.19
35.39
32.65
29.72
26.41
22.61
18.41
14.03
9.77
5.86
2.36
-0.82
-3.93
-7.25
-10.97
-15.17
-19.72
-24.41
-28.92
-33.02
-36.63
-39.85
-43.11
-47.0
-52.14
-58.81
-66.7
-74.69
-81.03
-83.88
-81.9
-74.82
-63.52
-49.75
-35.44
-22.23
-10.99
-1.91
5.25
10.92
15.51
19.38
22.89
26.3
29.77
33.22
36.4
39.01
40.82
41.8
42.13
42.11
42.07
42.22
42.65
43.26
43.81
43.97
43.47
42.16
40.11
37.56
34.89
32.45
30.43
28.83
27.49
26.14
24.52
22.5
20.04
17.31
14.57
12.08
10.02
8.29
6.63
4.66
2.16
-0.85
-4.1
-7.19
-9.85
-12.07
-14.12
-16.41
-19.24
-22.64
-26.4
-30.11
-33.42
-36.14
-38.31
-40.22
-42.3
-45.09
-49.03
-54.29
-60.56
-66.91
-71.91
-74.0
-71.97
-65.36
-54.77
-41.63
-27.78
-14.93
-4.24
3.84
9.5
13.3
15.96
18.0
19.77
21.37
22.8
24.08
25.22
26.3
27.32
28.21
28.82
29.02
28.88
28.61
28.52
28.81
29.45
30.11
30.37
29.87
28.51
26.48
24.15
21.92
20.06
18.59
17.35
16.04
14.46
12.57
10.56
8.66
7.06
5.7
4.4
2.86
0.95
-1.28
-3.63
-5.85
-7.83
-9.66
-11.55
-13.75
-16.4
-19.48
-22.81
-26.17
-29.28
-31.94
-34.12
-35.97
-37.86
-40.28
-43.75
-48.54
-54.5
-60.87
-66.36
-69.43
-68.7
-63.48
-54.03
-41.63
-28.13
-15.42
-4.82
3.12
8.61
12.25
14.67
16.34
17.49
18.22
18.73
19.2
19.86
20.81
21.93
23.0
23.81
24.26
24.46
24.7
25.22
26.11
27.23
28.22
28.63
28.16
26.74
24.6
22.15
19.81
17.83
16.29
15.1
14.07
13.06
11.96
10.6
8.92
6.83
4.35
1.66
-0.98
-3.32
-5.27
-6.94
-8.69
-10.87
-13.75
-17.3
-21.24
-25.15
-28.62
-31.43
-33.63
-35.54
-37.61
-40.39
-44.31
-49.55
-55.86
-62.42
-67.93
-70.81
-69.68
-63.87
-53.68
-40.45
-26.1
-12.66
-1.55
6.63
12.07
15.49
17.71
19.33
20.68
21.87
22.91
23.84
24.72
25.65
26.68
27.75
28.81
29.79
30.68
31.52
32.42
33.43
34.49
35.4
35.84
35.52
34.29
32.2
29.51
26.59
23.73
21.07
18.6
16.25
13.97
11.81
9.81
7.98
6.2
4.32
2.18
-0.22
-2.84
-5.54
-8.23
-10.84
-13.39
-15.91
-18.49
-21.28
-24.39
-27.89
-31.69
-35.57
-39.27
-42.65
-45.78
-49.0
-52.85
-57.78
-64.01
-71.2
-78.35
-83.91
-86.15
-83.7
-76.04
-63.83
-48.69
-32.68
-17.74
-5.12
4.71
11.92
16.98
20.43
22.76
24.45
25.89
27.43
29.2
31.07
32.83
34.19
35.03
35.4
35.54
35.71
36.17
37.03
38.26
39.63
40.78
41.36
41.1
40.0
38.28
36.33
34.45
32.77
31.17
29.44
27.33
24.81
22.03
19.27
16.76
14.6
12.7
10.85
8.82
6.46
3.78
0.94
-1.89
-4.58
-7.22
-10.02
-13.27
-17.14
-21.58
-26.32
-31.0
-35.36
-39.3
-42.94
-46.54
-50.42
-54.92
-60.45
-67.32
-75.45
-84.09
-91.7
-96.25
-95.8
-89.22
-76.71
-59.77
-40.73
-21.99
-5.46
7.85
17.72
24.55
28.97
31.73
33.55
34.94
36.28
37.72
39.23
40.71
42.0
42.95
43.46
43.51
43.23
42.89
42.82
43.28
44.3
45.62
46.78
47.3
46.89
45.53
43.48
41.11
38.77
36.6
34.56
32.49
30.24
27.76
25.1
22.39
19.68
16.96
14.12
11.09
7.88
4.66
1.61
-1.11
-3.58
-6.08
-8.98
-12.57
-16.92
-21.82
-26.87
-31.65
-35.86
-39.45
-42.57
-45.62
-49.16
-53.82
-60.13
-68.1
-76.94
-85.04
-90.19
-90.26
-84.01
-71.59
-54.59
-35.47
-16.77
-0.45
12.56
22.18
28.89
33.26
35.8
36.94
37.04
36.59
36.1
35.93
36.23
36.93
37.69
38.21
38.38
38.33
38.35
38.8
39.78
41.15
42.47
43.21
42.95
41.5
38.99
35.78
32.32
29.03
26.13
23.6
21.23
18.75
15.96
12.87
9.65
6.52
3.58
0.78
-2.09
-5.29
-8.94
-13.01
-17.32
-21.6
-25.63
-29.28
-32.58
-35.71
-39.06
-43.12
-48.4
-55.12
-62.9
-70.64
-76.64
-79.04
-76.39
-68.2
-55.14
-38.89
-21.61
-5.37
8.39
19.06
26.69
31.8
34.94
36.6
37.11
36.75
35.81
34.58
33.36
32.31
31.55
31.09
30.99
31.31
32.08
33.21
34.52
35.7
36.46
36.58
35.98
34.69
32.83
30.48
27.74
24.63
21.19
17.44
13.5
9.49
5.57
1.84
-1.76
-5.44
-9.48
-14.01
-18.96
-24.04
-28.92
-33.4
-37.52
-41.49
-45.56
-50.01
-55.14
-61.24
-68.55
-76.87
-85.23
-91.88
-94.71
-91.94
-82.92
-68.45
-50.53
-31.68
-14.12
0.74
12.39
20.98
27.06
31.22
33.96
35.75
36.99
38.0
39.04
40.25
41.59
42.84
43.7
43.95
43.6
42.98
42.54
42.7
43.59
44.96
46.27
46.84
46.21
44.22
41.07
37.25
33.4
30.02
27.34
25.15
22.92
20.06
16.25
11.61
6.63
1.94
-2.07
-5.34
-8.24
-11.25
-14.8
-19.11
-24.16
-29.74
-35.55
-41.32
-46.83
-52.03
-56.99
-62.04
-67.6
-74.2
-82.2
-91.46
-101.11
-109.4
-114.11
-113.13
-105.31
-90.96
-71.9
-50.78
-30.21
-12.04
2.96
14.85
24.1
31.19
36.52
40.5
43.61
46.33
49.01
51.73
54.33
56.54
58.14
59.15
59.73
60.12
60.57
61.27
62.28
63.5
64.66
65.36
65.28
64.23
62.27
59.65
56.69
53.63
50.53
47.34
43.98
40.43
36.8
33.23
29.87
26.74
23.73
20.61
17.14
13.23
8.97
4.66
0.6
-3.13
-6.71
-10.54
-15.05
-20.31
-26.1
-31.94
-37.35
-42.1
-46.26
-50.11
-54.08
-58.69
-64.57
-72.24
-81.71
-92.06
-101.4
-107.14
-106.94
-99.57
-85.43
-66.38
-45.11
-24.19
-5.52
9.88
21.76
30.39
36.34
40.31
43.06
45.18
47.09
48.92
50.6
52.03
53.09
53.73
53.9
53.69
53.25
52.91
52.96
53.56
54.59
55.7
56.35
56.19
55.1
53.25
51.0
48.67
46.42
44.22
41.89
39.17
35.91
32.16
28.18
24.32
20.92
18.09
15.74
13.57
11.26
8.56
5.46
2.06
-1.45
-4.98
-8.5
-12.12
-15.96
-20.12
-24.54
-29.0
-33.19
-36.81
-39.72
-42.06
-44.23
-46.79
-50.37
-55.51
-62.4
-70.76
-79.55
-87.04
-91.12
-89.9
-82.44
-69.21
-51.96
-33.27
-15.59
-0.69
10.72
18.74
23.93
26.95
28.39
28.75
28.56
28.28
28.28
28.68
29.43
30.3
31.04
31.45
31.52
31.4
31.33
31.57
32.23
33.19
34.14
34.67
34.42
33.2
31.11
28.41
25.46
22.63
20.14
18.05
16.24
14.47
12.43
9.89
6.82
3.35
-0.15
-3.29
-5.75
-7.52
-8.86
-10.31
-12.44
-15.63
-19.88
-24.82
-29.78
-34.12
-37.47
-39.89
-41.8
-43.91
-46.86
-51.21
-57.06
-64.06
-71.18
-76.93
-79.52
-77.54
-70.31
-58.28
-42.89
-26.22
-10.32
3.25
13.66
20.79
25.0
26.94
27.26
26.62
25.58
24.58
23.95
23.81
24.19
24.95
25.92
26.88
27.68
28.33
28.89
29.53
30.29
31.11
31.77
31.98
31.49
30.15
28.06
25.44
22.55
19.67
16.92
14.3
11.68
8.89
5.83
2.47
-1.02
-4.35
-7.28
-9.68
-11.68
-13.64
-15.99
-19.09
-23.01
-27.54
-32.29
-36.83
-40.93
-44.6
-48.03
-51.6
-55.77
-61.08
-67.92
-76.39
-85.86
-94.89
-101.37
-103.18
-98.86
-88.31
-72.83
-54.66
-36.27
-19.65
-5.85
4.86
12.76
18.39
22.37
25.29
27.73
30.09
32.55
35.0
37.17
38.84
39.99
40.8
41.58
42.6
43.96
45.58
47.25
48.69
49.71
50.15
49.91
48.96
47.35
45.14
42.52
39.67
36.85
34.25
31.95
29.86
27.8
25.5
22.74
19.47
15.73
11.65
7.39
3.12
-0.96
-4.69
-7.95
-10.89
-13.81
-17.19
-21.47
-26.77
-32.89
-39.3
-45.39
-50.73
-55.27
-59.42
-63.94
-69.73
-77.5
-87.37
-98.54
-109.27
-117.16
-119.85
-115.75
-104.63
-87.64
-67.0
-45.32
-24.92
-7.36
6.67
17.23
24.89
30.42
34.6
38.11
41.4
44.76
48.31
51.96
55.47
58.55
60.87
62.32
63.04
63.39
63.83
64.71
66.1
67.76
69.25
70.08
69.86
68.42
65.78
62.23
58.2
54.14
50.4
47.09
44.14
41.33
38.53
35.72
32.92
30.17
27.35
24.23
20.58
16.3
11.53
6.61
1.91
-2.31
-6.01
-9.42
-12.92
-16.89
-21.58
-27.01
-32.96
-39.03
-44.8
-50.02
-54.66
-58.95
-63.37
-68.67
-75.59
-84.51
-95.02
-105.59
-113.77
-116.81
-112.69
-100.93
-82.83
-61.02
-38.52
-17.82
-0.37
13.38
23.68
31.03
36.05
39.4
41.78
43.83
45.98
48.34
50.73
52.88
54.5
55.5
55.98
56.17
56.33
56.77
57.58
58.72
59.92
60.78
60.95
60.2
58.55
56.2
53.43
50.5
47.56
44.65
41.72
38.68
35.45
32.07
28.6
25.21
22.0
19.0
16.1
13.19
10.16
7.01
3.82
0.6
-2.7
-6.26
-10.26
-14.82
-19.87
-25.17
-30.38
-35.21
-39.48
-43.21
-46.57
-49.93
-53.83
-58.88
-65.54
-73.89
-83.22
-92.03
-98.2
-99.56
-94.58
-83.03
-66.05
-45.94
-25.38
-6.7
8.63
20.14
28.11
33.22
36.2
37.67
38.15
38.11
37.96
38.06
38.57
39.52
40.69
41.8
42.66
43.23
43.64
44.1
44.77
45.65
46.54
47.12
47.1
46.35
44.96
43.13
41.1
39.01
36.8
34.35
31.53
28.31
24.84
21.39
18.27
15.65
13.52
11.61
9.57
7.03
3.78
-0.16
-4.52
-8.91
-12.92
-16.39
-19.42
-22.34
-25.54
-29.3
-33.66
-38.4
-43.2
-47.76
-51.92
-55.79
-59.67
-64.09
-69.66
-76.82
-85.51
-94.81
-102.89
-107.38
-106.17
-98.14
-83.76
-64.86
-44.14
-24.21
-6.96
6.79
17.02
24.29
29.25
32.5
34.56
35.89
36.92
37.99
39.28
40.81
42.36
43.56
44.09
43.85
43.09
42.35
42.23
43.09
44.85
46.99
48.8
49.66
49.27
47.73
45.32
42.41
39.28
36.15
33.14
30.35
27.73
25.18
22.55
19.75
16.79
13.84
11.02
8.37
5.77
3.02
-0.02
-3.34
-6.74
-10.04
-13.14
-16.13
-19.3
-22.98
-27.38
-32.45
-37.9
-43.24
-48.06
-52.13
-55.59
-58.93
-62.91
-68.3
-75.61
-84.77
-94.82
-103.98
-109.9
-110.35
-104.0
-90.91
-72.63
-51.72
-30.98
-12.67
1.92
12.57
19.8
24.5
27.62
29.92
32.01
34.18
36.51
38.87
41.06
42.86
44.11
44.8
45.07
45.19
45.44
46.14
47.4
49.11
50.93
52.36
52.89
52.28
50.52
47.85
44.71
41.48
38.48
35.81
33.38
30.99
28.41
25.5
22.3
19.07
16.08
13.56
11.51
9.66
7.6
5.01
1.8
-1.79
-5.35
-8.53
-11.19
-13.48
-15.81
-18.63
-22.25
-26.71
-31.82
-37.14
-42.27
-46.87
-50.88
-54.46
-58.01
-62.1
-67.31
-74.0
-82.02
-90.54
-97.94
-102.17
-101.32
-94.26
-81.09
-63.21
-42.92
-22.72
-4.69
9.97
20.89
28.37
33.02
35.54
36.62
36.91
37.03
37.43
38.37
39.82
41.49
43.01
44.04
44.45
44.41
44.27
44.43
45.11
46.25
47.53
48.44
48.53
47.52
45.51
42.83
39.95
37.23
34.82
32.6
30.36
27.91
25.21
22.46
19.83
17.49
15.32
13.09
10.51
7.38
3.74
-0.17
-4.0
-7.5
-10.56
-13.36
-16.22
-19.5
-23.37
-27.81
-32.64
-37.53
-42.21
-46.54
-50.5
-54.27
-58.23
-62.93
-69.01
-76.91
-86.39
-96.35
-104.73
-109.06
-107.27
-98.44
-83.2
-63.54
-42.14
-21.59
-3.72
10.57
21.2
28.61
33.44
36.39
38.06
38.98
39.58
40.11
40.76
41.59
42.55
43.55
44.53
45.45
46.44
47.64
49.17
50.96
52.74
54.03
54.46
53.78
52.04
49.51
46.58
43.59
40.84
38.39
36.16
33.9
31.34
28.28
24.75
21.03
17.54
14.67
12.56
11.0
9.54
7.7
5.15
1.86
-1.93
-5.84
-9.53
-12.89
-16.07
-19.4
-23.27
-27.89
-33.19
-38.87
-44.52
-49.82
-54.64
-59.13
-63.59
-68.43
-74.22
-81.42
-90.24
-100.28
-110.22
-117.98
-121.15
-117.74
-107.0
-89.71
-67.98
-44.64
-22.38
-3.22
11.84
22.68
29.82
34.14
36.62
38.13
39.33
40.6
42.12
43.88
45.79
47.66
49.27
50.43
51.13
51.58
52.17
53.3
55.09
57.24
59.14
60.11
59.74
58.02
55.36
52.33
49.4
46.78
44.4
42.03
39.38
36.28
32.7
28.8
24.85
21.14
17.8
14.81
11.95
8.91
5.49
1.73
-2.15
-5.8
-9.06
-12.01
-15.08
-18.76
-23.42
-29.05
-35.27
-41.5
-47.24
-52.28
-56.74
-60.99
-65.56
-70.92
-77.57
-85.8
-95.49
-105.79
-114.96
-120.63
-120.43
-112.84
-97.86
-77.14
-53.51
-30.04
-9.24
7.52
19.97
28.64
34.39
38.12
40.54
42.28
43.82
45.53
47.58
49.96
52.41
54.56
56.1
56.86
56.99
56.87
56.95
57.55
58.71
60.1
61.22
61.56
60.81
59.01
56.44
53.44
50.3
47.15
43.97
40.7
37.37
34.02
30.8
27.81
25.03
22.4
19.75
16.86
13.54
9.69
5.42
0.99
-3.22
-6.97
-10.23
-13.25
-16.52
-20.55
-25.64
-31.76
-38.52
-45.25
-51.34
-56.34
-60.3
-63.75
-67.63
-73.04
-80.77
-90.82
-102.11
-112.48
-119.18
-119.64
-112.35
-97.36
-76.34
-52.14
-27.9
-6.22
11.3
24.25
33.01
38.47
41.54
43.02
43.6
43.84
44.2
44.95
46.19
47.74
49.27
50.46
51.08
51.17
50.95
50.8
51.03
51.84
53.14
54.61
55.72
55.92
54.82
52.34
48.71
44.4
39.97
35.76
31.89
28.2
24.48
20.51
16.29
11.92
7.63
3.64
0.07
-3.13
-6.19
-9.43
-13.24
-17.78
-22.99
-28.65
-34.35
-39.72
-44.58
-48.98
-53.22
-57.81
-63.4
-70.55
-79.51
-89.83
-100.18
-108.38
-111.95
-108.85
-98.29
-81.11
-59.59
-36.74
-15.33
2.81
16.96
27.37
34.68
39.55
42.47
43.84
44.09
43.75
43.32
43.07
42.97
42.78
42.22
41.26
40.19
39.47
39.56
40.58
42.32
44.24
45.7
46.22
45.56
43.68
40.72
36.85
32.28
27.2
21.88
16.59
11.57
6.97
2.71
-1.45
-5.88
-10.86
-16.51
-22.67
-28.99
-35.06
-40.6
-45.56
-50.19
-54.98
-60.62
-67.78
-76.8
-87.43
-98.59
-108.38
-114.44
-114.63
-107.68
-93.66
-74.03
-51.26
-28.15
-7.15
10.18
23.33
32.63
38.94
43.29
46.51
49.14
51.47
53.57
55.46
57.1
58.48
59.53
60.21
60.53
60.58
60.55
60.63
60.96
61.48
61.96
62.08
61.44
59.74
56.88
52.93
48.12
42.82
37.35
32.0
26.96
22.3
17.92
13.64
9.09
3.88
-2.2
-9.16
-16.69
-24.34
-31.64
-38.36
-44.49
-50.28
-56.14
-62.62
-70.37
-79.94
-91.4
-103.92
-115.59
-123.71
-125.59
-119.46
-105.28
-84.73
-60.74
-36.43
-14.34
4.08
18.49
29.29
37.3
43.4
48.38
52.88
57.27
61.7
66.03
69.99
73.2
75.34
76.23
76.04
75.21
74.38
74.11
74.65
75.76
76.88
77.32
76.62
74.63
71.56
67.8
63.73
59.61
55.54
51.53
47.53
43.51
39.49
35.56
31.83
28.38
25.11
21.81
18.15
13.87
9.02
3.9
-1.03
-5.46
-9.32
-13.04
-17.23
-22.46
-28.97
-36.47
-44.29
-51.63
-57.9
-62.93
-67.06
-71.03
-75.74
-82.12
-90.79
-101.8
-114.26
-126.3
-135.26
-138.39
-133.72
-120.78
-100.93
-76.9
-51.9
-28.72
-9.03
6.63
18.57
27.43
33.98
38.88
42.77
46.23
49.68
53.28
56.93
60.23
62.74
64.13
64.33
63.64
62.61
61.87
61.96
63.03
64.82
66.65
67.75
67.47
65.59
62.41
58.54
54.72
51.39
48.64
46.19
43.66
40.7
37.22
33.39
29.47
25.73
22.29
19.08
15.93
12.58
8.84
4.69
0.23
-4.28
-8.6
-12.53
-16.07
-19.44
-22.98
-27.07
-31.87
-37.37
-43.26
-49.15
-54.63
-59.53
-63.91
-68.15
-72.85
-78.72
-86.37
-95.94
-106.78
-117.22
-124.86
-127.09
-122.02
-109.17
-89.76
-66.38
-42.19
-20.03
-1.79
11.81
21.03
26.79
30.22
32.44
34.34
36.48
39.04
41.88
44.69
47.15
49.0
50.13
50.56
50.43
49.97
49.53
49.41
49.8
50.64
51.57
52.1
51.8
50.47
48.2
45.36
42.29
39.24
36.27
33.31
30.29
27.17
24.02
20.84
17.62
14.18
10.38
6.15
1.66
-2.74
-6.65
-9.86
-12.53
-15.07
-18.09
-22.01
-26.86
-32.33
-37.9
-43.12
-47.83
-52.16
-56.44
-61.17
-66.81
-73.76
-82.04
-91.03
-99.35
-104.95
-105.7
-100.07
-87.77
-70.02
-49.14
-27.84
-8.47
7.56
19.83
28.6
34.45
37.93
39.53
39.74
39.16
38.43
38.15
38.59
39.69
41.06
42.21
42.83
42.88
42.57
42.27
42.28
42.71
43.45
44.21
44.57
44.14
42.69
40.22
37.0
33.42
29.84
26.47
23.29
20.08
16.66
12.92
8.93
4.89
0.98
-2.63
-5.96
-9.14
-12.48
-16.36
-21.04
-26.56
-32.58
-38.56
-43.93
-48.38
-51.97
-55.16
-58.6
-63.01
-69.07
-77.18
-87.29
-98.5
-108.98
-116.19
-117.53
-111.29
-97.38
-77.43
-54.33
-31.28
-10.88
5.48
17.55
25.96
31.65
35.49
38.17
40.17
41.83
43.4
45.05
46.83
48.58
50.03
50.92
51.16
50.96
50.72
50.85
51.51
52.55
53.55
54.09
53.89
52.93
51.3
49.14
46.56
43.66
40.53
37.32
34.17
31.14
28.21
25.31
22.35
19.26
15.94
12.36
8.52
4.52
0.5
-3.36
-6.95
-10.31
-13.63
-17.19
-21.24
-25.99
-31.47
-37.55
-43.89
-50.08
-55.68
-60.53
-64.76
-68.92
-73.88
-80.53
-89.39
-100.11
-111.23
-120.33
-124.58
-121.66
-110.58
-92.11
-68.68
-43.53
-19.8
0.27
15.7
26.6
33.75
38.18
40.86
42.67
44.28
46.16
48.52
51.28
54.14
56.66
58.45
59.32
59.36
58.97
58.68
58.96
60.02
61.7
63.47
64.63
64.59
63.13
60.4
56.9
53.19
49.68
46.5
43.53
40.53
37.32
33.89
30.41
27.07
24.03
21.3
18.71
16.01
12.98
9.47
5.52
1.29
-2.95
-6.98
-10.65
-14.04
-17.44
-21.17
-25.53
-30.56
-36.1
-41.84
-47.38
-52.49
-57.09
-61.35
-65.74
-70.93
-77.68
-86.37
-96.6
-106.82
-114.58
-117.14
-112.52
-100.25
-81.64
-59.36
-36.49
-15.67
1.53
14.67
24.05
30.4
34.55
37.27
39.28
41.13
43.17
45.49
47.93
50.22
52.01
53.06
53.29
52.86
52.12
51.49
51.29
51.67
52.42
53.18
53.48
53.05
51.78
49.86
47.54
45.09
42.65
40.17
37.52
34.55
31.2
27.53
23.79
20.27
17.19
14.57
12.22
9.86
7.19
4.03
0.39
-3.57
-7.61
-11.47
-14.98
-18.15
-21.2
-24.48
-28.38
-33.13
-38.67
-44.65
-50.54
-55.88
-60.44
-64.43
-68.34
-72.92
-78.86
-86.5
-95.52
-104.72
-112.12
-115.35
-112.47
-102.62
-86.51
-66.23
-44.62
-24.32
-7.07
6.43
16.48
23.75
28.92
32.55
35.13
37.15
39.12
41.37
43.97
46.62
48.81
50.06
50.23
49.56
48.64
48.12
48.41
49.51
51.0
52.23
52.62
51.87
50.01
47.33
44.24
41.09
38.14
35.5
33.14
30.95
28.74
26.35
23.68
20.84
18.02
15.45
13.2
11.07
8.71
5.76
2.11
-2.05
-6.26
-10.11
-13.38
-16.24
-19.12
-22.5
-26.77
-31.94
-37.73
-43.63
-49.14
-53.96
-58.18
-62.22
-66.75
-72.53
-80.04
-89.29
-99.45
-108.9
-115.39
-116.62
-111.01
-98.27
-79.68
-57.65
-35.13
-14.67
2.17
14.91
23.9
29.92
33.82
36.34
38.08
39.46
40.76
42.07
43.33
44.41
45.2
45.7
46.01
46.31
46.74
47.45
48.49
49.82
51.29
52.6
53.38
53.29
52.13
49.93
46.94
43.52
40.02
36.74
33.77
31.07
28.43
25.58
22.23
18.23
13.6
8.59
3.61
-1.0
-5.01
-8.42
-11.46
-14.48
-17.92
-22.05
-27.0
-32.59
-38.48
-44.17
-49.33
-53.82
-57.88
-62.1
-67.27
-74.07
-82.69
-92.54
-102.05
-108.96
-110.84
-105.99
-93.98
-75.97
-54.36
-32.0
-11.4
5.85
19.16
28.7
35.01
38.71
40.49
41.0
40.91
40.76
40.87
41.28
41.86
42.39
42.78
43.09
43.54
44.33
45.58
47.21
48.94
50.34
50.96
50.46
48.74
45.92
42.27
38.13
33.77
29.3
24.79
20.27
15.8
11.4
7.05
2.63
-2.07
-7.2
-12.86
-18.92
-25.17
-31.3
-37.07
-42.39
-47.4
-52.44
-58.06
-64.89
-73.44
-83.68
-94.83
-105.2
-112.48
-114.38
-109.35
-97.14
-78.99
-57.23
-34.64
-13.65
4.1
18.0
28.24
35.5
40.59
44.21
46.87
48.97
50.78
52.54
54.36
56.19
57.83
59.0
59.58
59.65
59.56
59.68
60.2
61.02
61.72
61.77
60.82
58.78
55.82
52.22
48.16
43.68
38.71
33.2
27.28
21.21
15.34
9.93
4.97
0.22
-4.76
-10.33
-16.62
-23.4
-30.26
-36.73
-42.54
-47.75
-52.71
-57.97
-64.23
-72.06
-81.81
-93.28
-105.5
-116.6
-124.11
-125.59
-119.44
-105.54
-85.36
-61.61
-37.37
-15.28
2.98
16.91
26.95
34.1
39.52
44.18
48.7
53.27
57.74
61.78
65.12
67.66
69.44
70.58
71.22
71.53
71.7
71.96
72.54
73.51
74.66
75.59
75.76
74.73
72.32
68.69
64.27
59.6
55.08
50.97
47.23
43.62
39.83
35.52
30.5
24.79
18.63
12.39
6.52
1.29
-3.25
-7.42
-11.73
-16.7
-22.66
-29.57
-37.02
-44.43
-51.23
-57.14
-62.23
-66.9
-71.86
-77.95
-85.95
-96.24
-108.37
-120.84
-131.13
-136.34
-134.05
-123.24
-104.68
-80.81
-54.95
-30.29
-9.08
7.62
19.92
28.61
34.81
39.58
43.73
47.8
52.01
56.33
60.56
64.45
67.68
69.94
71.05
71.09
70.45
69.75
69.61
70.33
71.76
73.26
73.97
73.23
70.8
67.0
62.46
57.89
53.73
50.1
46.81
43.55
40.06
36.29
32.37
28.53
24.93
21.57
18.23
14.62
10.49
5.85
0.91
-3.89
-8.23
-11.98
-15.37
-18.87
-22.96
-27.97
-33.9
-40.49
-47.29
-53.88
-59.96
-65.43
-70.42
-75.36
-80.9
-87.88
-96.93
-108.01
-119.97
-130.54
-136.77
-135.98
-126.8
-109.69
-86.9
-61.73
-37.41
-16.25
0.75
13.68
23.3
30.47
35.95
40.27
43.85
47.05
50.15
53.33
56.57
59.67
62.28
64.08
64.93
64.96
64.57
64.29
64.48
65.22
66.14
66.6
66.0
64.07
61.01
57.39
53.83
50.68
47.91
45.13
41.9
37.97
33.47
28.8
24.42
20.63
17.47
14.65
11.8
8.58
4.86
0.78
-3.38
-7.28
-10.74
-13.88
-17.08
-20.88
-25.7
-31.63
-38.34
-45.25
-51.71
-57.36
-62.22
-66.64
-71.16
-76.35
-82.85
-91.04
-100.98
-111.9
-122.09
-129.01
-129.99
-123.19
-108.38
-87.16
-62.51
-37.81
-15.8
2.02
15.38
24.85
31.33
35.65
38.47
40.31
41.65
42.92
44.45
46.43
48.76
51.14
53.14
54.42
54.92
54.86
54.74
54.97
55.72
56.79
57.72
57.96
57.21
55.44
52.83
49.68
46.21
42.58
38.91
35.26
31.72
28.33
25.04
21.7
18.17
14.3
10.1
5.7
1.35
-2.74
-6.46
-9.88
-13.27
-17.0
-21.36
-26.47
-32.16
-38.06
-43.74
-48.92
-53.59
-58.04
-62.81
-68.55
-75.82
-84.77
-94.88
-104.79
-112.37
-115.27
-111.65
-100.88
-83.87
-62.79
-40.42
-19.31
-1.21
13.13
23.7
30.93
35.43
37.89
39.0
39.43
39.72
40.17
40.84
41.65
42.47
43.2
43.83
44.44
45.18
46.19
47.53
49.06
50.42
51.11
50.7
49.03
46.29
42.95
39.46
36.04
32.62
28.91
24.65
19.76
14.48
9.15
4.18
-0.27
-4.21
-7.89
-11.67
-15.88
-20.73
-26.19
-32.02
-37.84
-43.35
-48.45
-53.38
-58.72
-65.19
-73.35
-83.19
-93.9
-103.81
-110.69
-112.31
-107.14
-94.91
-76.79
-55.06
-32.48
-11.51
6.26
20.21
30.49
37.66
42.31
45.01
46.29
46.74
46.96
47.39
48.19
49.27
50.33
51.15
51.68
52.09
52.6
53.39
54.4
55.37
55.92
55.72
54.56
52.46
49.6
46.28
42.72
39.08
35.32
31.29
26.85
22.03
16.91
11.75
6.73
1.81
-3.25
-8.77
-15.02
-22.01
-29.51
-37.09
-44.32
-50.94
-56.92
-62.54
-68.27
-74.81
-82.86
-92.78
-104.24
-115.9
-125.47
-130.22
-127.86
-117.39
-99.53
-76.55
-51.57
-27.6
-6.85
9.71
22.17
31.33
38.15
43.53
48.12
52.28
56.17
59.81
63.14
66.05
68.39
70.01
70.88
71.08
70.88
70.64
70.72
71.23
72.1
72.99
73.39
72.85
71.08
68.05
63.98
59.28
54.44
49.84
45.68
41.95
38.49
35.02
31.32
27.2
22.59
17.51
12.1
6.62
1.36
-3.49
-7.92
-12.16
-16.62
-21.72
-27.65
-34.31
-41.29
-48.06
-54.19
-59.6
-64.54
-69.57
-75.4
-82.71
-92.0
-103.13
-115.17
-126.21
-133.69
-134.96
-128.22
-113.23
-91.49
-65.9
-39.85
-16.24
3.2
18.01
28.72
36.32
41.82
46.02
49.47
52.59
55.69
58.91
62.2
65.27
67.67
68.99
69.12
68.36
67.4
66.95
67.45
68.82
70.51
71.72
71.75
70.31
67.55
63.95
60.02
56.22
52.74
49.57
46.56
43.47
40.09
36.33
32.27
28.15
24.28
20.83
17.77
14.8
11.58
7.78
3.37
-1.42
-6.18
-10.56
-14.43
-18.0
-21.78
-26.29
-31.82
-38.28
-45.15
-51.72
-57.44
-62.15
-66.16
-70.13
-74.84
-81.02
-89.19
-99.41
-111.07
-122.52
-131.22
-134.22
-129.17
-115.38
-94.3
-69.21
-44.1
-22.27
-5.41
6.62
15.1
21.65
27.38
32.84
38.07
42.96
47.45
51.55
55.25
58.42
60.78
62.08
62.25
61.52
60.42
59.63
59.7
60.8
62.58
64.25
64.9
63.93
61.25
57.32
52.97
48.92
45.62
43.06
40.9
38.66
35.97
32.63
28.76
24.65
20.69
17.19
14.27
11.74
9.24
6.36
2.85
-1.32
-5.85
-10.38
-14.55
-18.28
-21.68
-25.16
-29.11
-33.82
-39.25
-45.15
-51.07
-56.58
-61.51
-65.94
-70.21
-74.86
-80.49
-87.66
-96.63
-106.99
-117.44
-125.72
-129.16
-125.53
-113.93
-95.22
-71.88
-47.11
-23.89
-4.17
11.3
22.71
30.69
35.98
39.24
41.08
42.14
43.0
44.06
45.5
47.23
49.0
50.5
51.57
52.21
52.64
53.13
53.92
55.07
56.34
57.33
57.55
56.7
54.75
51.96
48.74
45.54
42.64
40.03
37.5
34.75
31.51
27.75
23.65
19.6
15.91
12.75
10.04
7.52
4.86
1.82
-1.65
-5.42
-9.28
-13.04
-16.63
-20.09
-23.63
-27.53
-32.04
-37.22
-42.92
-48.72
-54.15
-58.8
-62.58
-65.8
-69.16
-73.65
-80.13
-88.95
-99.63
-110.56
-119.32
-123.22
-120.11
-109.16
-91.21
-68.55
-44.23
-21.22
-1.59
13.71
24.78
32.33
37.22
40.14
41.58
41.93
41.57
41.02
40.77
41.16
42.2
43.64
45.07
46.19
46.95
47.55
48.3
49.41
50.85
52.29
53.2
53.09
51.64
48.9
45.22
41.19
37.4
34.17
31.48
28.96
26.12
22.54
18.08
12.95
7.59
2.55
-1.74
-5.09
-7.69
-10.01
-12.69
-16.29
-21.08
-26.92
-33.32
-39.66
-45.42
-50.38
-54.68
-58.83
-63.53
-69.61
-77.66
-87.67
-98.7
-108.75
-115.16
-115.38
-107.89
-92.79
-71.9
-48.09
-24.41
-3.26
14.03
27.14
36.41
42.44
