0
3.28
3.21
3.37
3.63
3.82
3.82
3.6
3.23
2.83
2.49
2.26
2.12
1.95
1.72
1.41
1.04
0.64
0.19
-0.38
-1.1
-1.92
-2.7
-3.3
-3.66
-3.97
-4.48
-5.42
-6.7
-8.0
-8.83
-8.84
-8.04
-6.79
-5.58
-4.72
-4.14
-3.47
-2.34
-0.64
1.35
3.13
4.29
4.71
4.75
4.84
5.34
6.26
7.34
8.22
8.63
8.62
8.42
8.3
8.4
8.66
8.9
8.93
8.71
8.3
7.86
7.56
7.44
7.4
7.24
6.75
5.83
4.59
3.25
2.15
1.5
1.32
1.44
1.54
1.44
1.01
0.32
-0.52
-1.43
-2.43
-3.54
-4.76
-6.01
-7.18
-8.18
-9.03
-9.81
-10.6
-11.37
-12.01
-12.31
-12.1
-11.32
-10.08
-8.52
-6.82
-5.06
-3.3
-1.58
-0.01
1.3
2.22
2.72
2.84
2.74
2.65
2.77
3.19
3.9
4.74
5.51
6.09
6.44
6.62
6.77
7.04
7.45
7.95
8.37
8.53
8.34
7.8
7.05
6.3
5.73
5.45
5.44
5.57
5.6
5.35
4.78
3.97
3.17
2.58
2.32
2.29
2.29
2.06
1.5
0.63
-0.36
-1.29
-2.05
-2.67
-3.23
-3.76
-4.27
-4.7
-5.03
-5.38
-5.96
-7.02
-8.59
-10.52
-12.36
-13.65
-14.02
-13.44
-12.23
-10.81
-9.57
-8.57
-7.6
-6.37
-4.76
-2.94
-1.36
-0.48
-0.43
-0.95
-1.43
-1.33
-0.38
1.21
2.94
4.31
5.1
5.45
5.7
6.14
6.85
7.63
8.22
8.36
8.04
7.41
6.7
6.08
5.62
5.2
4.74
4.17
3.49
2.78
2.13
1.65
1.41
1.45
1.73
2.16
2.61
2.89
2.87
2.46
1.69
0.67
-0.41
-1.35
-2.03
-2.5
-2.98
-3.73
-4.92
-6.52
-8.27
-9.83
-10.97
-11.68
-12.14
-12.52
-12.88
-13.05
-12.82
-12.01
-10.66
-8.99
-7.25
-5.61
-4.08
-2.58
-1.08
0.36
1.6
2.52
3.02
3.11
2.94
2.78
2.86
3.37
4.32
5.49
6.52
7.1
7.08
6.59
5.94
5.47
5.4
5.71
6.18
6.59
6.85
6.98
7.09
7.2
7.2
6.94
6.34
5.46
4.51
3.75
3.36
3.33
3.49
3.63
3.56
3.22
2.63
1.87
0.95
-0.09
-1.24
-2.48
-3.74
-4.94
-6.01
-6.96
-7.81
-8.64
-9.51
-10.38
-11.07
-11.33
-10.96
-9.93
-8.46
-6.89
-5.52
-4.51
-3.76
-3.01
-2.05
-0.81
0.64
2.1
3.41
4.52
5.38
6.01
6.41
6.6
6.6
6.45
6.16
5.75
5.27
4.81
4.52
4.46
4.66
5.0
5.29
5.4
5.27
5.03
4.76
4.56
4.41
4.27
4.12
4.01
3.98
4.02
4.03
3.84
3.3
2.33
0.97
-0.59
-2.1
-3.28
-3.93
-4.02
-3.71
-3.28
-3.05
-3.24
-3.87
-4.81
-5.94
-7.2
-8.57
-10.03
-11.41
-12.4
-12.74
-12.35
-11.4
-10.22
-9.09
-8.08
-7.05
-5.81
-4.3
-2.7
-1.28
-0.27
0.32
0.67
1.0
1.46
2.05
2.75
3.52
4.35
5.2
6.02
6.66
7.02
7.1
6.95
6.64
6.23
5.79
5.39
5.16
5.23
5.59
6.08
6.44
6.4
5.87
4.96
3.97
3.17
2.71
2.56
2.59
2.64
2.55
2.25
1.69
0.91
0.02
-0.79
-1.37
-1.65
-1.78
-2.04
-2.71
-3.98
-5.78
-7.84
-9.78
-11.3
-12.21
-12.49
-12.2
-11.44
-10.33
-9.05
-7.77
-6.67
-5.85
-5.26
-4.78
-4.24
-3.5
-2.57
-1.55
-0.6
0.12
0.57
0.76
0.8
0.83
1.0
1.39
2.05
2.94
3.98
5.03
5.94
6.6
6.92
6.94
6.72
6.39
6.01
5.63
5.27
4.91
4.57
4.23
3.94
3.68
3.4
3.05
2.6
2.1
1.74
1.64
1.85
2.2
2.41
2.18
1.45
0.36
-0.73
-1.58
-2.1
-2.46
-2.92
-3.63
-4.53
-5.44
-6.2
-6.83
-7.44
-8.03
-8.46
-8.4
-7.57
-5.99
-4.05
-2.29
-1.11
-0.54
-0.23
0.27
1.15
2.25
3.12
3.41
3.08
2.44
2.0
2.09
2.74
3.68
4.5
4.92
4.95
4.84
4.9
5.29
5.94
6.57
6.9
6.79
6.25
5.51
4.82
4.33
4.08
3.95
3.77
3.43
2.92
2.34
1.81
1.42
1.15
0.89
0.47
-0.21
-1.18
-2.29
-3.33
-4.1
-4.63
-5.07
-5.65
-6.57
-7.79
-9.15
-10.34
-11.11
-11.32
-10.98
-10.23
-9.22
-8.11
-7.02
-5.98
-4.95
-3.84
-2.55
-1.04
0.58
2.09
3.23
3.81
3.77
3.29
2.67
2.26
2.24
2.64
3.32
4.09
4.78
5.24
5.46
5.41
5.1
4.54
3.78
2.86
1.96
1.22
0.76
0.6
0.63
0.69
0.62
0.42
0.14
-0.01
0.08
0.46
1.0
1.48
1.72
1.64
1.33
0.84
0.26
-0.47
-1.42
-2.66
-4.16
-5.74
-7.13
-8.11
-8.6
-8.68
-8.51
-8.28
-8.06
-7.82
-7.5
-7.01
-6.31
-5.46
-4.47
-3.38
-2.22
-0.99
0.2
1.22
1.9
2.17
2.09
1.84
1.7
1.87
2.44
3.25
4.05
4.5
4.47
4.04
3.5
3.23
3.44
4.13
5.04
5.87
6.34
6.39
6.11
5.69
5.24
4.76
4.2
3.47
2.58
1.64
0.78
0.07
-0.44
-0.83
-1.16
-1.46
-1.68
-1.77
-1.77
-1.81
-2.07
-2.77
-3.94
-5.47
-7.04
-8.32
-8.99
-8.95
-8.23
-6.99
-5.5
-4.0
-2.66
-1.57
-0.66
0.17
1.03
1.95
2.87
3.65
4.13
4.24
4.0
3.55
3.11
2.87
2.94
3.33
3.97
4.75
5.55
6.27
6.84
7.25
7.46
7.47
7.3
6.96
6.49
5.93
5.32
4.65
3.94
3.22
2.57
2.06
1.71
1.52
1.38
1.2
0.91
0.55
0.17
-0.21
-0.62
-1.16
-1.88
-2.74
-3.59
-4.28
-4.76
-5.1
-5.41
-5.76
-6.09
-6.18
-5.82
-4.92
-3.59
-2.05
-0.61
0.5
1.17
1.43
1.4
1.23
1.1
1.1
1.3
1.72
2.31
3.04
3.83
4.62
5.26
5.63
5.63
5.28
4.71
4.11
3.64
3.41
3.44
3.67
4.07
4.56
5.03
5.37
5.47
5.3
4.96
4.58
4.25
3.96
3.64
3.21
2.66
2.04
1.43
0.83
0.15
-0.71
-1.8
-2.98
-4.03
-4.73
-5.04
-5.11
-5.21
-5.6
-6.3
-7.19
-8.02
-8.69
-9.2
-9.7
-10.26
-10.86
-11.35
-11.57
-11.41
-10.92
-10.19
-9.25
-8.12
-6.76
-5.26
-3.81
-2.59
-1.71
-1.11
-0.59
0.04
0.89
1.91
2.99
4.02
5.01
5.93
6.8
7.52
7.94
7.94
7.49
6.71
5.79
4.98
4.44
4.2
4.08
3.9
3.48
2.82
2.08
1.51
1.28
1.35
1.49
1.46
1.13
0.58
0.03
-0.31
-0.45
-0.59
-1.03
-1.92
-3.17
-4.48
-5.49
-6.03
-6.16
-6.08
-6.03
-6.07
-6.12
-6.08
-5.92
-5.69
-5.54
-5.59
-5.83
-6.14
-6.35
-6.31
-5.94
-5.33
-4.58
-3.79
-3.04
-2.32
-1.61
-0.89
-0.15
0.56
1.19
1.7
2.13
2.56
3.1
3.83
4.77
5.84
6.88
7.72
8.2
8.3
8.14
7.96
7.97
8.27
8.75
9.13
9.13
8.6
7.56
6.26
4.98
3.91
3.11
2.48
1.92
1.39
0.88
0.41
-0.01
-0.44
-0.92
-1.54
-2.34
-3.35
-4.54
-5.81
-6.96
-7.78
-8.17
-8.12
-7.76
-7.3
-6.88
-6.54
-6.23
-5.83
-5.28
-4.58
-3.75
-2.77
-1.6
-0.18
1.44
3.02
4.31
5.01
5.05
4.56
3.87
3.29
3.08
3.29
3.8
4.33
4.66
4.65
4.3
3.76
3.21
2.82
2.68
2.74
2.89
3.01
3.05
3.06
3.1
3.2
3.3
3.33
3.2
2.96
2.71
2.63
2.82
3.28
3.8
4.12
4.04
3.42
2.34
0.9
-0.75
-2.45
-4.05
-5.42
-6.45
-7.07
-7.39
-7.57
-7.83
-8.32
-9.03
-9.85
-10.58
-11.05
-11.14
-10.91
-10.44
-9.91
-9.55
-9.46
-9.63
-9.87
-9.86
-9.32
-8.17
-6.59
-4.92
-3.53
-2.59
-2.09
-1.81
-1.49
-0.94
-0.08
1.01
2.2
3.32
4.28
5.06
5.71
6.26
6.73
7.04
7.1
6.83
6.23
5.4
4.48
3.62
2.89
2.33
1.95
1.75
1.76
2.01
2.51
3.14
3.76
4.18
4.22
3.82
3.04
2.01
0.88
-0.25
-1.3
-2.19
-2.83
-3.17
-3.21
-3.11
-3.11
-3.45
-4.19
-5.21
-6.25
-7.04
-7.43
-7.45
-7.25
-6.99
-6.79
-6.68
-6.57
-6.38
-6.0
-5.31
-4.26
-2.89
-1.34
0.18
1.4
2.22
2.61
2.77
2.92
3.26
3.83
4.52
5.22
5.8
6.31
6.79
7.24
7.59
7.68
7.4
6.78
5.97
5.24
4.76
4.62
4.72
4.94
5.14
5.27
5.28
5.23
5.12
4.97
4.78
4.47
3.99
3.18
2.03
0.52
-1.21
-2.94
-4.48
-5.67
-6.48
-7.02
-7.46
-7.93
-8.5
-9.09
-9.52
-9.6
-9.2
-8.37
-7.21
-5.94
-4.65
-3.45
-2.36
-1.39
-0.56
0.08
0.52
0.78
0.94
1.13
1.44
1.88
2.41
2.95
3.46
3.96
4.53
5.21
5.96
6.68
7.19
7.4
7.31
7.03
6.68
6.36
6.07
5.74
5.31
4.73
4.03
3.27
2.55
1.92
1.46
1.11
0.78
0.29
-0.46
-1.49
-2.65
-3.72
-4.52
-4.99
-5.28
-5.6
-6.12
-6.88
-7.72
-8.45
-8.99
-9.36
-9.69
-10.09
-10.55
-10.9
-10.93
-10.48
-9.52
-8.2
-6.64
-5.0
-3.3
-1.57
0.11
1.57
2.64
3.19
3.29
3.19
3.17
3.48
4.2
5.23
6.35
7.31
7.93
8.16
8.07
7.76
7.34
6.89
6.43
5.99
5.61
5.31
5.09
4.85
4.46
3.72
2.48
0.75
-1.28
-3.38
-5.26
-6.77
-7.85
-8.52
-8.84
-8.87
-8.71
-8.45
-8.22
-8.1
-8.16
-8.39
-8.74
-9.14
-9.52
-9.81
-10.02
-10.14
-10.13
-9.97
-9.59
-8.94
-8.02
-6.87
-5.59
-4.37
-3.32
-2.49
-1.8
-1.13
-0.38
0.48
1.39
2.23
2.9
3.39
3.81
4.3
4.97
5.8
6.63
7.27
7.58
7.58
7.46
7.41
7.53
7.73
7.75
7.31
6.34
5.03
3.76
2.97
2.86
3.32
4.01
4.52
4.65
4.41
3.99
3.58
3.22
2.86
2.4
1.81
1.15
0.51
-0.12
-0.86
-1.87
-3.23
-4.83
-6.37
-7.56
-8.18
-8.19
-7.7
-6.85
-5.78
-4.55
-3.23
-1.89
-0.62
0.5
1.38
1.99
2.34
2.58
2.86
3.39
4.31
5.63
7.2
8.72
9.87
10.45
10.47
10.13
9.69
9.31
9.0
8.64
8.11
7.33
6.36
5.34
4.39
3.6
2.92
2.3
1.68
1.12
0.66
0.33
0.05
-0.32
-0.91
-1.75
-2.76
-3.78
-4.71
-5.56
-6.44
-7.45
-8.57
-9.65
-10.41
-10.65
-10.28
-9.36
-8.0
-6.35
-4.48
-2.54
-0.61
1.16
2.61
3.65
4.21
4.36
4.22
3.97
3.79
3.91
4.47
5.48
6.78
8.08
9.03
9.41
9.17
8.54
7.85
7.4
7.27
7.36
7.36
7.05
6.34
5.35
4.34
3.51
2.91
2.43
1.9
1.21
0.4
-0.4
-1.04
-1.47
-1.73
-1.97
-2.33
-2.87
-3.56
-4.32
-5.04
-5.69
-6.35
-7.21
-8.45
-10.1
-11.91
-13.43
-14.13
-13.71
-12.24
-10.11
-7.91
-6.03
-4.56
-3.32
-2.06
-0.67
0.7
1.8
2.46
2.67
2.62
2.57
2.73
3.2
4.0
5.09
6.35
7.53
8.35
8.59
8.22
7.48
6.76
6.42
6.56
7.0
7.4
7.45
7.03
6.29
5.46
4.76
4.24
3.82
3.35
2.8
2.25
1.87
1.72
1.71
1.65
1.27
0.43
-0.83
-2.29
-3.67
-4.78
-5.6
-6.31
-7.1
-8.17
-9.51
-11.0
-12.44
-13.53
-14.02
-13.76
-12.75
-11.14
-9.17
-7.09
-5.13
-3.45
-2.09
-0.99
-0.04
0.9
1.88
2.89
3.89
4.8
5.55
6.18
6.75
7.36
8.05
8.76
9.36
9.78
10.02
10.12
10.16
10.13
9.94
9.54
8.91
8.18
7.56
7.18
7.07
7.1
7.08
6.83
6.3
5.5
4.55
3.51
2.46
1.46
0.58
-0.17
-0.82
-1.41
-2.01
-2.6
-3.2
-3.87
-4.76
-6.0
-7.58
-9.24
-10.54
-11.08
-10.71
-9.62
-8.15
-6.63
-5.16
-3.65
-1.95
-0.04
1.86
3.47
4.56
5.08
5.2
5.19
5.28
5.63
6.23
6.95
7.61
8.03
8.15
8.0
7.77
7.6
7.53
7.49
7.31
6.91
6.3
5.67
5.2
4.96
4.85
4.62
4.07
3.15
2.03
1.01
0.3
-0.06
-0.24
-0.51
-1.07
-1.94
-3.05
-4.22
-5.38
-6.49
-7.55
-8.54
-9.41
-10.14
-10.73
-11.29
-11.88
-12.46
-12.87
-12.89
-12.37
-11.33
-9.99
-8.65
-7.5
-6.52
-5.55
-4.35
-2.84
-1.11
0.56
1.91
2.79
3.3
3.68
4.19
4.97
5.96
6.97
7.79
8.27
8.46
8.45
8.37
8.25
7.98
7.44
6.55
5.37
4.11
3.03
2.32
2.02
2.05
2.28
2.55
2.8
3.01
3.13
3.15
3.02
2.81
2.57
2.33
1.98
1.35
0.29
-1.18
-2.81
-4.27
-5.22
-5.56
-5.49
-5.36
-5.5
-6.04
-6.92
-8.0
-9.15
-10.37
-11.7
-13.1
-14.33
-14.98
-14.67
-13.3
-11.06
-8.46
-6.03
-4.13
-2.78
-1.77
-0.83
0.15
1.06
1.7
1.92
1.78
1.48
1.3
1.44
1.9
2.6
3.38
4.15
4.87
5.61
6.36
7.09
7.67
7.95
7.83
7.33
6.58
5.77
5.07
4.57
4.28
4.1
3.97
3.9
3.98
4.27
4.75
5.25
5.57
5.55
5.14
4.39
3.41
2.23
0.89
-0.58
-2.13
-3.62
-4.91
-5.94
-6.69
-7.21
-7.57
-7.79
-7.83
-7.72
-7.42
-6.96
-6.32
-5.44
-4.29
-2.93
-1.48
-0.12
0.99
1.81
2.39
2.87
3.29
3.69
3.96
4.05
3.95
3.77
3.69
3.89
4.39
5.03
5.58
5.8
5.65
5.31
5.01
4.95
5.09
5.18
4.98
4.41
3.68
3.08
2.81
2.82
2.85
2.55
1.78
0.69
-0.39
-1.13
-1.4
-1.31
-1.12
-1.11
-1.42
-2.06
-2.95
-3.99
-5.14
-6.37
-7.65
-8.9
-9.92
-10.52
-10.55
-9.97
-9.0
-7.91
-6.96
-6.22
-5.57
-4.77
-3.69
-2.41
-1.15
-0.18
0.38
0.61
0.74
0.99
1.46
2.1
2.79
3.41
3.93
4.32
4.59
4.71
4.72
4.67
4.69
4.8
5.0
5.17
5.13
4.75
3.97
2.9
1.68
0.54
-0.38
-1.01
-1.33
-1.41
-1.31
-1.1
-0.85
-0.63
-0.55
-0.7
-1.16
-1.88
-2.76
-3.66
-4.48
-5.21
-5.92
-6.68
-7.53
-8.47
-9.46
-10.43
-11.22
-11.65
-11.55
-10.84
-9.59
-8.04
-6.47
-5.08
-3.93
-2.96
-2.08
-1.29
-0.62
-0.16
0.15
0.4
0.76
1.3
2.01
2.83
3.66
4.46
5.25
6.03
6.78
7.44
7.92
8.14
8.08
7.74
7.21
6.54
5.85
5.23
4.74
4.38
4.1
3.8
3.37
2.8
2.12
1.44
0.9
0.54
0.38
0.27
0.06
-0.41
-1.16
-2.14
-3.22
-4.28
-5.19
-5.9
-6.35
-6.51
-6.38
-6.01
-5.5
-4.98
-4.56
-4.25
-3.93
-3.42
-2.55
-1.28
0.24
1.7
2.83
3.44
3.56
3.38
3.15
3.04
3.13
3.36
3.67
4.0
4.31
4.6
4.81
4.91
4.85
4.67
4.39
4.0
3.51
2.91
2.27
1.74
1.43
1.38
1.5
1.57
1.39
0.92
0.23
-0.52
-1.19
-1.77
-2.34
-3.02
-3.85
-4.8
-5.79
-6.78
-7.74
-8.64
-9.44
-9.96
-9.98
-9.35
-8.07
-6.34
-4.51
-2.88
-1.61
-0.66
0.19
1.17
2.3
3.41
4.19
4.4
4.05
3.43
2.95
2.95
3.48
4.31
5.09
5.55
5.61
5.44
5.27
5.24
5.42
5.7
5.99
6.18
6.23
6.14
5.92
5.64
5.35
5.08
4.8
4.45
3.92
3.21
2.37
1.49
0.66
-0.13
-0.94
-1.84
-2.8
-3.72
-4.45
-4.91
-5.17
-5.34
-5.57
-5.97
-6.55
-7.32
-8.26
-9.28
-10.24
-10.95
-11.21
-10.99
-10.41
-9.74
-9.2
-8.84
-8.44
-7.68
-6.3
-4.35
-2.12
-0.07
1.45
2.31
2.63
2.71
2.82
3.14
3.66
4.3
5.02
5.81
6.7
7.68
8.58
9.15
9.16
8.51
7.34
6.01
4.84
4.07
3.69
3.55
3.52
3.54
3.7
4.06
4.64
5.29
5.83
6.1
5.99
5.49
4.68
3.66
2.56
1.51
0.63
-0.08
-0.67
-1.29
-2.04
-2.98
-4.07
-5.23
-6.33
-7.31
-8.12
-8.78
-9.38
-9.99
-10.63
-11.26
-11.74
-11.88
-11.58
-10.84
-9.77
-8.51
-7.12
-5.59
-3.89
-2.03
-0.14
1.63
3.1
4.26
5.21
6.08
6.93
7.7
8.28
8.56
8.52
8.22
7.8
7.44
7.24
7.25
7.43
7.7
7.93
7.99
7.85
7.55
7.2
6.87
6.57
6.21
5.67
4.91
4.0
3.06
2.23
1.56
1.05
0.67
0.37
0.12
-0.15
-0.54
-1.14
-2.01
-3.12
-4.4
-5.75
-7.12
-8.46
-9.7
-10.7
-11.3
-11.39
-10.96
-10.17
-9.22
-8.25
-7.27
-6.09
-4.53
-2.53
-0.22
2.05
3.88
4.97
5.26
4.97
4.49
4.23
4.39
4.97
5.75
6.43
6.84
6.92
6.76
6.48
6.16
5.79
5.39
4.94
4.5
4.16
3.98
3.96
3.99
3.94
3.67
3.14
2.39
1.54
0.73
0.1
-0.31
-0.53
-0.69
-0.95
-1.43
-2.13
-3.0
-3.96
-4.9
-5.78
-6.54
-7.18
-7.68
-8.1
-8.51
-8.95
-9.42
-9.82
-9.97
-9.74
-9.09
-8.09
-6.85
-5.5
-4.11
-2.7
-1.34
-0.14
0.74
1.15
1.06
0.55
-0.13
-0.71
-0.92
-0.62
0.18
1.3
2.47
3.4
3.87
3.86
3.54
3.18
3.04
3.24
3.71
4.26
4.66
4.75
4.55
4.16
3.71
3.28
2.89
2.5
2.08
1.62
1.16
0.71
0.27
-0.18
-0.66
-1.2
-1.73
-2.19
-2.5
-2.64
-2.65
-2.67
-2.89
-3.5
-4.65
-6.26
-8.11
-9.81
-11.01
-11.41
-11.02
-10.07
-8.89
-7.79
-6.84
-5.89
-4.72
-3.2
-1.36
0.53
2.18
3.34
3.94
4.04
3.76
3.28
2.74
2.32
2.23
2.55
3.29
4.29
5.32
6.18
6.76
7.07
7.17
7.11
6.91
6.58
6.14
5.65
5.21
4.86
4.62
4.46
4.31
4.14
3.99
3.87
3.77
3.7
3.59
3.36
2.98
2.43
1.67
0.7
-0.47
-1.78
-3.06
-4.16
-5.02
-5.69
-6.35
-7.13
-8.02
-8.79
-9.15
-8.85
-7.86
-6.37
-4.69
-3.13
-1.84
-0.84
-0.06
0.63
1.35
2.16
3.07
4.02
4.93
5.65
6.07
6.16
5.88
5.33
4.61
3.86
3.25
2.89
2.83
3.03
3.36
3.67
3.87
3.94
3.97
4.03
4.15
4.26
4.22
3.94
3.43
2.83
2.28
1.86
1.54
1.18
0.69
0.13
-0.34
-0.48
-0.18
0.44
1.07
1.4
1.22
0.53
-0.5
-1.64
-2.76
-3.84
-4.95
-6.14
-7.4
-8.66
-9.82
-10.75
-11.34
-11.54
-11.35
-10.86
-10.14
-9.26
-8.24
-7.05
-5.65
-4.06
-2.35
-0.63
0.93
2.21
3.12
3.63
3.78
3.69
3.52
3.44
3.58
3.93
4.38
4.71
4.7
4.23
3.35
2.28
1.31
0.74
0.71
1.23
2.09
3.04
3.88
4.48
4.84
5.01
5.05
4.94
4.71
4.35
3.94
3.55
3.2
2.84
2.38
1.77
1.03
0.29
-0.36
-0.87
-1.26
-1.63
-2.0
-2.38
-2.74
-3.13
-3.65
-4.45
-5.58
-6.94
-8.3
-9.38
-10.06
-10.37
-10.5
-10.62
-10.79
-10.91
-10.81
-10.41
-9.69
-8.8
-7.84
-6.84
-5.76
-4.54
-3.24
-2.01
-1.05
-0.47
-0.18
0.06
0.49
1.21
2.19
3.24
4.17
4.85
5.31
5.6
5.83
6.04
6.24
6.46
6.7
6.98
7.3
7.63
7.9
8.05
8.03
7.8
7.36
6.7
5.91
5.06
4.28
3.63
3.16
2.81
2.52
2.18
1.75
1.27
0.79
0.41
0.2
0.12
0.1
-0.02
-0.4
-1.11
-2.15
-3.39
-4.63
-5.65
-6.34
-6.72
-6.92
-7.07
-7.18
-7.12
-6.69
-5.74
-4.29
-2.56
-0.89
0.41
1.18
1.48
1.51
1.45
1.45
1.51
1.58
1.61
1.59
1.54
1.52
1.54
1.61
1.74
1.88
1.98
1.99
1.88
1.67
1.43
1.29
1.33
1.57
1.92
2.27
2.55
2.72
2.82
2.9
2.97
2.99
2.87
2.57
2.2
1.95
1.95
2.26
2.77
3.22
3.4
3.21
2.66
1.89
0.99
-0.02
-1.18
-2.5
-3.96
-5.4
-6.61
-7.48
-8.0
-8.31
-8.57
-8.86
-9.14
-9.29
-9.14
-8.61
-7.73
-6.62
-5.41
-4.21
-3.06
-2.01
-1.06
-0.24
0.4
0.83
1.07
1.18
1.3
1.58
2.13
2.95
3.85
4.58
4.85
4.55
3.81
2.91
2.23
1.96
2.09
2.39
2.65
2.72
2.66
2.64
2.74
2.97
3.19
3.29
3.21
3.04
2.91
2.9
3.02
3.18
3.28
3.22
2.96
2.43
1.59
0.35
-1.27
-3.15
-5.05
-6.68
-7.82
-8.46
-8.75
-8.95
-9.3
-9.88
-10.63
-11.27
-11.56
-11.33
-10.61
-9.59
-8.52
-7.58
-6.82
-6.12
-5.33
-4.34
-3.21
-2.07
-1.03
-0.05
1.04
2.34
3.84
5.32
6.45
7.01
7.05
6.82
6.67
6.77
7.05
7.27
7.23
6.93
6.54
6.26
6.13
6.05
5.85
5.45
4.93
4.45
4.16
4.1
4.13
4.08
3.82
3.3
2.54
1.61
0.59
-0.44
-1.38
-2.16
-2.76
-3.25
-3.74
-4.35
-5.09
-5.89
-6.66
-7.25
-7.6
-7.69
-7.54
-7.21
-6.77
-6.24
-5.66
-5.0
-4.16
-3.02
-1.57
0.09
1.73
3.06
3.85
4.05
3.8
3.37
3.06
3.04
3.35
3.88
4.43
4.79
4.84
4.56
4.11
3.69
3.53
3.75
4.27
4.85
5.19
5.09
4.55
3.78
3.06
2.58
2.36
2.23
2.01
1.63
1.12
0.67
0.44
0.48
0.71
0.87
0.73
0.2
-0.66
-1.63
-2.44
-2.96
-3.24
-3.48
-3.93
-4.8
-6.07
-7.58
-9.1
-10.39
-11.32
-11.81
-11.83
-11.37
-10.48
-9.3
-8.03
-6.87
-5.95
-5.29
-4.8
-4.34
-3.83
-3.2
-2.44
-1.53
-0.49
0.67
1.87
2.99
3.95
4.67
5.19
5.59
5.96
6.33
6.72
7.12
7.52
7.89
8.19
8.33
8.2
7.74
6.97
6.05
5.2
4.64
4.44
4.5
4.58
4.42
3.9
3.03
1.98
0.94
0.07
-0.57
-1.07
-1.55
-2.15
-2.93
-3.87
-4.9
-5.92
-6.85
-7.64
-8.35
-9.02
-9.73
-10.45
-11.11
-11.59
-11.85
-11.9
-11.83
-11.67
-11.31
-10.54
-9.2
-7.28
-4.99
-2.68
-0.67
0.86
1.94
2.76
3.47
4.14
4.75
5.26
5.68
6.1
6.62
7.31
8.18
9.13
10.01
10.67
10.96
10.84
10.35
9.6
8.76
7.99
7.34
6.83
6.39
5.99
5.62
5.31
5.11
5.05
5.11
5.19
5.21
5.09
4.82
4.45
4.05
3.7
3.41
3.16
2.84
2.31
1.49
0.33
-1.13
-2.76
-4.41
-5.92
-7.17
-8.11
-8.73
-9.07
-9.12
-8.89
-8.35
-7.55
-6.57
-5.5
-4.41
-3.29
-2.16
-1.06
-0.1
0.61
0.99
1.12
1.16
1.35
1.85
2.75
3.94
5.22
6.33
7.08
7.33
7.08
6.51
5.89
5.53
5.61
6.12
6.84
7.49
7.87
7.93
7.79
7.63
7.49
7.33
6.98
6.32
5.42
4.43
3.56
2.92
2.5
2.15
1.75
1.32
0.95
0.73
0.63
0.48
0.04
-0.79
-1.97
-3.28
-4.49
-5.45
-6.21
-6.88
-7.67
-8.65
-9.81
-11.01
-12.04
-12.61
-12.51
-11.7
-10.3
-8.61
-6.99
-5.64
-4.57
-3.57
-2.5
-1.32
-0.21
0.6
0.98
0.98
0.82
0.79
1.06
1.66
2.44
3.21
3.8
4.14
4.26
4.29
4.36
4.54
4.82
5.07
5.17
5.02
4.7
4.4
4.27
4.38
4.63
4.83
4.8
4.45
3.81
2.95
2.04
1.2
0.57
0.2
0.04
-0.03
-0.13
-0.33
-0.63
-0.94
-1.23
-1.56
-2.05
-2.77
-3.71
-4.71
-5.63
-6.36
-7.02
-7.78
-8.75
-9.84
-10.77
-11.19
-10.9
-9.93
-8.51
-6.97
-5.54
-4.31
-3.23
-2.23
-1.26
-0.34
0.51
1.29
2.03
2.78
3.5
4.15
4.67
5.12
5.59
6.18
6.89
7.6
8.11
8.29
8.18
7.89
7.61
7.43
7.34
7.23
6.98
6.56
5.98
5.3
4.62
3.97
3.39
2.91
2.54
2.22
1.91
1.53
1.06
0.51
-0.04
-0.5
-0.84
-1.05
-1.24
-1.52
-1.99
-2.66
-3.45
-4.24
-4.94
-5.57
-6.22
-6.99
-7.81
-8.51
-8.81
-8.49
-7.51
-5.99
-4.24
-2.55
-1.09
0.07
0.94
1.61
2.17
2.61
2.97
3.22
3.42
3.59
3.78
4.0
4.17
4.21
4.02
3.62
3.11
2.66
2.45
2.51
2.82
3.27
3.74
4.05
4.11
3.81
3.18
2.34
1.46
0.74
0.31
0.18
0.29
0.57
0.93
1.32
1.73
2.09
2.3
2.25
1.87
1.18
0.31
-0.55
-1.28
-1.82
-2.26
-2.75
-3.42
-4.31
-5.32
-6.32
-7.17
-7.9
-8.62
-9.44
-10.35
-11.12
-11.49
-11.26
-10.48
-9.44
-8.51
-7.88
-7.49
-7.05
-6.26
-4.98
-3.37
-1.75
-0.44
0.38
0.73
0.79
0.74
0.75
0.92
1.32
1.97
2.81
3.75
4.64
5.38
5.91
6.25
6.39
6.33
6.07
5.61
5.08
4.64
4.45
4.54
4.78
4.94
4.81
4.32
3.59
2.88
2.39
2.25
2.34
2.49
2.48
2.19
1.63
0.85
-0.04
-1.03
-2.08
-3.16
-4.19
-5.07
-5.75
-6.17
-6.34
-6.37
-6.43
-6.71
-7.34
-8.29
-9.3
-9.98
-9.98
-9.17
-7.76
-6.19
-4.9
-4.12
-3.73
-3.46
-3.07
-2.48
-1.81
-1.18
-0.63
-0.07
0.61
1.44
2.36
3.27
4.13
4.96
5.79
6.62
7.31
7.68
7.6
7.05
6.13
5.08
4.14
3.52
3.32
3.51
3.94
4.39
4.64
4.54
4.09
3.36
2.52
1.68
0.93
0.32
-0.18
-0.56
-0.88
-1.21
-1.63
-2.15
-2.73
-3.31
-3.81
-4.27
-4.81
-5.56
-6.54
-7.7
-8.78
-9.52
-9.75
-9.49
-8.9
-8.2
-7.53
-6.91
-6.2
-5.27
-4.05
-2.68
-1.42
-0.56
-0.22
-0.32
-0.6
-0.7
-0.39
0.45
1.71
3.15
4.51
5.57
6.25
6.54
6.53
6.34
6.08
5.83
5.61
5.4
5.16
4.89
4.63
4.42
4.25
4.11
3.95
3.7
3.36
2.93
2.43
1.93
1.4
0.85
0.23
-0.46
-1.18
-1.84
-2.34
-2.6
-2.6
-2.43
-2.23
-2.19
-2.45
-3.08
-4.07
-5.37
-6.86
-8.36
-9.67
-10.56
-10.93
-10.73
-10.08
-9.11
-7.97
-6.71
-5.34
-3.91
-2.51
-1.23
-0.17
0.71
1.5
2.31
3.16
3.95
4.52
4.77
4.77
4.76
5.0
5.62
6.52
7.37
7.87
7.8
7.22
6.37
5.54
4.93
4.56
4.29
3.92
3.31
2.43
1.43
0.5
-0.21
-0.64
-0.8
-0.83
-0.84
-0.96
-1.2
-1.57
-2.06
-2.67
-3.4
-4.22
-5.06
-5.85
-6.51
-7.04
-7.52
-8.07
-8.8
-9.75
-10.75
-11.59
-11.96
-11.66
-10.72
-9.33
-7.8
-6.37
-5.11
-3.92
-2.63
-1.13
0.55
2.23
3.64
4.58
4.99
4.97
4.75
4.58
4.62
4.91
5.33
5.73
5.97
6.08
6.17
6.43
6.91
7.54
8.17
8.59
8.74
8.62
8.35
7.98
7.56
7.08
6.56
6.05
5.61
5.31
5.09
4.84
4.4
3.67
2.73
1.73
0.88
0.22
-0.32
-0.92
-1.71
-2.72
-3.81
-4.81
-5.63
-6.31
-6.97
-7.68
-8.4
-8.91
-8.98
-8.45
-7.31
-5.77
-4.1
-2.57
-1.34
-0.48
0.07
0.41
0.69
0.99
1.35
1.75
2.14
2.52
2.9
3.32
3.79
4.27
4.73
5.16
5.59
6.03
6.44
6.74
6.87
6.81
6.68
6.57
6.56
6.59
6.48
6.03
5.19
4.06
2.91
2.0
1.44
1.18
1.06
0.93
0.71
0.44
0.15
-0.11
-0.37
-0.7
-1.14
-1.69
-2.35
-3.06
-3.81
-4.59
-5.38
-6.18
-7.0
-7.85
-8.71
-9.55
-10.22
-10.56
-10.44
-9.82
-8.76
-7.43
-5.97
-4.52
-3.16
-1.91
-0.83
0.0
0.53
0.73
0.63
0.43
0.32
0.46
0.94
1.7
2.59
3.51
4.37
5.17
5.95
6.67
7.24
7.57
7.59
7.34
6.91
6.43
5.95
5.49
5.0
4.47
3.9
3.3
2.7
2.12
1.61
1.24
1.09
1.15
1.4
1.68
1.8
1.61
1.03
0.1
-1.06
-2.21
-3.18
-3.83
-4.19
-4.41
-4.68
-5.18
-5.94
-6.96
-8.12
-9.28
-10.26
-10.83
-10.82
-10.11
-8.79
-7.12
-5.45
-4.01
-2.91
-2.02
-1.19
-0.29
0.64
1.48
2.14
2.62
3.01
3.46
4.08
4.88
5.78
6.65
7.34
7.78
8.0
8.09
8.19
8.41
8.76
9.2
9.59
9.76
9.61
9.05
8.08
6.78
5.36
4.04
3.04
2.47
2.31
2.46
2.68
2.76
2.56
2.01
1.14
0.06
-1.09
-2.19
-3.12
-3.84
-4.33
-4.62
-4.85
-5.13
-5.56
-6.12
-6.7
-7.08
-7.09
-6.7
-6.0
-5.22
-4.48
-3.73
-2.81
-1.56
-0.01
1.6
2.9
3.61
3.71
3.47
3.25
3.33
3.74
4.32
4.82
5.07
5.13
5.14
5.24
5.48
5.71
5.78
5.57
5.14
4.65
4.3
4.18
4.26
4.41
4.45
4.27
3.85
3.25
2.61
2.05
1.67
1.48
1.39
1.24
0.89
0.34
-0.25
-0.64
-0.68
-0.43
-0.18
-0.28
-0.96
-2.19
-3.68
-5.11
-6.26
-7.1
-7.78
-8.42
-9.05
-9.55
-9.8
-9.77
-9.6
-9.49
-9.62
-9.95
-10.2
-9.97
-8.95
-7.09
-4.69
-2.33
-0.53
0.38
0.51
0.29
0.23
0.68
1.72
3.11
4.48
5.5
6.03
6.11
5.95
5.76
5.67
5.71
5.79
5.84
5.8
5.64
5.43
5.19
4.92
4.56
4.03
3.31
2.48
1.67
1.09
0.87
1.02
1.45
1.98
2.39
2.48
2.17
1.51
0.63
-0.25
-0.94
-1.34
-1.45
-1.37
-1.26
-1.21
-1.34
-1.7
-2.36
-3.35
-4.63
-6.05
-7.37
-8.34
-8.86
-9.03
-9.05
-9.11
-9.21
-9.23
-9.0
-8.48
-7.78
-7.1
-6.57
-6.13
-5.59
-4.74
-3.53
-2.06
-0.6
0.66
1.64
2.45
3.25
4.16
5.18
6.28
7.41
8.56
9.69
10.72
11.49
11.77
11.47
10.58
9.28
7.76
6.27
4.98
4.02
3.52
3.53
3.98
4.64
5.22
5.42
5.21
4.75
4.33
4.17
4.19
4.12
3.59
2.45
0.85
-0.86
-2.28
-3.26
-3.86
-4.32
-4.83
-5.43
-6.01
-6.43
-6.72
-7.03
-7.56
-8.31
-9.11
-9.55
-9.31
-8.23
-6.5
-4.5
-2.59
-1.03
0.21
1.23
2.17
2.98
3.52
3.59
3.14
2.3
1.39
0.77
0.74
1.41
2.65
4.18
5.66
6.85
7.63
8.02
8.07
7.83
7.36
6.72
5.98
5.3
4.81
4.59
4.62
4.77
4.85
4.64
4.08
3.21
2.21
1.31
0.68
0.36
0.27
0.23
0.06
-0.33
-0.89
-1.52
-2.15
-2.71
-3.2
-3.67
-4.11
-4.59
-5.15
-5.81
-6.57
-7.39
-8.18
-8.82
-9.27
-9.53
-9.6
-9.49
-9.12
-8.47
-7.58
-6.56
-5.6
-4.85
-4.31
-3.88
-3.39
-2.75
-2.02
-1.38
-1.0
-0.95
-1.09
-1.15
-0.94
-0.4
0.33
0.98
1.39
1.56
1.66
1.9
2.39
3.12
3.89
4.5
4.84
4.95
4.92
4.86
4.79
4.64
4.32
3.85
3.31
2.84
2.58
2.55
2.64
2.64
