0
25.78
23.94
22.11
20.38
18.74
17.16
15.54
13.79
11.87
9.73
7.39
4.86
2.04
-1.15
-4.88
-9.2
-14.0
-18.93
-23.47
-27.02
-28.99
-29.07
-27.25
-23.85
-19.48
-14.79
-10.4
-6.7
-3.82
-1.59
0.26
1.95
3.55
4.91
5.76
5.9
5.37
4.47
3.63
3.21
3.3
3.7
4.06
4.09
3.72
3.09
2.39
1.69
0.88
-0.24
-1.74
-3.57
-5.47
-7.17
-8.56
-9.72
-10.84
-12.1
-13.52
-14.97
-16.26
-17.26
-18.0
-18.67
-19.58
-21.04
-23.25
-26.28
-29.98
-33.98
-37.65
-40.33
-41.43
-40.7
-38.26
-34.57
-30.16
-25.51
-20.96
-16.71
-12.94
-9.86
-7.56
-6.04
-5.13
-4.57
-4.11
-3.64
-3.17
-2.71
-2.25
-1.73
-1.14
-0.55
-0.09
0.15
0.24
0.33
0.59
1.04
1.52
1.75
1.51
0.76
-0.36
-1.6
-2.73
-3.56
-3.99
-4.05
-3.88
-3.73
-3.89
-4.58
-5.84
-7.5
-9.25
-10.82
-12.04
-13.0
-13.89
-14.95
-16.38
-18.3
-20.68
-23.34
-25.91
-27.83
-28.5
-27.43
-24.47
-19.83
-14.01
-7.66
-1.4
4.35
9.28
13.29
16.31
18.4
19.67
20.3
20.48
20.4
20.26
20.24
20.51
21.18
22.19
23.42
24.66
25.71
26.47
26.87
26.93
26.67
26.11
25.28
24.3
23.21
22.04
20.77
19.35
17.69
15.76
13.56
11.09
8.44
5.68
2.96
0.38
-2.08
-4.62
-7.53
-11.07
-15.29
-19.92
-24.45
-28.24
-30.66
-31.24
-29.71
-26.11
-20.8
-14.49
-8.06
-2.29
2.28
5.49
7.45
8.38
8.47
7.89
6.85
5.67
4.72
4.29
4.48
5.08
5.8
6.37
6.67
6.8
6.86
6.89
6.74
6.21
5.08
3.33
1.11
-1.24
-3.34
-4.93
-6.0
-6.72
-7.42
-8.45
-10.05
-12.24
-14.91
-17.77
-20.57
-23.07
-25.17
-26.96
-28.73
-30.89
-33.85
-37.83
-42.7
-47.95
-52.77
-56.22
-57.49
-56.07
-51.85
-45.16
-36.74
-27.58
-18.68
-10.76
-4.22
0.97
5.02
8.19
10.54
11.99
12.52
12.31
11.83
11.6
12.0
13.02
14.35
15.54
16.35
16.83
17.25
17.82
18.51
18.98
18.79
17.62
15.48
12.72
9.86
7.39
5.58
4.39
3.57
2.75
1.57
-0.14
-2.35
-4.95
-7.72
-10.49
-13.19
-15.87
-18.66
-21.78
-25.48
-29.95
-35.12
-40.52
-45.28
-48.27
-48.45
-45.31
-38.99
-30.21
-19.98
-9.26
1.22
10.97
19.58
26.73
32.17
35.86
38.04
39.12
39.56
39.72
39.82
40.0
40.34
40.97
41.89
43.06
44.23
45.1
45.42
45.03
43.95
42.29
40.28
38.08
35.78
33.4
30.88
28.15
25.2
22.1
18.99
16.05
13.33
10.79
8.23
5.43
2.14
-1.84
-6.61
-12.15
-18.14
-23.98
-28.78
-31.56
-31.6
-28.62
-22.89
-15.13
-6.25
2.87
11.52
19.2
25.45
29.99
32.67
33.55
32.97
31.43
29.53
27.78
26.56
26.03
26.17
26.81
27.69
28.52
28.98
28.82
27.83
25.97
23.38
20.32
17.14
14.06
11.16
8.28
5.16
1.6
-2.43
-6.76
-11.19
-15.54
-19.66
-23.52
-27.05
-30.23
-33.15
-36.05
-39.34
-43.36
-48.17
-53.33
-57.94
-60.82
-60.88
-57.47
-50.58
-40.78
-29.15
-16.94
-5.33
4.8
12.99
19.16
23.47
26.15
27.46
27.65
27.02
25.98
24.94
24.24
23.97
23.99
24.04
23.85
23.3
22.37
21.11
19.53
17.67
15.55
13.25
10.86
8.45
6.02
3.55
1.05
-1.48
-4.02
-6.55
-9.1
-11.63
-14.06
-16.26
-18.21
-20.04
-22.1
-24.85
-28.63
-33.51
-39.11
-44.67
-49.14
-51.43
-50.68
-46.48
-39.05
-29.25
-18.28
-7.37
2.58
11.18
18.39
24.34
29.05
32.42
34.36
34.99
34.7
34.03
33.48
33.31
33.46
33.7
33.79
33.63
33.2
32.57
31.8
30.89
29.82
28.58
27.19
25.68
24.06
22.32
20.41
18.33
16.09
13.74
11.35
8.96
6.55
4.02
1.23
-2.04
-5.98
-10.76
-16.35
-22.41
-28.26
-32.89
-35.2
-34.26
-29.71
-21.91
-11.84
-0.86
9.73
18.93
26.22
31.5
34.9
36.66
37.06
36.36
34.91
33.12
31.38
30.04
29.3
29.15
29.38
29.65
29.62
28.98
27.63
25.62
23.15
20.43
17.64
14.87
12.15
9.43
6.58
3.52
0.15
-3.52
-7.37
-11.23
-14.89
-18.24
-21.31
-24.28
-27.42
-31.08
-35.49
-40.78
-46.79
-53.02
-58.59
-62.33
-63.18
-60.5
-54.38
-45.63
-35.5
-25.23
-15.69
-7.24
0.08
6.31
11.39
15.1
17.36
18.27
18.3
17.97
17.76
17.84
18.06
18.17
18.02
17.63
17.22
16.97
16.95
17.0
16.86
16.23
14.93
12.94
10.36
7.43
4.4
1.44
-1.38
-4.13
-6.96
-9.99
-13.26
-16.67
-20.05
-23.3
-26.45
-29.58
-32.81
-36.28
-40.06
-44.24
-48.78
-53.4
-57.48
-60.14
-60.43
-57.77
-52.15
-44.14
-34.72
-24.89
-15.4
-6.67
1.1
7.8
13.31
17.49
20.28
21.72
22.04
21.57
20.83
20.26
20.29
21.07
22.51
24.29
25.99
27.24
27.81
27.61
26.64
24.99
22.78
20.21
17.57
15.2
13.38
12.2
11.58
11.25
10.87
10.13
8.84
7.02
4.86
2.66
0.66
-1.05
-2.65
-4.48
-6.89
-10.03
-13.75
-17.64
-21.05
-23.26
-23.56
-21.46
-16.78
-9.87
-1.54
7.15
15.17
21.9
27.12
30.93
33.48
34.84
35.05
34.27
32.92
31.6
30.89
31.06
32.04
33.44
34.81
35.73
35.99
35.5
34.33
32.54
30.24
27.54
24.53
21.31
17.94
14.45
10.89
7.16
3.22
-0.93
-5.15
-9.15
-12.64
-15.44
-17.66
-19.7
-22.08
-25.25
-29.37
-34.3
-39.58
-44.51
-48.28
-50.09
-49.33
-45.82
-39.87
-32.23
-23.9
-15.8
-8.56
-2.52
2.19
5.53
7.55
8.38
8.37
8.02
7.84
8.14
8.92
10.0
11.1
12.01
12.63
12.95
12.97
12.7
12.21
11.57
10.84
9.97
8.84
7.28
5.27
2.88
0.35
-2.12
-4.44
-6.7
-9.05
-11.59
-14.34
-17.21
-20.07
-22.82
-25.42
-27.96
-30.59
-33.48
-36.81
-40.71
-45.11
-49.65
-53.72
-56.51
-57.29
-55.6
-51.44
-45.31
-37.99
-30.33
-22.95
-16.2
-10.1
-4.68
-0.04
3.57
5.92
6.95
6.91
6.26
5.51
5.07
5.08
5.48
6.12
6.91
7.81
8.86
10.03
11.22
12.3
13.07
13.42
13.26
12.66
11.77
10.83
10.1
9.76
9.84
10.14
10.33
10.05
9.04
7.29
5.02
2.56
0.22
-1.82
-3.55
-5.11
-6.7
-8.56
-10.87
-13.69
-17.0
-20.54
-23.85
-26.28
-27.08
-25.65
-21.73
-15.55
-7.83
0.43
8.26
14.97
20.29
24.3
27.25
29.37
30.79
31.6
31.89
31.86
31.74
31.73
31.89
32.18
32.48
32.74
32.94
33.09
33.13
32.95
32.39
31.36
29.91
28.17
26.29
24.42
22.57
20.67
18.61
16.28
13.56
10.43
6.94
3.27
-0.33
-3.64
-6.63
-9.52
-12.67
-16.47
-21.13
-26.61
-32.56
-38.36
-43.32
-46.7
-47.9
-46.62
-42.94
-37.33
-30.55
-23.4
-16.52
-10.31
-4.95
-0.47
3.08
5.66
7.29
8.07
8.23
8.06
7.88
7.93
8.36
9.2
10.31
11.52
12.6
13.41
13.88
13.96
13.63
12.77
11.21
8.89
5.9
2.56
-0.72
-3.55
-5.77
-7.44
-8.83
-10.2
-11.75
-13.55
-15.62
-17.89
-20.28
-22.68
-25.01
-27.24
-29.46
-31.84
-34.66
-38.12
-42.3
-46.93
-51.41
-54.92
-56.57
-55.67
-51.98
-45.83
-37.96
-29.32
-20.76
-12.89
-6.04
-0.36
4.03
7.03
8.66
9.15
8.9
8.44
8.18
8.35
8.93
9.72
10.52
11.16
11.59
11.87
12.11
12.38
12.66
12.85
12.85
12.54
11.92
11.07
10.11
9.1
8.06
6.98
5.89
4.9
4.12
3.59
3.2
2.73
1.98
0.85
-0.57
-2.13
-3.68
-5.28
-7.1
-9.4
-12.38
-16.13
-20.55
-25.35
-30.04
-33.93
-36.25
-36.31
-33.7
-28.49
-21.14
-12.48
-3.44
5.14
12.73
19.09
24.2
28.19
31.19
33.34
34.67
35.28
35.32
35.04
34.74
34.73
35.15
35.98
37.01
38.0
38.69
38.93
38.67
37.89
36.66
35.02
33.05
30.88
28.66
26.5
24.43
22.39
20.25
17.85
15.12
12.08
8.82
5.41
1.89
-1.75
-5.57
-9.68
-14.16
-19.02
-24.14
-29.17
-33.46
-36.21
-36.6
-34.2
-29.15
-22.19
-14.42
-6.92
-0.41
4.82
8.82
11.76
13.69
14.59
14.47
13.5
12.03
10.56
9.51
9.16
9.63
10.8
12.44
14.2
15.68
16.46
16.26
15.0
12.84
10.19
7.43
4.88
2.67
0.76
-1.02
-2.84
-4.85
-7.14
-9.71
-12.47
-15.25
-17.92
-20.4
-22.76
-25.22
-28.15
-31.91
-36.77
-42.76
-49.49
-56.25
-62.0
-65.69
-66.47
-64.02
-58.58
-50.86
-41.79
-32.31
-23.17
-14.89
-7.78
-1.96
2.59
6.03
8.61
10.54
11.97
12.99
13.72
14.26
14.75
15.3
15.88
16.47
16.99
17.46
17.91
18.34
18.7
18.8
18.48
17.64
16.35
14.79
13.18
11.68
10.34
9.11
7.91
6.64
5.22
3.65
1.91
0.04
-1.98
-4.23
-6.81
-9.91
-13.66
-18.1
-23.01
-27.92
-32.14
-34.9
-35.56
-33.72
-29.39
-22.93
-15.01
-6.39
2.21
10.31
17.68
24.26
30.02
34.86
38.6
41.05
42.19
42.21
41.59
40.88
40.58
40.92
41.8
42.92
43.87
44.37
44.26
43.52
42.21
40.36
37.97
35.06
31.73
28.16
24.61
21.28
18.28
15.57
13.06
10.66
8.35
6.06
3.65
0.94
-2.31
-6.28
-11.04
-16.47
-22.29
-27.99
-32.82
-35.93
-36.52
-34.17
-29.04
-21.95
-14.01
-6.35
0.3
5.7
9.94
13.27
15.82
17.6
18.56
18.78
18.48
17.96
17.58
17.54
17.89
18.52
19.21
19.73
19.91
19.65
18.94
17.78
16.11
13.91
11.19
8.08
4.83
1.67
-1.22
-3.83
-6.31
-8.85
-11.55
-14.46
-17.49
-20.53
-23.48
-26.28
-28.92
-31.49
-34.19
-37.27
-41.0
-45.42
-50.23
-54.7
-57.88
-58.83
-56.97
-52.26
-45.2
-36.7
-27.75
-19.23
-11.68
-5.41
-0.47
3.17
5.6
6.98
7.55
7.64
7.64
7.93
8.7
9.99
11.64
13.37
14.92
16.11
16.82
17.02
16.73
16.05
15.1
14.01
12.85
11.65
10.4
9.14
7.94
6.89
5.96
4.99
3.78
2.14
0.1
-2.18
-4.4
-6.38
-8.06
-9.61
-11.18
-12.97
-15.11
-17.65
-20.59
-23.75
-26.71
-28.79
-29.25
-27.45
-23.17
-16.69
-8.75
-0.28
7.82
14.95
20.85
25.55
29.17
31.85
33.68
34.71
35.08
35.03
34.87
34.85
35.03
35.31
35.51
35.52
35.34
35.01
34.57
33.93
32.95
31.53
29.72
27.69
25.59
23.5
21.38
19.15
16.82
14.51
12.38
10.57
9.09
7.78
6.41
4.73
2.54
-0.32
-3.9
-8.11
-12.7
-17.22
-21.15
-23.89
-25.02
-24.29
-21.76
-17.76
-12.87
-7.76
-2.99
1.01
4.09
6.26
7.57
8.05
7.74
6.81
5.53
4.32
3.47
3.13
3.18
3.44
3.77
4.2
4.8
5.59
6.43
7.01
7.06
6.45
5.3
3.86
2.35
0.9
-0.54
-2.02
-3.62
-5.33
-7.14
-9.13
-11.34
-13.79
-16.43
-19.1
-21.62
-23.95
-26.17
-28.5
-31.14
-34.22
-37.57
-40.86
-43.54
-45.07
-45.04
-43.26
-39.88
-35.29
-29.99
-24.5
-19.21
-14.42
-10.3
-6.89
-4.17
-2.1
-0.59
0.4
0.93
1.08
1.03
1.08
1.47
2.31
3.48
4.65
5.46
5.71
5.48
5.06
4.81
4.9
5.21
5.43
5.22
4.36
2.95
1.24
-0.38
-1.67
-2.57
-3.25
-3.94
-4.91
-6.29
-8.03
-9.95
-11.87
-13.63
-15.22
-16.69
-18.15
-19.69
-21.36
-23.2
-25.26
-27.55
-29.98
-32.3
-34.05
-34.61
-33.49
-30.4
-25.49
-19.24
-12.36
-5.56
0.66
6.01
10.44
13.98
16.7
18.65
19.9
20.55
20.78
20.8
20.86
21.12
21.66
22.41
23.18
23.78
24.05
23.99
23.7
23.35
23.01
22.57
21.77
20.38
18.33
15.85
13.39
11.42
10.21
9.68
9.44
8.99
7.96
6.27
4.14
1.92
-0.14
-1.94
-3.63
-5.48
-7.76
-10.63
-14.1
-17.94
-21.76
-25.0
-27.06
-27.45
-25.95
-22.66
-18.02
-12.67
-7.27
-2.32
1.87
5.18
7.59
9.17
10.01
10.3
10.28
10.22
10.3
10.61
11.13
11.79
12.48
13.14
13.7
14.13
14.37
14.33
13.91
13.07
11.76
10.01
7.92
5.62
3.28
1.04
-1.05
-3.01
-4.95
-6.96
-9.09
-11.37
-13.77
-16.26
-18.82
-21.42
-24.02
-26.6
-29.19
-31.9
-34.88
-38.33
-42.37
-46.96
-51.72
-56.0
-58.89
-59.54
-57.44
-52.6
-45.65
-37.63
-29.55
-22.17
-15.79
-10.32
-5.57
-1.4
2.07
4.66
6.24
6.9
6.98
6.87
6.93
7.29
7.9
8.58
9.21
9.81
10.48
11.29
12.21
13.07
13.59
13.51
12.76
11.45
9.88
8.41
7.31
6.64
6.25
5.83
5.07
3.75
1.84
-0.5
-2.99
-5.37
-7.49
-9.37
-11.16
-13.08
-15.34
-18.14
-21.6
-25.76
-30.5
-35.41
-39.77
-42.65
-43.17
-40.77
-35.47
-27.86
-18.95
-9.72
-0.93
7.05
14.13
20.29
25.45
29.53
32.48
34.45
35.77
36.83
37.95
39.27
40.73
42.16
43.34
44.12
44.38
44.03
43.11
41.73
40.09
38.37
36.71
35.11
33.46
31.61
29.41
26.83
23.95
20.96
18.06
15.44
13.12
11.01
8.87
6.47
3.58
0.07
-4.16
-9.12
-14.64
-20.29
-25.34
-28.86
-30.04
-28.49
-24.36
-18.32
-11.24
-4.01
2.77
8.73
13.65
17.45
20.09
21.65
22.36
22.47
22.25
21.9
21.54
21.29
21.18
21.26
21.5
21.81
22.04
22.0
21.52
20.47
18.79
16.48
13.63
10.45
7.15
3.97
1.01
-1.75
-4.46
-7.29
-10.33
-13.57
-16.86
-20.06
-23.05
-25.84
-28.6
-31.61
-35.14
-39.42
-44.39
-49.73
-54.77
-58.64
-60.46
-59.59
-55.85
-49.57
-41.56
-32.79
-24.22
-16.46
-9.81
-4.27
0.24
3.83
6.57
8.53
9.84
10.66
11.19
11.62
12.05
12.54
13.16
13.99
15.05
16.29
17.5
18.4
18.73
18.37
17.34
15.79
13.92
11.9
9.85
7.83
5.88
3.95
2.01
0.0
-2.1
-4.26
-6.41
-8.49
-10.45
-12.32
-14.2
-16.26
-18.74
-21.89
-25.82
-30.28
-34.59
-37.62
-38.14
-35.23
-28.73
-19.27
-8.13
3.27
13.79
22.74
29.9
35.33
39.15
41.48
42.47
42.36
41.49
40.36
39.43
39.11
39.55
40.62
41.94
43.07
43.66
43.59
42.96
41.97
40.74
39.23
37.33
34.98
32.2
29.14
25.97
22.81
19.74
16.79
13.97
11.27
8.56
5.67
2.37
-1.5
-5.98
-10.98
-16.22
-21.24
-25.45
-28.15
-28.73
-26.9
-22.77
-16.9
-10.07
-3.03
3.69
9.79
15.06
19.31
22.28
23.77
23.83
22.76
21.05
19.28
17.84
16.98
16.68
16.72
16.79
16.61
15.95
14.81
13.29
11.55
9.74
7.94
6.13
4.38
2.71
1.15
-0.34
-1.96
-3.89
-6.23
-8.89
-11.61
-14.16
-16.44
-18.55
-20.75
-23.34
-26.57
-30.59
-35.37
-40.69
-45.99
-50.44
-53.06
-53.0
-49.91
-44.08
-36.32
-27.68
-19.12
-11.26
-4.36
1.52
6.35
10.05
12.51
13.69
13.76
13.11
12.24
11.61
11.48
11.78
12.23
12.52
12.45
12.05
11.51
10.98
10.53
10.02
9.27
8.09
6.52
4.7
2.93
1.45
0.43
-0.16
-0.52
-0.97
-1.74
-2.95
-4.52
-6.2
-7.73
-8.97
-9.91
-10.73
-11.64
-12.84
-14.54
-16.93
-20.1
-23.95
-28.04
-31.6
-33.73
-33.64
-30.91
-25.68
-18.53
-10.32
-1.92
5.96
12.93
18.87
23.8
27.82
30.95
33.15
34.44
34.89
34.71
34.24
33.8
33.57
33.53
33.56
33.51
33.36
33.12
32.79
32.32
31.51
30.24
28.49
26.41
24.24
22.25
20.58
19.2
17.98
16.74
15.29
13.55
11.5
9.2
6.74
4.19
1.54
-1.31
-4.52
-8.21
-12.42
-17.03
-21.75
-26.14
-29.66
-31.75
-31.97
-30.17
-26.53
-21.61
-16.15
-10.8
-6.07
-2.09
1.14
3.72
5.65
6.87
7.32
7.06
6.3
5.4
4.68
4.36
4.48
4.91
5.42
5.79
5.87
5.7
5.4
5.1
4.86
4.61
4.15
3.28
1.94
0.2
-1.72
-3.57
-5.2
-6.54
-7.65
-8.63
-9.6
-10.64
-11.86
-13.3
-14.93
-16.66
-18.39
-20.08
-21.81
-23.74
-26.1
-29.03
-32.56
-36.56
-40.71
-44.51
-47.35
-48.64
-47.97
-45.27
-40.86
-35.31
-29.29
-23.34
-17.8
-12.85
-8.6
-5.15
-2.63
-1.03
-0.25
-0.04
-0.07
-0.07
0.15
0.67
1.5
2.58
3.81
5.08
6.31
7.44
8.4
9.09
9.4
9.23
8.56
7.49
6.19
4.83
3.55
2.37
1.26
0.2
-0.82
-1.74
-2.52
-3.15
-3.71
-4.3
-5.06
-6.02
-7.13
-8.3
-9.41
-10.37
-11.22
-12.15
-13.42
-15.28
-17.82
-21.0
-24.54
-28.01
-30.89
-32.65
-32.83
-31.11
-27.43
-22.03
-15.45
-8.44
-1.73
4.09
8.76
12.32
14.94
16.8
18.02
18.67
18.87
18.88
18.98
19.48
20.54
22.13
24.08
26.15
28.13
29.86
31.22
32.16
32.7
32.89
32.74
32.22
31.28
29.8
27.86
25.69
23.61
21.94
20.71
19.71
18.56
16.93
14.77
12.26
9.69
7.28
5.07
2.87
0.39
-2.67
-6.52
-11.26
-16.76
-22.62
-28.16
-32.52
-34.92
-34.87
-32.33
-27.73
-21.8
-15.33
-8.99
-3.22
1.77
5.9
9.13
11.35
12.49
12.56
11.79
10.62
9.61
9.26
9.79
11.12
12.83
14.43
15.52
15.92
15.67
14.96
13.99
12.88
11.65
10.29
8.77
7.05
5.15
3.12
1.07
-0.88
-2.6
-4.08
-5.44
-6.95
-8.93
-11.57
-14.84
-18.5
-22.2
-25.69
-28.94
-32.2
-35.84
-40.12
-45.16
-50.84
-56.89
-62.9
-68.39
-72.74
-75.25
-75.26
-72.33
-66.47
-58.18
-48.42
-38.28
-28.75
-20.44
-13.52
-7.86
-3.17
0.72
3.89
6.28
7.85
8.73
9.24
9.87
11.05
13.07
15.87
19.14
22.39
25.19
27.27
28.62
29.34
29.53
29.22
28.4
27.09
25.4
23.56
21.83
20.35
19.13
18.03
16.91
15.66
14.26
12.74
11.11
9.4
7.62
5.85
4.15
2.52
0.85
-1.01
-3.26
-6.12
-9.68
-13.98
-18.84
-23.84
-28.23
-31.05
-31.41
-28.69
-22.91
-14.7
-5.14
4.54
13.35
20.65
26.26
30.26
32.96
34.61
35.49
35.75
35.59
35.22
34.95
35.13
35.99
37.53
39.44
41.22
42.39
42.66
42.02
40.64
38.74
36.47
33.9
31.07
27.99
24.74
21.38
17.93
14.33
10.51
6.38
2.0
-2.5
-6.82
-10.73
-14.02
-16.78
-19.36
-22.29
-26.17
-31.34
-37.67
-44.45
-50.52
-54.62
-55.7
-53.35
-47.83
-39.99
-30.95
-21.82
-13.4
-6.16
-0.25
4.37
7.79
10.2
11.8
12.86
13.65
14.41
15.21
16.02
16.68
17.08
17.23
17.24
17.29
17.47
17.76
17.98
17.91
17.4
16.32
14.71
12.63
10.25
7.82
5.61
3.79
2.33
0.89
-0.96
-3.6
-7.11
-11.23
-15.49
-19.47
-22.92
-25.93
-28.78
-31.84
-35.46
-39.88
-45.14
-51.03
-56.97
-62.1
-65.34
-65.78
-62.9
-56.8
-48.13
-37.98
-27.48
-17.58
-8.82
-1.37
4.84
9.98
14.18
17.44
19.78
21.34
22.34
23.15
24.09
25.32
26.86
28.57
30.27
31.82
33.15
34.25
35.05
35.39
35.08
33.97
32.04
29.45
26.52
23.62
20.93
18.5
16.2
13.77
11.04
8.01
4.85
1.82
-0.82
-3.01
-4.91
-6.83
-9.16
-12.16
-15.88
-20.1
-24.33
-27.88
-29.99
-29.95
-27.29
-21.96
-14.39
-5.38
4.09
13.16
21.22
27.94
33.17
36.81
38.82
39.28
38.49
36.95
35.26
33.97
33.34
33.39
33.92
34.58
35.04
35.01
34.27
32.75
30.54
27.86
25.08
22.48
20.22
18.2
16.16
13.7
10.6
6.8
2.55
-1.75
-5.76
-9.38
-12.78
-16.35
-20.41
-25.14
-30.45
-36.09
-41.66
-46.76
-50.83
-53.26
-53.4
-50.83
-45.56
-38.1
-29.4
-20.48
-12.15
-4.87
1.22
6.09
9.75
12.18
13.4
13.63
13.27
12.76
12.55
12.88
13.76
15.02
16.37
17.54
18.34
18.75
18.86
18.8
18.59
18.08
17.01
15.21
12.76
9.96
7.25
4.96
3.09
1.35
-0.7
-3.33
-6.53
-10.01
-13.36
-16.32
-18.92
-21.39
-24.1
-27.38
-31.48
-36.52
-42.41
-48.73
-54.71
-59.3
-61.34
-59.99
-55.04
-46.97
-36.9
-26.19
-16.05
-7.21
0.1
5.97
10.58
14.02
16.22
17.16
16.97
16.08
15.02
14.33
14.28
14.85
15.79
16.82
17.76
18.58
19.31
19.94
20.3
20.19
19.43
17.97
15.95
13.64
11.36
9.36
7.8
6.68
5.81
4.89
3.64
1.84
-0.55
-3.39
-6.45
-9.47
-12.24
-14.68
-16.77
-18.66
-20.65
-23.12
-26.28
-30.02
-33.82
-36.72
-37.74
-36.16
-31.81
-25.1
-16.77
-7.63
1.63
10.56
18.8
26.07
32.05
36.42
39.05
40.02
39.69
38.6
37.34
36.44
36.11
36.31
36.77
37.16
37.2
36.79
35.93
34.71
33.2
31.5
29.7
27.88
26.1
24.32
22.46
20.38
18.0
15.27
12.25
9.0
5.58
2.05
-1.57
-5.28
-9.14
-13.27
-17.9
-23.18
-29.03
-35.06
-40.51
-44.43
-46.01
-44.79
-40.87
-34.82
-27.5
-19.83
-12.57
-6.24
-1.13
2.68
5.2
6.55
6.93
6.63
6.0
5.43
5.19
5.42
6.07
6.92
7.7
8.23
8.46
8.42
8.19
7.81
7.24
6.41
5.24
3.68
1.67
-0.73
-3.4
-6.11
-8.6
-10.69
-12.38
-13.82
-15.25
-16.83
-18.55
-20.36
-22.21
-24.22
-26.65
-29.8
-33.87
-38.75
-43.97
-48.76
-52.1
-53.03
-50.92
-45.69
-37.92
-28.63
-19.04
-10.21
-2.75
3.14
7.59
10.79
12.96
14.26
14.87
15.03
15.0
14.95
14.96
14.97
14.83
14.5
14.07
13.7
13.62
13.89
14.4
14.85
14.88
14.23
12.83
10.82
8.46
6.04
3.82
1.95
0.48
-0.63
-1.58
-2.56
-3.78
-5.34
-7.26
-9.44
-11.77
-14.17
-16.61
-19.18
-22.05
-25.38
-29.27
-33.57
-37.88
-41.46
-43.44
-43.02
-39.72
-33.59
-25.17
-15.41
-5.35
4.11
12.42
19.4
25.09
29.6
32.96
35.11
36.01
35.74
34.65
33.23
32.07
31.57
31.9
32.89
34.19
35.36
36.12
36.32
35.99
35.25
34.26
33.1
31.79
30.33
28.7
26.86
24.79
22.43
19.79
16.9
13.93
11.07
8.52
6.33
4.35
2.25
-0.39
-3.86
-8.29
-13.49
-18.94
-23.89
-27.46
-28.9
-27.7
-23.88
-17.91
-10.69
-3.19
3.72
9.53
14.0
17.16
19.09
19.89
19.67
18.63
17.07
15.44
14.15
13.52
13.55
14.04
14.62
14.95
14.8
14.13
12.99
11.43
9.48
7.13
4.42
1.46
-1.54
-4.41
-7.06
-9.51
-11.88
-14.33
-16.95
-19.7
-22.47
-25.04
-27.23
-28.97
-30.4
-31.84
-33.71
-36.42
-40.17
-44.8
-49.76
-54.17
-57.07
-57.64
-55.4
-50.41
-43.15
-34.48
-25.34
-16.62
-8.94
-2.63
2.23
5.77
8.12
9.51
10.17
10.33
10.32
10.37
10.69
11.28
11.95
12.41
12.43
11.98
11.22
10.48
10.05
10.02
10.23
10.36
10.07
9.2
7.79
6.05
4.25
2.6
1.16
-0.12
-1.35
-2.63
-3.97
-5.35
-6.72
-8.11
-9.62
-11.38
-13.5
-16.03
-18.97
-22.27
-25.85
-29.6
-33.25
-36.34
-38.22
-38.16
-35.67
-30.59
-23.24
-14.37
-4.9
4.31
12.63
19.76
25.68
30.43
34.03
36.43
37.56
37.55
36.77
35.77
35.13
35.24
36.14
37.55
39.08
40.34
41.15
41.45
41.26
40.55
39.29
37.48
35.22
32.7
30.12
27.61
25.14
22.61
19.88
16.85
13.54
10.13
6.83
3.83
1.13
-1.47
-4.34
-7.92
-12.49
-18.01
-24.06
-29.84
-34.42
-36.89
-36.66
-33.59
-28.08
-20.93
-13.12
-5.55
1.18
6.77
11.18
14.47
16.67
17.79
17.99
17.52
16.78
16.15
15.86
15.9
16.14
16.39
16.52
16.49
16.29
15.84
15.04
13.76
11.94
9.63
7.02
4.28
1.6
-0.9
-3.21
-5.35
-7.37
-9.37
-11.44
-13.68
-16.11
-18.66
-21.18
-23.5
-25.55
-27.45
-29.53
-32.27
-36.03
-40.86
-46.31
-51.48
-55.21
-56.46
-54.61
-49.67
-42.2
-33.16
-23.53
-14.17
-5.7
1.54
7.37
11.74
14.65
16.17
16.5
15.9
14.7
13.29
12.0
11.03
10.44
10.15
10.05
10.03
10.02
9.97
9.83
9.49
8.89
8.03
6.96
5.74
4.47
3.17
1.84
0.5
-0.8
-2.03
-3.25
-4.56
-6.15
-8.11
-10.44
-13.0
-15.57
-17.99
-20.15
-22.08
-23.88
-25.68
-27.63
-29.92
-32.62
-35.64
-38.55
-40.62
-41.02
-39.1
-34.65
-27.95
-19.74
-10.83
-1.94
6.41
13.97
20.55
25.98
30.06
32.66
33.77
33.59
32.57
31.23
30.12
29.6
29.75
30.37
31.08
31.55
31.58
31.18
30.49
29.67
28.79
27.78
26.6
25.22
23.74
22.38
21.31
20.6
20.09
19.52
18.56
17.04
14.98
12.54
10.0
7.51
5.11
2.68
0.05
-3.0
-6.62
-10.89
-15.75
-20.86
-25.58
-29.02
-30.24
-28.59
-24.03
-17.14
-8.96
-0.67
6.8
12.87
17.35
20.31
21.96
22.48
22.16
21.24
20.03
18.8
17.77
17.03
16.61
16.47
16.46
16.44
16.31
15.95
15.32
14.4
13.18
11.66
9.81
7.67
5.31
2.84
0.35
-2.04
-4.26
-6.27
-8.1
-9.83
-11.57
-13.46
-15.56
-17.79
-20.03
-22.16
-24.16
-26.2
-28.59
-31.6
-35.42
-39.95
-44.87
-49.56
-53.21
-54.97
-54.11
-50.33
-43.91
-35.69
-26.84
-18.47
-11.31
-5.52
-0.92
2.82
5.86
8.19
9.72
10.46
10.61
10.51
10.55
10.94
11.74
12.85
14.11
15.3
16.25
16.82
16.95
16.65
15.96
14.93
13.62
12.09
10.43
8.75
7.15
5.64
4.2
2.8
1.43
0.09
-1.22
-2.63
-4.29
-6.32
-8.67
-11.07
-13.14
-14.62
-15.55
-16.25
-17.16
-18.7
-21.08
-24.34
-28.36
-32.85
-37.27
-40.86
-42.67
-41.88
-38.06
-31.48
-22.96
-13.62
-4.56
3.48
10.2
15.61
19.93
23.42
26.21
28.35
29.86
30.73
31.05
31.02
30.88
30.9
31.24
31.91
32.81
33.73
34.44
34.7
34.34
33.28
31.55
29.26
26.61
23.81
21.09
18.6
16.45
14.68
13.2
11.79
10.2
8.21
5.76
3.02
0.25
-2.27
-4.48
-6.56
-8.89
-11.89
-15.76
-20.41
-25.39
-29.99
-33.41
-34.96
-34.23
-31.18
-26.13
-19.71
-12.64
-5.57
0.98
6.7
11.37
14.85
17.07
18.09
18.16
17.65
16.99
16.49
16.29
16.37
16.56
16.73
16.75
16.57
16.13
15.36
14.21
12.64
10.64
8.26
5.59
2.78
0.02
-2.48
-4.57
-6.21
-7.53
-8.82
-10.41
-12.53
-15.19
-18.21
-21.25
-24.0
-26.3
-28.22
-30.05
-32.2
-35.08
-38.96
-43.76
-49.04
-54.01
-57.7
-59.2
-57.97
-53.92
-47.49
-39.47
-30.8
-22.32
-14.67
-8.21
-3.07
0.83
3.67
5.72
7.25
8.49
9.57
10.52
11.31
11.88
12.23
12.42
12.55
12.77
13.17
13.78
14.55
15.31
15.87
16.02
15.59
14.54
12.94
11.02
9.04
7.31
5.96
5.05
4.43
3.86
3.08
1.93
0.34
-1.61
-3.79
-6.07
-8.33
-10.52
-12.64
-14.74
-17.02
-19.73
-23.18
-27.51
-32.5
-37.48
-41.46
-43.3
-42.15
-37.75
-30.53
-21.46
-11.72
-2.34
6.03
13.11
18.93
23.63
27.22
29.73
31.17
31.72
31.72
31.63
31.8
32.42
33.4
34.52
35.6
36.54
37.31
37.88
38.08
37.74
36.72
35.1
33.11
31.03
29.05
27.18
25.34
23.47
21.51
19.48
17.34
14.94
12.15
8.91
5.37
1.75
-1.76
-5.18
-8.74
-12.72
-17.35
-22.48
-27.59
-31.84
-34.32
-34.31
-31.52
-26.22
-19.12
-11.19
-3.33
3.79
9.78
14.47
17.81
19.78
20.43
20.01
18.93
17.67
16.65
16.09
15.98
16.15
16.44
16.71
16.88
16.88
16.6
15.93
14.78
13.14
11.05
8.65
6.02
3.27
0.43
-2.44
-5.28
-8.02
-10.59
-12.97
-15.16
-17.2
-19.19
-21.2
-23.3
-25.58
-28.09
-30.9
-34.07
-37.58
-41.33
-44.99
-48.07
-49.98
-50.1
-47.95
-43.38
-36.66
-28.48
-19.84
-11.69
-4.71
0.91
5.43
9.28
12.69
15.58
17.59
18.35
17.8
16.32
14.58
13.24
12.69
12.89
13.52
14.19
14.66
14.88
14.89
14.7
14.19
13.17
11.48
9.15
6.45
3.74
1.39
-0.46
-1.94
-3.39
-5.13
-7.31
-9.86
-12.57
-15.17
-17.51
-19.55
-21.37
-23.06
-24.79
-26.79
-29.34
-32.62
-36.47
-40.3
-43.13
-43.82
-41.57
-36.17
-28.08
-18.23
-7.72
2.49
11.68
19.42
25.45
29.67
32.14
33.03
32.71
31.65
30.43
29.61
29.62
30.61
32.41
34.57
36.52
37.88
38.5
38.52
38.25
37.89
37.51
37.0
36.2
34.97
33.23
30.97
28.21
25.06
21.67
18.25
14.99
11.94
9.05
6.16
3.05
-0.53
-4.76
-9.76
-15.41
-21.28
-26.61
-30.47
-32.05
-30.96
-27.32
-21.68
-14.86
-7.61
-0.51
6.07
11.88
16.7
20.34
22.64
23.53
23.16
21.85
20.09
18.38
17.09
16.36
16.01
15.7
15.1
14.05
12.57
10.77
8.76
6.58
4.27
1.91
-0.35
-2.36
-4.11
-5.75
-7.57
-9.84
-12.64
-15.9
-19.37
-22.81
-26.04
-29.01
-31.8
-34.57
-37.54
-40.99
-45.14
-49.93
-54.96
-59.44
-62.36
-62.74
-59.99
-54.11
-45.74
-35.96
-25.95
-16.66
-8.66
-2.13
2.95
6.66
9.07
10.27
10.54
10.34
10.13
10.25
10.78
11.51
12.17
12.61
12.86
13.1
13.43
13.77
13.92
13.65
12.82
11.48
9.77
7.83
5.77
3.63
1.42
-0.88
-3.27
-5.72
-8.13
-10.31
-12.09
-13.36
-14.25
-15.11
-16.41
-18.62
-21.95
-26.28
-31.08
-35.47
-38.4
-38.91
-36.44
-30.96
-23.06
-13.73
-4.06
5.06
13.11
19.93
25.6
30.21
33.86
36.55
38.29
39.14
39.24
38.86
38.35
38.1
38.32
39.01
39.89
40.53
40.57
39.93
38.75
37.32
35.85
34.36
32.69
30.62
28.08
25.19
22.2
19.37
16.89
14.76
12.84
10.95
8.91
6.54
3.67
0.11
-4.26
-9.4
-14.97
-20.28
-24.42
-26.49
-25.98
-22.91
-17.85
-11.68
-5.2
1.03
6.71
11.73
15.89
18.98
20.8
21.36
20.88
19.75
18.46
17.4
16.81
16.72
17.03
17.49
17.81
17.73
17.1
15.9
14.18
12.06
9.61
6.89
3.96
0.91
-2.11
-5.01
-7.76
-10.41
-13.06
-15.75
-18.47
-21.18
-23.83
-26.4
-28.91
-31.4
-34.03
-37.05
-40.75
-45.23
-50.18
-54.79
-57.91
-58.44
-55.79
-50.06
-41.99
-32.68
-23.1
-13.97
-5.73
1.41
7.31
11.86
15.07
17.04
17.97
18.14
17.84
17.34
16.87
16.56
16.43
16.44
16.53
16.73
17.02
17.37
17.55
17.24
16.15
14.2
11.54
8.56
5.64
3.0
0.64
-1.58
-3.82
-6.19
-8.73
-11.43
-14.27
-17.19
-20.1
-22.87
-25.42
-27.73
-29.89
-32.08
-34.47
-37.18
-40.13
-43.02
-45.24
-46.01
-44.55
-40.42
-33.72
-25.08
-15.4
-5.66
3.41
11.4
18.06
23.2
26.73
28.64
29.19
28.86
28.21
27.67
27.47
27.61
28.02
28.6
29.28
29.98
30.59
30.96
31.0
30.72
30.17
29.41
28.44
27.25
25.81
24.2
22.53
20.89
19.27
17.54
15.55
13.25
10.71
8.12
5.71
3.55
1.55
-0.56
-3.13
-6.41
-10.33
-14.46
-18.04
-20.16
-20.09
-17.52
-12.6
