0
14.44
11.78
9.27
6.86
4.47
1.99
-0.66
-3.49
-6.47
-9.51
-12.5
-15.33
-17.94
-20.33
-22.63
-25.08
-27.95
-31.52
-35.9
-40.95
-46.18
-50.81
-53.86
-54.46
-52.05
-46.63
-38.71
-29.21
-19.11
-9.29
-0.37
7.35
13.72
18.74
22.45
24.91
26.27
26.72
26.55
26.02
25.42
24.99
24.84
24.96
25.24
25.6
25.97
26.37
26.8
27.16
27.2
26.63
25.19
22.88
19.91
16.68
13.55
10.8
8.47
6.46
4.56
2.53
0.18
-2.62
-5.81
-9.24
-12.62
-15.73
-18.48
-20.99
-23.57
-26.55
-30.14
-34.32
-38.76
-42.82
-45.72
-46.66
-45.03
-40.65
-33.83
-25.3
-16.04
-6.96
1.27
8.28
13.98
18.4
21.58
23.58
24.49
24.48
23.78
22.7
21.54
20.55
19.87
19.54
19.48
19.59
19.73
19.8
19.69
19.35
18.71
17.7
16.28
14.45
12.27
9.81
7.12
4.22
1.1
-2.23
-5.67
-9.04
-12.15
-14.89
-17.35
-19.7
-22.27
-25.32
-29.03
-33.31
-37.82
-41.96
-44.96
-46.04
-44.61
-40.47
-33.87
-25.47
-16.18
-6.92
1.56
8.77
14.52
18.86
21.98
24.14
25.57
26.45
26.89
26.97
26.81
26.54
26.27
26.05
25.86
25.63
25.34
25.03
24.8
24.7
24.63
24.33
23.49
21.91
19.61
16.83
13.93
11.13
8.52
5.98
3.28
0.29
-3.0
-6.42
-9.76
-12.8
-15.45
-17.75
-19.91
-22.21
-24.96
-28.45
-32.75
-37.7
-42.76
-47.1
-49.73
-49.83
-46.93
-41.13
-33.03
-23.58
-13.81
-4.54
3.68
10.61
16.16
20.38
23.31
25.03
25.71
25.6
25.04
24.36
23.8
23.46
23.27
23.11
22.89
22.66
22.57
22.8
23.37
24.08
24.51
24.26
23.13
21.18
18.72
16.07
13.41
10.75
7.99
5.03
1.88
-1.35
-4.57
-7.69
-10.67
-13.45
-15.97
-18.24
-20.44
-22.86
-25.88
-29.71
-34.27
-39.13
-43.6
-46.89
-48.3
-47.33
-43.78
-37.85
-30.03
-21.1
-11.92
-3.21
4.49
10.95
16.07
19.85
22.26
23.31
23.09
21.85
19.98
17.95
16.16
14.94
14.38
14.41
14.83
15.4
15.95
16.38
16.7
16.93
17.0
16.76
16.03
14.63
12.54
9.86
6.8
3.55
0.28
-2.9
-5.92
-8.78
-11.59
-14.53
-17.83
-21.67
-26.05
-30.72
-35.14
-38.64
-40.49
-40.17
-37.44
-32.4
-25.52
-17.49
-9.06
-0.86
6.66
13.25
18.78
23.13
26.14
27.7
27.83
26.75
24.95
23.01
21.42
20.5
20.23
20.47
20.95
21.49
21.96
22.29
22.4
22.21
21.6
20.55
19.07
17.25
15.2
12.97
10.58
7.98
5.18
2.16
-1.01
-4.29
-7.64
-10.99
-14.25
-17.32
-20.11
-22.61
-24.95
-27.39
-30.25
-33.79
-38.07
-42.84
-47.49
-51.18
-53.01
-52.27
-48.59
-42.13
-33.48
-23.56
-13.37
-3.76
4.66
11.59
16.94
20.77
23.25
24.61
25.18
25.25
25.11
24.94
24.85
24.85
24.91
24.96
24.94
24.8
24.57
24.32
24.12
24.02
23.95
23.75
23.2
22.11
20.4
18.09
15.34
12.37
9.44
6.73
4.33
2.17
0.05
-2.27
-4.88
-7.78
-10.78
-13.71
-16.5
-19.24
-22.06
-25.11
-28.46
-32.17
-36.23
-40.56
-44.84
-48.43
-50.48
-50.17
-47.05
-41.22
-33.3
-24.22
-14.89
-5.99
2.07
9.11
14.99
19.65
23.05
25.22
26.26
26.33
25.66
24.5
23.18
21.98
21.1
20.64
20.53
20.66
20.93
21.25
21.52
21.63
21.43
20.79
19.65
18.05
16.09
13.87
11.46
8.87
6.1
3.17
0.11
-2.98
-5.98
-8.77
-11.29
-13.49
-15.44
-17.27
-19.2
-21.47
-24.26
-27.6
-31.26
-34.73
-37.24
-37.96
-36.24
-31.85
-25.11
-16.8
-7.9
0.67
8.29
14.67
19.69
23.35
25.65
26.66
26.56
25.65
24.33
22.93
21.7
20.72
20.01
19.55
19.32
19.3
19.44
19.7
20.03
20.32
20.5
20.43
19.95
18.91
17.23
14.87
11.98
8.77
5.54
2.54
-0.05
-2.27
-4.31
-6.43
-8.84
-11.59
-14.54
-17.46
-20.2
-22.7
-25.06
-27.43
-29.97
-32.85
-36.23
-40.2
-44.67
-49.25
-53.22
-55.67
-55.72
-52.81
-46.9
-38.44
-28.28
-17.44
-6.92
2.45
10.19
16.15
20.51
23.56
25.6
26.79
27.23
27.03
26.45
25.84
25.55
25.79
26.53
27.54
28.55
29.3
29.67
29.66
29.34
28.81
28.15
27.37
26.39
25.09
23.34
21.1
18.43
15.46
12.34
9.17
6.01
2.92
-0.0
-2.68
-5.11
-7.4
-9.74
-12.31
-15.14
-18.14
-21.09
-23.83
-26.34
-28.82
-31.57
-34.91
-38.95
-43.48
-47.91
-51.35
-52.84
-51.67
-47.56
-40.8
-32.13
-22.49
-12.72
-3.45
4.94
12.23
18.21
22.74
25.74
27.26
27.56
27.05
26.18
25.36
24.84
24.7
24.86
25.16
25.44
25.61
25.67
25.63
25.51
25.29
24.9
24.28
23.36
22.05
20.31
18.11
15.51
12.68
9.87
7.27
4.91
2.64
0.24
-2.48
-5.52
-8.69
-11.72
-14.4
-16.64
-18.53
-20.3
-22.22
-24.61
-27.74
-31.72
-36.42
-41.32
-45.62
-48.37
-48.77
-46.36
-41.17
-33.72
-24.79
-15.28
-6.0
2.43
9.6
15.33
19.53
22.24
23.6
23.85
23.31
22.35
21.27
20.28
19.45
18.79
18.31
18.07
18.12
18.48
19.08
19.78
20.38
20.72
20.65
20.01
18.72
16.75
14.24
11.45
8.68
6.13
3.77
1.41
-1.22
-4.27
-7.67
-11.14
-14.38
-17.24
-19.74
-22.1
-24.61
-27.54
-31.05
-35.13
-39.53
-43.76
-47.03
-48.49
-47.46
-43.63
-37.21
-28.89
-19.61
-10.26
-1.52
6.2
12.72
18.0
22.0
24.72
26.22
26.61
26.1
25.02
23.71
22.52
21.75
21.55
21.9
22.68
23.66
24.61
25.37
25.84
26.01
25.87
25.4
24.58
23.35
21.72
19.71
17.41
14.91
12.31
9.68
7.04
4.43
1.82
-0.8
-3.52
-6.4
-9.46
-12.63
-15.76
-18.68
-21.29
-23.66
-26.01
-28.65
-31.86
-35.8
-40.43
-45.41
-50.15
-53.8
-55.47
-54.39
-50.17
-42.98
-33.53
-22.89
-12.15
-2.23
6.36
13.42
18.99
23.17
26.05
27.69
28.21
27.87
27.01
26.07
25.41
25.21
25.45
25.96
26.53
27.05
27.49
27.89
28.22
28.42
28.32
27.81
26.82
25.36
23.53
21.44
19.18
16.85
14.53
12.26
10.04
7.85
5.62
3.31
0.92
-1.49
-3.86
-6.18
-8.48
-10.85
-13.39
-16.11
-18.98
-21.9
-24.78
-27.57
-30.38
-33.4
-36.88
-40.91
-45.29
-49.44
-52.5
-53.59
-52.06
-47.75
-40.98
-32.5
-23.17
-13.84
-5.11
2.66
9.26
14.59
18.59
21.27
22.75
23.25
23.08
22.55
21.91
21.35
20.94
20.73
20.76
21.08
21.68
22.52
23.41
24.17
24.54
24.31
23.39
21.78
19.65
17.25
14.83
12.55
10.42
8.29
5.97
3.31
0.35
-2.72
-5.61
-8.11
-10.19
-11.99
-13.78
-15.83
-18.35
-21.4
-24.94
-28.75
-32.46
-35.49
-37.17
-36.89
-34.22
-29.19
-22.22
-14.08
-5.67
2.21
9.02
14.53
18.7
21.59
23.31
23.95
23.65
22.6
21.12
19.58
18.33
17.61
17.46
17.73
18.2
18.62
18.85
18.9
18.8
18.58
18.21
17.55
16.48
14.95
13.03
10.91
8.78
6.74
4.73
2.62
0.25
-2.48
-5.55
-8.84
-12.2
-15.47
-18.55
-21.36
-23.91
-26.25
-28.55
-30.99
-33.83
-37.25
-41.32
-45.81
-50.21
-53.7
-55.35
-54.41
-50.5
-43.81
-35.01
-25.07
-14.99
-5.56
2.75
9.74
15.45
19.94
23.32
25.69
27.1
27.67
27.54
26.92
26.09
25.36
24.98
25.08
25.59
26.32
27.0
27.44
27.56
27.38
26.99
26.44
25.66
24.55
22.99
20.92
18.42
15.64
12.77
9.94
7.19
4.51
1.83
-0.87
-3.57
-6.26
-8.93
-11.62
-14.39
-17.27
-20.24
-23.21
-26.06
-28.78
-31.48
-34.42
-37.87
-41.87
-46.15
-50.01
-52.5
-52.73
-50.12
-44.65
-36.82
-27.5
-17.64
-8.05
0.69
8.26
14.47
19.26
22.65
24.76
25.84
26.2
26.15
25.98
25.85
25.88
26.1
26.51
27.09
27.8
28.6
29.38
30.04
30.46
30.49
30.01
28.95
27.36
25.36
23.14
20.9
18.72
16.6
14.48
12.34
10.17
8.02
5.92
3.85
1.7
-0.63
-3.23
-6.11
-9.2
-12.4
-15.61
-18.72
-21.68
-24.48
-27.19
-29.98
-33.08
-36.69
-40.82
-45.15
-49.05
-51.67
-52.17
-50.01
-45.1
-37.85
-29.0
-19.45
-10.0
-1.28
6.36
12.71
17.69
21.29
23.58
24.7
24.94
24.62
24.11
23.67
23.49
23.61
23.99
24.58
25.27
25.99
26.6
26.95
26.93
26.45
25.5
24.15
22.43
20.39
18.1
15.64
13.13
10.71
8.41
6.17
3.85
1.31
-1.45
-4.26
-6.9
-9.16
-10.98
-12.49
-13.93
-15.56
-17.59
-20.18
-23.43
-27.36
-31.82
-36.34
-40.18
-42.38
-42.08
-38.88
-32.99
-25.17
-16.47
-7.89
-0.07
6.73
12.5
17.33
21.18
23.96
25.6
26.18
25.93
25.24
24.45
23.83
23.44
23.25
23.19
23.21
23.33
23.57
23.89
24.16
24.21
23.82
22.9
21.44
19.54
17.34
14.93
12.38
9.74
7.06
4.46
2.03
-0.18
-2.27
-4.44
-6.91
-9.79
-12.95
-16.13
-19.04
-21.53
-23.7
-25.84
-28.25
-31.19
-34.74
-38.86
-43.4
-48.05
-52.29
-55.38
-56.47
-54.85
-50.22
-42.83
-33.43
-23.03
-12.63
-3.0
5.36
12.2
17.48
21.25
23.72
25.2
26.0
26.42
26.64
26.78
26.84
26.84
26.81
26.76
26.71
26.68
26.66
26.7
26.82
27.04
27.25
27.2
26.57
25.06
22.58
19.32
15.71
12.26
9.37
7.13
5.36
3.69
1.79
-0.56
-3.38
-6.55
-9.9
-13.26
-16.5
-19.57
-22.46
-25.3
-28.29
-31.66
-35.55
-39.87
-44.2
-47.82
-49.85
-49.52
-46.42
-40.62
-32.73
-23.64
-14.32
-5.53
2.26
8.91
14.39
18.76
22.02
24.21
25.43
25.9
25.92
25.77
25.63
25.56
25.51
25.44
25.34
25.28
25.33
25.53
25.79
25.88
25.57
24.69
23.18
21.15
18.78
16.24
13.64
10.96
8.16
5.19
2.04
-1.21
-4.44
-7.52
-10.34
-12.87
-15.14
-17.33
-19.69
-22.54
-26.06
-30.17
-34.5
-38.36
-40.96
-41.59
-39.84
-35.69
-29.5
-21.89
-13.6
-5.38
2.18
8.66
13.86
17.72
20.31
21.71
22.06
21.52
20.28
18.62
16.87
15.33
14.21
13.6
13.42
13.55
13.81
14.07
14.26
14.31
14.13
13.59
12.55
10.9
8.58
5.68
2.37
-1.1
-4.54
-7.81
-10.86
-13.72
-16.5
-19.33
-22.38
-25.8
-29.65
-33.83
-37.93
-41.33
-43.25
-42.98
-40.17
-34.89
-27.67
-19.3
-10.61
-2.25
5.33
11.92
17.38
21.63
24.59
26.26
26.8
26.48
25.69
24.82
24.16
23.83
23.84
24.06
24.37
24.67
24.88
24.98
24.9
24.58
23.95
22.91
21.4
19.37
16.84
13.88
10.67
7.41
4.28
1.33
-1.58
-4.66
-8.08
-11.86
-15.78
-19.54
-22.84
-25.59
-27.97
-30.4
-33.38
-37.27
-42.08
-47.38
-52.3
-55.77
-56.8
-54.81
-49.78
-42.26
-33.13
-23.33
-13.59
-4.45
3.79
10.97
16.94
21.68
25.23
27.77
29.49
30.61
31.28
31.62
31.72
31.7
31.69
31.79
32.01
32.27
32.39
32.18
31.55
30.48
29.07
27.45
25.72
23.95
22.07
19.99
17.61
14.93
12.03
9.08
6.17
3.34
0.53
-2.37
-5.38
-8.44
-11.45
-14.32
-17.06
-19.77
-22.62
-25.72
-29.15
-32.95
-37.13
-41.62
-46.15
-50.17
-52.91
-53.52
-51.4
-46.39
-38.85
-29.61
-19.67
-9.97
-1.18
6.35
12.53
17.46
21.26
24.03
25.86
26.86
27.24
27.23
27.09
27.02
27.09
27.27
27.49
27.69
27.9
28.16
28.48
28.8
28.97
28.83
28.23
27.09
25.45
23.36
20.95
18.34
15.65
12.98
10.41
7.93
5.5
2.99
0.29
-2.66
-5.83
-9.08
-12.23
-15.12
-17.69
-20.0
-22.26
-24.72
-27.58
-30.97
-34.89
-39.24
-43.71
-47.83
-50.9
-52.2
-51.1
-47.3
-41.01
-32.86
-23.74
-14.54
-5.96
1.6
8.0
13.22
17.3
20.26
22.13
23.02
23.09
22.58
21.76
20.87
20.11
19.56
19.22
19.09
19.15
19.39
19.77
20.18
20.44
20.31
19.58
18.17
16.13
13.56
10.6
7.36
3.92
0.4
-3.09
-6.41
-9.49
-12.31
-14.98
-17.65
-20.55
-23.84
-27.63
-31.9
-36.37
-40.53
-43.66
-44.99
-43.94
-40.28
-34.26
-26.47
-17.71
-8.77
-0.26
7.4
14.03
19.55
23.93
27.15
29.2
30.12
30.06
29.32
28.26
27.27
26.59
26.27
26.25
26.38
26.56
26.75
26.91
26.99
26.87
26.4
25.47
24.11
22.38
20.4
18.24
15.9
13.36
10.62
7.72
4.8
1.98
-0.62
-2.98
-5.15
-7.24
-9.39
-11.71
-14.22
-16.9
-19.65
-22.4
-25.17
-28.04
-31.19
-34.81
-39.02
-43.81
-48.89
-53.67
-57.32
-58.93
-57.81
-53.71
-46.92
-38.13
-28.24
-18.08
-8.3
0.66
8.5
15.0
20.06
23.74
26.22
27.8
28.74
29.25
29.41
29.29
28.99
28.66
28.41
28.32
28.37
28.47
28.54
28.52
28.4
28.13
27.66
26.94
25.89
24.49
22.7
20.5
17.92
15.04
11.97
8.89
5.92
3.12
0.47
-2.12
-4.75
-7.5
-10.35
-13.23
-16.03
-18.66
-21.08
-23.36
-25.65
-28.19
-31.22
-34.94
-39.36
-44.2
-48.84
-52.42
-54.03
-52.98
-48.98
-42.29
-33.6
-23.87
-14.07
-4.96
2.96
9.49
14.63
18.48
21.22
23.0
23.98
24.27
23.99
23.28
22.34
21.4
20.7
20.37
20.43
20.77
21.2
21.51
21.52
21.12
20.26
18.94
17.19
15.04
12.59
9.97
7.33
4.77
2.29
-0.2
-2.8
-5.58
-8.47
-11.33
-13.97
-16.31
-18.46
-20.7
-23.33
-26.53
-30.16
-33.76
-36.6
-37.88
-36.99
-33.72
-28.25
-21.16
-13.16
-4.99
2.78
9.77
15.75
20.54
23.97
25.95
26.5
25.81
24.23
22.21
20.19
18.51
17.34
16.76
16.72
17.11
17.8
18.62
19.38
19.87
19.93
19.41
18.26
16.54
14.4
12.01
9.53
7.01
4.38
1.56
-1.59
-5.1
-8.87
-12.76
-16.55
-20.06
-23.2
-25.96
-28.45
-30.92
-33.67
-37.03
-41.1
-45.66
-50.07
-53.4
-54.68
-53.19
-48.75
-41.69
-32.75
-22.86
-12.92
-3.61
4.57
11.39
16.78
20.85
23.81
25.89
27.25
27.99
28.22
28.03
27.59
27.07
26.57
26.15
25.83
25.62
25.59
25.79
26.2
26.7
27.06
27.01
26.37
25.03
23.03
20.47
17.52
14.33
11.05
7.78
4.57
1.41
-1.74
-4.92
-8.09
-11.19
-14.11
-16.76
-19.14
-21.36
-23.68
-26.43
-29.97
-34.44
-39.66
-45.06
-49.75
-52.71
-53.14
-50.57
-45.04
-37.07
-27.47
-17.22
-7.23
1.79
9.41
15.51
20.19
23.66
26.11
27.66
28.42
28.5
28.09
27.46
26.85
26.4
26.13
25.99
25.9
25.85
25.85
25.9
25.97
25.9
25.46
24.44
22.69
20.26
17.39
14.4
11.61
9.16
7.03
4.99
2.75
0.13
-2.96
-6.43
-10.09
-13.7
-17.07
-20.05
-22.65
-25.01
-27.44
-30.26
-33.74
-37.84
-42.17
-46.0
-48.42
-48.65
-46.19
-41.04
-33.67
-24.85
-15.51
-6.49
1.6
8.41
13.85
17.95
20.84
22.6
23.35
23.2
22.36
21.12
19.81
18.73
18.08
17.86
17.95
18.15
18.31
18.33
18.17
17.8
17.16
16.15
14.67
12.67
10.15
7.25
4.08
0.8
-2.48
-5.68
-8.76
-11.73
-14.62
-17.54
-20.63
-24.06
-27.93
-32.17
-36.49
-40.32
-42.92
-43.52
-41.54
-36.84
-29.78
-21.08
-11.68
-2.47
5.89
13.01
18.72
23.0
25.92
27.6
28.29
28.23
27.7
26.9
25.99
25.03
24.08
23.2
22.44
21.88
21.57
21.54
21.76
22.1
22.33
22.14
21.29
19.68
17.46
14.89
12.29
9.87
7.62
5.36
2.85
-0.09
-3.48
-7.2
-11.01
-14.66
-17.99
-20.95
-23.64
-26.33
-29.34
-32.99
-37.48
-42.71
-48.2
-53.09
-56.34
-56.98
-54.46
-48.78
-40.48
-30.49
-19.86
-9.51
-0.13
7.92
14.55
19.82
23.83
26.68
28.44
29.19
29.15
28.63
28.01
27.59
27.46
27.56
27.71
27.82
27.93
28.12
28.43
28.76
28.89
28.58
27.67
26.16
24.14
21.78
19.21
16.6
14.04
11.58
9.16
6.64
3.85
0.65
-2.96
-6.82
-10.67
-14.26
-17.38
-20.02
-22.31
-24.55
-27.1
-30.32
-34.43
-39.35
-44.63
-49.49
-52.97
-54.16
-52.49
-47.81
-40.51
-31.35
-21.32
-11.38
-2.3
5.46
11.78
16.76
20.61
23.53
25.63
26.9
27.31
26.88
25.8
24.36
22.94
21.81
21.15
20.98
21.18
21.61
22.05
22.32
22.24
21.64
20.48
18.8
16.69
14.28
11.65
8.82
5.77
2.51
-0.85
-4.15
-7.22
-9.94
-12.36
-14.6
-16.87
-19.37
-22.27
-25.67
-29.48
-33.43
-36.93
-39.19
-39.42
-37.06
-32.06
-24.88
-16.39
-7.55
0.83
8.27
14.55
19.62
23.46
26.04
27.37
27.58
26.87
25.57
24.0
22.45
21.12
20.17
19.66
19.57
19.83
20.32
20.85
21.17
21.04
20.27
18.82
16.78
14.34
11.71
9.02
6.27
3.36
0.16
-3.36
-7.11
-10.93
-14.62
-18.09
-21.25
-24.16
-26.94
-29.8
-33.02
-36.87
-41.41
-46.35
-51.03
-54.46
-55.65
-53.89
-48.97
-41.27
-31.6
-20.99
-10.41
-0.64
7.86
14.89
20.4
24.49
27.28
28.96
29.76
29.91
29.65
29.13
28.47
27.72
26.97
26.32
25.94
25.92
26.19
26.58
26.78
26.55
25.72
24.3
22.39
20.11
17.59
14.94
12.23
9.49
6.67
3.67
0.39
-3.19
-6.97
-10.69
-14.09
-17.03
-19.55
-21.96
-24.65
-28.03
-32.27
-37.27
-42.53
-47.24
-50.47
-51.37
-49.4
-44.51
-37.12
-28.02
-18.14
-8.36
0.62
8.42
14.87
19.92
23.6
25.93
27.0
26.96
26.14
24.91
23.68
22.76
22.31
22.29
22.59
23.03
23.47
23.75
23.78
23.46
22.76
21.67
20.24
18.49
16.39
13.88
10.9
7.5
3.8
-0.0
-3.7
-7.17
-10.33
-13.19
-15.83
-18.39
-21.07
-24.1
-27.62
-31.54
-35.52
-38.89
-40.84
-40.65
-37.89
-32.56
-25.13
-16.41
-7.33
1.29
8.82
14.95
19.58
22.78
24.65
25.3
24.9
23.68
21.97
20.18
18.67
17.7
17.3
17.33
17.54
17.64
17.47
17.04
16.42
15.7
14.85
13.72
12.05
9.64
6.45
2.64
-1.47
-5.54
-9.26
-12.55
-15.46
-18.21
-21.05
-24.2
-27.83
-31.94
-36.33
-40.59
-44.1
-46.14
-46.09
-43.55
-38.5
-31.3
-22.68
-13.46
-4.48
3.66
10.58
16.19
20.5
23.63
25.69
26.82
27.17
26.98
26.51
25.97
25.5
25.13
24.87
24.7
24.6
24.59
24.6
24.55
24.29
23.66
22.59
21.04
19.05
16.72
14.15
11.43
8.57
5.56
2.33
-1.2
-4.98
-8.86
-12.58
-15.91
-18.77
-21.3
-23.87
-26.91
-30.8
-35.68
-41.33
-47.22
-52.46
-56.08
-57.15
-55.12
-49.91
-42.01
-32.27
-21.74
-11.32
-1.71
6.75
13.95
19.96
24.84
28.64
31.35
32.97
33.58
33.43
32.85
32.16
31.62
31.28
31.11
31.0
30.91
30.86
30.85
30.83
30.65
30.13
29.14
27.65
25.71
23.37
20.66
17.62
14.38
11.12
8.07
5.35
2.88
0.39
-2.39
-5.6
-9.15
-12.77
-16.11
-19.03
-21.58
-24.01
-26.67
-29.85
-33.74
-38.33
-43.39
-48.41
-52.67
-55.28
-55.41
-52.57
-46.74
-38.44
-28.61
-18.31
-8.46
0.31
7.71
13.73
18.48
22.02
24.44
25.81
26.27
26.07
25.49
24.81
24.25
23.89
23.72
23.72
23.81
23.95
24.05
24.01
23.65
22.84
21.51
19.71
17.6
15.35
13.08
10.84
8.56
6.12
3.42
0.45
-2.66
-5.74
-8.6
-11.14
-13.36
-15.43
-17.58
-20.1
-23.23
-27.05
-31.43
-35.91
-39.75
-42.04
-41.98
-39.15
-33.61
-25.95
-17.1
-8.0
0.54
8.01
14.15
18.87
22.2
24.26
25.2
25.24
24.66
23.7
22.63
21.62
20.84
20.39
20.28
20.48
20.89
21.38
21.77
21.9
21.64
20.87
19.56
17.72
15.44
12.81
9.95
6.92
3.79
0.56
-2.74
-6.11
-9.5
-12.89
-16.23
-19.47
-22.6
-25.65
-28.74
-32.04
-35.69
-39.72
-43.91
-47.75
-50.51
-51.39
-49.76
-45.41
-38.6
-30.02
-20.56
-11.07
-2.16
5.82
12.66
18.28
22.6
25.6
27.39
28.19
28.3
28.02
27.6
27.2
26.92
26.87
27.06
27.45
27.93
28.31
28.45
28.33
27.99
27.49
26.82
25.82
24.26
22.05
19.25
16.13
13.02
10.15
7.55
5.06
2.45
-0.44
-3.62
-6.96
-10.26
-13.37
-16.21
-18.82
-21.31
-23.82
-26.52
-29.62
-33.32
-37.73
-42.78
-48.01
-52.63
-55.64
-56.12
-53.57
-48.0
-40.0
-30.48
-20.41
-10.59
-1.6
6.24
12.79
18.04
22.03
24.87
26.73
27.74
28.08
27.9
27.39
26.75
26.13
25.66
25.4
25.39
25.63
26.09
26.69
27.25
27.54
27.31
26.36
24.62
22.12
19.05
15.66
12.28
9.19
6.54
4.32
2.35
0.33
-1.99
-4.78
-8.02
-11.54
-15.04
-18.28
-21.07
-23.43
-25.6
-27.95
-30.88
-34.61
-39.01
-43.5
-47.18
-49.05
-48.29
-44.57
-38.09
-29.53
-19.85
-10.03
-0.88
7.05
13.47
18.31
21.6
23.44
23.99
23.51
22.33
20.84
19.39
18.25
17.49
17.08
16.89
16.77
16.64
16.45
16.22
15.92
15.52
14.95
14.11
12.95
11.43
9.55
7.35
4.86
2.09
-0.97
-4.29
-7.78
-11.28
-14.61
-17.69
-20.57
-23.47
-26.69
-30.47
-34.88
-39.65
-44.17
-47.57
-48.95
-47.59
-43.28
-36.3
-27.43
-17.69
-8.1
0.6
7.99
13.97
18.65
22.18
24.69
26.27
27.0
27.03
26.62
26.05
25.57
25.34
25.29
25.31
25.23
25.03
24.81
24.75
24.96
25.33
25.57
25.27
24.13
22.1
19.33
16.18
12.96
9.93
7.12
4.52
1.98
-0.64
-3.48
-6.61
-10.03
-13.6
-17.12
-20.41
-23.38
-26.13
-28.91
-32.04
-35.81
-40.29
-45.23
-50.03
-53.83
-55.72
-54.99
-51.36
-45.04
-36.7
-27.21
-17.41
-7.96
0.69
8.31
14.73
19.85
23.65
26.2
27.67
28.34
28.52
28.48
28.43
28.43
28.47
28.51
28.53
28.55
28.66
28.86
29.08
29.16
28.87
28.06
26.69
24.86
22.7
20.36
17.91
15.39
12.77
10.1
7.36
4.58
1.73
-1.24
-4.36
-7.58
-10.77
-13.8
-16.53
-18.98
-21.27
-23.64
-26.35
-29.61
-33.54
-38.15
-43.26
-48.39
-52.83
-55.64
-55.93
-53.18
-47.4
-39.19
-29.53
-19.48
-9.88
-1.21
6.33
12.73
17.99
22.11
25.06
26.82
27.47
27.11
25.98
24.39
22.72
21.3
20.37
19.96
19.95
20.14
20.34
20.42
20.3
19.92
19.18
18.05
16.48
14.54
12.33
9.94
7.44
4.81
2.06
-0.82
-3.78
-6.72
-9.57
-12.28
-14.87
-17.44
-20.14
-23.21
-26.75
-30.67
-34.57
-37.78
-39.47
-38.93
-35.76
-30.04
-22.32
-13.43
-4.28
4.37
11.97
18.22
23.01
26.37
28.37
29.13
28.83
27.71
26.11
24.4
22.9
21.8
21.11
20.72
20.49
20.36
20.36
20.51
20.8
21.08
21.08
20.54
19.29
17.33
14.85
12.15
9.44
6.83
4.25
1.52
-1.51
-4.89
-8.51
-12.14
-15.58
-18.71
-21.55
-24.22
-26.88
-29.72
-32.88
-36.54
-40.82
-45.63
-50.54
-54.74
-57.2
-57.0
-53.63
-47.22
-38.45
-28.34
-17.92
-8.01
0.85
8.39
14.53
19.27
22.71
24.98
26.26
26.76
26.73
26.4
25.99
25.63
25.34
25.08
24.81
24.57
24.46
24.55
24.84
25.1
25.02
24.29
22.82
20.77
18.48
16.24
14.15
12.08
9.77
6.99
3.73
0.11
-3.63
-7.29
-10.79
-14.08
-17.19
-20.14
-23.02
-26.05
-29.51
-33.67
-38.49
-43.51
-47.83
-50.34
-50.11
-46.69
-40.31
-31.78
-22.13
-12.37
-3.24
4.86
11.75
17.39
21.76
24.92
26.98
28.09
28.44
28.16
27.41
26.34
25.2
24.21
23.55
23.22
23.1
22.94
22.57
21.92
21.04
20.02
18.84
17.39
15.5
13.05
10.07
6.74
3.28
-0.1
-3.3
-6.33
-9.29
-12.29
-15.4
-18.66
-22.06
-25.6
-29.22
-32.8
-35.99
-38.28
-39.05
-37.73
-34.08
-28.24
-20.8
-12.52
-4.22
3.48
10.18
15.68
19.9
22.82
24.46
24.94
24.51
23.48
22.2
20.97
19.97
19.28
18.88
18.72
18.76
18.97
19.27
19.53
19.53
18.99
17.74
15.76
13.23
10.47
7.72
5.1
2.52
-0.2
-3.22
-6.51
-9.94
-13.3
-16.47
-19.45
-22.38
-25.45
-28.8
-32.59
-36.87
-41.58
-46.39
-50.65
-53.49
-54.01
-51.6
-46.18
-38.19
-28.5
-18.06
-7.77
1.68
9.83
16.4
21.3
24.58
26.49
27.37
27.56
27.39
27.08
26.8
26.66
26.72
26.96
27.23
27.41
27.38
27.2
26.97
26.85
26.87
26.92
26.76
26.14
24.87
22.91
20.37
17.47
14.47
11.57
8.9
6.4
3.94
1.36
-1.44
-4.46
-7.63
-10.83
-13.98
-17.03
-20.01
-22.93
-25.86
-28.94
-32.41
-36.52
-41.35
-46.65
-51.74
-55.61
-57.22
-55.79
-51.15
-43.72
-34.4
-24.25
-14.15
-4.71
3.79
11.22
17.48
22.41
25.9
27.92
28.66
28.5
27.9
27.32
27.03
27.09
27.41
27.8
28.1
28.26
28.33
28.4
28.52
28.63
28.56
28.07
26.98
25.21
22.84
20.1
17.25
14.49
11.91
9.47
7.06
4.53
1.78
-1.23
-4.44
-7.78
-11.13
-14.36
-17.37
-20.15
-22.76
-25.36
-28.23
-31.61
-35.6
-40.06
-44.47
-48.07
-49.95
-49.38
-46.0
-39.99
-31.97
-22.83
-13.48
-4.65
3.23
9.95
15.41
19.54
22.3
23.71
23.96
23.37
22.36
21.31
20.45
19.89
19.59
19.47
19.48
19.61
19.82
20.08
20.26
20.22
19.82
18.94
17.55
15.65
13.31
10.59
7.55
4.24
0.72
-2.87
-6.41
-9.74
-12.81
-15.65
-18.4
-21.27
-24.49
-28.19
-32.35
-36.78
-41.07
-44.6
-46.66
-46.57
-43.9
-38.56
-30.92
-21.73
-11.88
-2.27
6.44
13.89
19.95
24.65
28.03
30.15
31.06
30.9
29.93
28.53
27.1
25.96
25.29
25.07
25.17
25.45
25.76
26.04
26.21
26.21
25.9
25.16
23.9
22.17
20.11
17.88
15.62
13.39
11.15
8.85
6.44
3.88
1.14
-1.79
-4.95
-8.3
-11.76
-15.16
-18.34
-21.2
-23.79
-26.28
-28.94
-32.03
-35.76
-40.15
-45.03
-49.9
-54.07
-56.67
-56.95
-54.41
-49.0
-41.13
-31.56
-21.24
-11.07
-1.75
6.32
13.03
18.48
22.77
25.99
28.17
29.33
29.63
29.33
28.8
28.34
28.12
28.15
28.32
28.53
28.7
28.84
28.98
29.1
29.11
28.89
28.27
27.12
25.38
23.1
20.43
17.59
14.84
12.31
10.03
7.89
5.71
3.3
0.56
-2.56
-6.0
-9.61
-13.18
-16.48
-19.34
-21.79
-24.04
-26.47
-29.51
-33.43
-38.22
-43.5
-48.53
-52.36
-54.06
-52.97
-48.85
-42.03
-33.23
-23.43
-13.6
-4.48
3.47
10.04
15.15
18.88
21.39
22.92
23.74
24.05
23.95
23.43
22.52
21.33
20.08
19.07
18.48
18.37
18.58
18.88
19.07
19.01
18.64
17.92
16.74
15.04
12.78
10.03
6.98
3.8
0.64
-2.41
-5.33
-8.12
-10.78
-13.3
-15.72
-18.17
-20.87
-24.0
-27.64
-31.58
-35.29
-37.99
-38.92
-37.52
-33.65
-27.61
-20.04
-11.73
-3.41
4.35
11.14
16.73
20.98
23.89
25.56
26.19
25.99
25.21
24.05
22.73
21.43
20.38
19.75
19.61
19.94
20.59
21.36
22.0
22.31
22.12
21.33
19.92
17.93
15.48
12.68
9.66
6.5
3.24
-0.09
-3.45
-6.83
-10.18
-13.53
-16.88
-20.2
-23.42
-26.45
-29.3
-32.12
-35.24
-38.95
-43.32
-47.98
-52.18
-54.91
-55.26
-52.73
-47.28
-39.41
-29.89
-19.65
-9.54
-0.21
7.92
14.64
19.94
23.91
26.69
28.44
29.38
29.71
29.71
29.63
29.61
29.69
29.82
29.89
29.88
29.79
29.67
29.53
29.27
28.74
27.79
26.31
24.32
21.98
19.47
16.93
14.47
12.09
9.77
7.45
5.04
2.44
-0.44
-3.67
-7.2
-10.88
-14.47
-17.77
-20.67
-23.26
-25.74
-28.38
-31.5
-35.31
-39.89
-44.99
-50.05
-54.18
-56.43
-55.97
-52.46
-46.13
-37.69
-28.05
-18.1
-8.5
0.35
8.18
14.79
20.03
23.81
26.16
27.25
27.36
26.82
25.97
25.1
24.42
24.02
23.92
24.06
24.39
24.87
25.44
25.98
26.25
25.99
24.98
23.14
20.61
17.66
14.57
11.49
8.46
5.4
2.23
-1.02
-4.26
-7.35
-10.24
-12.97
-15.68
-18.55
-21.72
-25.3
-29.3
-33.55
-37.67
-41.07
-43.04
-42.89
-40.22
-35.04
-27.79
-19.22
-10.2
-1.47
6.43
13.23
18.79
23.02
25.83
27.15
27.05
25.78
23.82
21.77
20.18
19.41
19.46
20.1
20.96
21.66
21.98
21.79
21.05
19.8
18.06
15.88
13.38
10.62
7.71
4.69
1.58
-1.6
-4.81
-8.0
-11.11
-14.14
-17.17
-20.32
-23.77
-27.69
-32.14
-37.04
-41.99
-46.37
-49.37
-50.25
-48.47
-43.91
-36.88
-28.02
-18.25
-8.44
0.66
8.53
14.95
19.92
23.61
26.2
27.86
28.72
28.91
28.61
28.06
27.49
27.04
26.75
26.6
26.53
26.52
26.59
26.74
26.85
26.69
26.0
24.6
22.48
19.86
17.05
14.31
11.77
9.32
6.74
3.8
0.38
-3.46
-7.55
-11.63
-15.45
-18.86
-21.84
-24.5
-27.06
-29.86
-33.24
-37.45
-42.44
-47.76
-52.57
-55.79
-56.4
-53.76
-47.8
-39.06
-28.57
-17.54
-7.04
2.17
9.79
15.9
20.77
24.69
27.83
30.22
31.84
32.68
32.87
32.67
32.34
32.11
32.04
32.06
32.07
31.97
31.76
31.49
31.19
30.85
30.3
29.32
27.69
25.28
22.19
18.65
15.02
11.61
8.59
5.96
3.57
1.23
-1.25
-3.99
-7.05
-10.34
-13.73
-17.01
-20.03
-22.78
-25.36
-28.05
-31.15
-34.93
-39.43
-44.41
-49.33
-53.36
-55.6
-55.2
-51.71
-45.18
-36.26
-26.0
-15.61
-6.09
1.99
8.51
13.66
17.71
20.81
23.0
24.21
24.5
24.11
23.4
22.81
22.6
22.8
23.27
23.76
24.1
24.23
24.15
23.85
23.27
22.33
21.01
19.34
17.35
15.09
12.52
9.59
6.31
2.75
-0.91
-4.48
-7.82
-10.85
-13.57
-16.05
-18.41
-20.87
-23.73
-27.21
-31.33
-35.74
-39.68
-42.22
-42.5
-40.03
-34.89
-27.64
-19.12
-10.25
-1.78
5.8
12.24
17.45
21.45
24.28
26.03
26.88
27.04
26.79
26.39
26.09
25.99
26.12
26.44
26.88
27.39
27.9
28.33
28.55
28.43
27.86
26.86
25.48
23.83
21.94
19.76
17.21
14.25
10.98
7.6
4.38
1.51
-0.99
-3.23
-5.42
-7.74
-10.28
-13.04
-15.97
-19.01
-22.13
-25.29
-28.39
-31.35
-34.17
-36.99
-40.15
-43.98
-48.63
-53.76
-58.54
-61.79
-62.36
-59.59
-53.5
-44.76
-34.45
-23.66
-13.25
-3.71
4.72
11.94
17.91
22.62
26.14
28.61
30.27
31.36
32.07
32.51
32.76
32.83
32.71
32.47
32.17
31.95
31.9
32.03
32.23
32.29
31.97
31.11
29.68
27.77
25.57
23.23
20.85
18.44
15.95
13.3
10.49
7.59
4.72
2.05
-0.36
-2.53
-4.66
-7.0
-9.74
-12.87
-16.26
-19.63
-22.78
-25.64
-28.32
-31.07
-34.19
-37.89
-42.25
-47.09
-51.94
-56.05
-58.53
-58.52
-55.54
-49.6
-41.24
-31.38
-21.05
-11.13
-2.24
5.31
11.42
16.12
19.55
21.92
23.42
24.23
24.51
24.35
23.85
23.19
22.54
22.1
21.98
22.18
22.59
23.02
23.29
23.27
22.88
22.09
20.91
