0
-8.81
-15.97
-24.03
-33.03
-42.74
-52.4
-60.64
-65.58
-65.4
-58.97
-46.41
-29.22
-9.95
8.61
24.21
35.64
42.79
46.25
46.83
45.21
41.9
37.43
32.49
27.99
24.83
23.6
24.32
26.46
29.15
31.52
32.91
32.98
31.66
28.99
25.05
19.98
14.03
7.55
0.99
-5.34
-11.34
-17.23
-23.55
-30.86
-39.41
-48.81
-57.82
-64.51
-66.77
-63.0
-52.81
-37.27
-18.62
0.33
17.05
29.9
38.27
42.45
43.16
41.3
37.69
33.15
28.48
24.47
21.76
20.76
21.52
23.78
26.99
30.41
33.29
34.95
34.92
33.1
29.68
25.09
19.84
14.35
8.87
3.52
-1.7
-6.85
-12.11
-17.83
-24.42
-32.11
-40.61
-48.76
-54.69
-56.28
-51.92
-41.25
-25.44
-6.84
11.74
27.9
40.25
48.42
52.79
54.05
52.83
49.69
45.28
40.48
36.4
34.07
34.04
36.08
39.11
41.56
41.89
39.23
33.58
25.8
17.06
8.43
0.45
-6.84
-13.7
-20.36
-26.9
-33.32
-39.7
-46.38
-53.79
-62.14
-70.97
-78.93
-84.06
-84.39
-78.75
-67.32
-51.72
-34.51
-18.34
-5.21
3.92
9.12
10.99
10.32
7.81
4.06
-0.28
-4.44
-7.65
-9.34
-9.34
-7.92
-5.65
-3.08
-0.62
1.56
3.35
4.59
4.97
4.16
1.97
-1.46
-5.72
-10.25
-14.59
-18.51
-22.08
-25.69
-29.86
-35.25
-42.34
-51.12
-60.75
-69.47
-74.92
-74.84
-67.93
-54.38
-35.97
-15.46
4.2
20.75
32.97
40.7
44.45
45.03
43.33
40.15
36.31
32.55
29.59
27.88
27.59
28.49
30.07
31.72
32.93
33.51
33.48
32.94
31.85
29.91
26.69
21.87
15.52
8.2
0.76
-6.04
-11.8
-16.7
-21.37
-26.63
-33.21
-41.43
-50.99
-60.8
-69.04
-73.53
-72.37
-64.61
-50.72
-32.63
-13.04
5.28
20.37
31.35
38.29
41.74
42.37
40.75
37.45
33.19
28.86
25.36
23.38
23.14
24.39
26.49
28.71
30.47
31.5
31.79
31.41
30.34
28.31
24.98
20.09
13.75
6.47
-0.91
-7.57
-13.06
-17.44
-21.34
-25.7
-31.45
-39.16
-48.71
-59.12
-68.56
-74.76
-75.57
-69.81
-57.64
-40.68
-21.48
-2.74
13.41
25.83
34.24
38.95
40.44
39.26
36.02
31.48
26.55
22.17
19.06
17.6
17.78
19.23
21.4
23.75
25.79
27.2
27.74
27.18
25.23
21.71
16.54
9.98
2.57
-5.0
-12.09
-18.34
-23.84
-29.11
-34.91
-41.98
-50.6
-60.27
-69.56
-76.28
-78.14
-73.54
-62.19
-45.43
-25.76
-6.07
11.23
24.69
33.91
39.17
41.0
39.94
36.59
31.73
26.44
21.89
19.04
18.32
19.51
21.85
24.43
26.52
27.8
28.33
28.21
27.4
25.63
22.48
17.69
11.36
3.99
-3.7
-11.05
-17.69
-23.58
-29.07
-34.65
-40.85
-48.15
-56.63
-65.79
-74.33
-80.3
-81.58
-76.62
-65.09
-48.19
-28.3
-8.28
9.45
23.41
33.19
39.06
41.58
41.27
38.66
34.41
29.52
25.17
22.44
21.9
23.43
26.26
29.39
32.0
33.75
34.75
35.3
35.5
35.07
33.47
30.16
24.95
18.14
10.45
2.71
-4.39
-10.51
-15.76
-20.61
-25.77
-32.02
-39.92
-49.44
-59.78
-69.25
-75.62
-76.76
-71.33
-59.36
-42.33
-22.81
-3.66
12.78
25.15
33.19
37.32
38.29
36.8
33.5
29.04
24.28
20.21
17.66
17.08
18.35
20.89
23.93
26.79
29.04
30.44
30.84
30.07
27.97
24.48
19.75
14.12
8.05
2.02
-3.61
-8.67
-13.27
-17.83
-23.02
-29.54
-37.65
-46.77
-55.33
-61.07
-61.8
-56.23
-44.57
-28.5
-10.62
6.46
20.78
31.41
38.22
41.57
41.95
39.85
35.84
30.69
25.37
20.85
17.9
16.86
17.52
19.35
21.62
23.74
25.27
26.01
25.78
24.41
21.72
17.55
11.99
5.4
-1.61
-8.34
-14.29
-19.3
-23.67
-28.04
-33.24
-40.02
-48.71
-58.97
-69.57
-78.5
-83.47
-82.54
-74.81
-60.88
-42.69
-22.91
-4.18
11.59
23.49
31.44
35.81
37.13
35.96
32.98
29.09
25.32
22.63
21.57
22.2
23.99
26.2
28.07
29.17
29.4
28.89
27.8
26.19
23.89
20.63
16.24
10.73
4.44
-2.06
-8.21
-13.64
-18.36
-22.8
-27.69
-33.79
-41.55
-50.74
-60.24
-68.17
-72.33
-70.91
-63.13
-49.63
-32.32
-13.79
3.49
17.78
28.3
35.1
38.63
39.44
38.06
35.08
31.26
27.52
24.71
23.39
23.64
25.14
27.32
29.64
31.73
33.38
34.41
34.54
33.43
30.75
26.37
20.48
13.58
6.37
-0.49
-6.6
-11.92
-16.78
-21.86
-27.93
-35.55
-44.71
-54.58
-63.52
-69.4
-70.26
-64.98
-53.71
-37.99
-20.22
-2.97
11.69
22.67
29.77
33.42
34.24
32.83
29.74
25.54
20.99
17.01
14.52
14.11
15.84
19.17
23.11
26.61
28.77
29.23
28.06
25.62
22.35
18.59
14.48
10.02
5.2
0.05
-5.36
-11.02
-17.08
-23.88
-31.66
-40.23
-48.68
-55.31
-58.08
-55.33
-46.5
-32.49
-15.49
1.77
16.83
28.18
35.45
39.08
39.84
38.38
35.21
30.75
25.62
20.68
16.87
14.89
14.97
16.71
19.33
21.95
23.88
24.74
24.35
22.65
19.59
15.2
9.63
3.28
-3.32
-9.66
-15.42
-20.64
-25.7
-31.3
-38.23
-46.93
-57.17
-67.75
-76.62
-81.37
-80.08
-71.99
-57.88
-39.82
-20.55
-2.64
12.13
23.0
30.02
33.72
34.78
33.86
31.57
28.61
25.72
23.62
22.83
23.51
25.39
27.86
30.2
31.86
32.53
32.11
30.63
28.08
24.4
19.59
13.85
7.58
1.29
-4.59
-9.91
-14.93
-20.25
-26.59
-34.55
-44.19
-54.8
-64.83
-72.13
-74.57
-70.69
-60.34
-44.85
-26.63
-8.42
7.52
19.95
28.67
34.16
37.08
37.97
37.19
35.13
32.32
29.53
27.49
26.71
27.2
28.6
30.33
31.89
33.05
33.77
34.05
33.73
32.47
29.81
25.47
19.51
12.4
4.89
-2.25
-8.49
-13.7
-18.24
-22.9
-28.61
-36.16
-45.69
-56.34
-66.3
-73.15
-74.67
-69.61
-58.15
-41.9
-23.33
-5.01
11.04
23.62
32.34
37.32
38.97
37.84
34.68
30.44
26.24
23.14
21.84
22.5
24.69
27.6
30.4
32.55
33.87
34.46
34.38
33.53
31.63
28.43
23.89
18.31
12.24
6.23
0.65
-4.43
-9.26
-14.27
-19.97
-26.86
-35.13
-44.47
-53.84
-61.52
-65.5
-64.12
-56.71
-43.93
-27.6
-10.12
6.23
19.83
29.93
36.48
39.83
40.46
38.87
35.57
31.21
26.52
22.33
19.37
18.11
18.66
20.67
23.47
26.23
28.15
28.67
27.52
24.74
20.55
15.3
9.4
3.3
-2.58
-7.94
-12.75
-17.35
-22.38
-28.64
-36.59
-46.01
-55.74
-63.84
-68.1
-66.74
-59.1
-45.87
-28.9
-10.7
6.33
20.45
30.76
37.17
40.03
39.95
37.55
33.61
28.97
24.63
21.49
20.1
20.53
22.34
24.78
27.11
28.84
29.8
29.97
29.3
27.57
24.56
20.12
14.43
7.95
1.29
-5.01
-10.68
-15.79
-20.7
-26.02
-32.41
-40.41
-50.07
-60.77
-70.97
-78.54
-81.33
-77.89
-68.06
-53.11
-35.27
-17.09
-0.63
12.84
22.88
29.63
33.43
34.7
33.97
31.89
29.31
27.06
25.79
25.75
26.76
28.34
29.97
31.34
32.38
33.22
33.88
34.15
33.5
31.33
27.25
21.3
14.04
6.36
-0.84
-6.97
-11.95
-16.21
-20.52
-25.81
-32.85
-41.96
-52.7
-63.73
-72.93
-77.91
-76.77
-68.81
-54.82
-36.93
-17.88
-0.21
14.37
25.19
32.43
36.58
38.21
37.83
35.93
33.23
30.5
28.54
27.85
28.51
30.12
32.06
33.7
34.72
35.13
35.17
35.04
34.69
33.76
31.64
27.86
22.3
15.36
7.87
0.79
-5.15
-9.77
-13.46
-17.06
-21.6
-27.93
-36.48
-46.91
-58.05
-67.98
-74.4
-75.36
-69.88
-58.4
-42.64
-25.07
-8.12
6.48
17.87
25.92
30.85
32.94
32.56
30.22
26.78
23.32
20.86
20.13
21.23
23.8
27.05
30.16
32.53
33.89
34.35
34.13
33.4
32.03
29.64
25.8
20.32
13.52
6.12
-0.95
-6.97
-11.75
-15.64
-19.35
-23.7
-29.31
-36.46
-44.89
-53.76
-61.66
-66.72
-67.18
-61.9
-50.88
-35.38
-17.61
-0.01
15.42
27.45
35.73
40.37
41.72
40.19
36.38
31.15
25.66
21.11
18.42
17.93
19.35
21.89
24.6
26.76
27.97
28.27
27.83
26.78
25.04
22.32
18.32
12.9
6.31
-0.87
-7.9
-14.19
-19.5
-24.05
-28.41
-33.31
-39.47
-47.27
-56.6
-66.61
-75.69
-81.75
-82.75
-77.42
-65.8
-49.32
-30.4
-11.67
4.79
17.84
27.22
33.15
36.01
36.16
34.02
30.31
26.05
22.4
20.35
20.33
22.13
24.95
27.77
29.75
30.5
30.19
29.32
28.37
27.47
26.27
24.1
20.31
14.68
7.65
0.13
-6.85
-12.62
-17.1
-20.82
-24.62
-29.34
-35.63
-43.72
-53.36
-63.67
-73.17
-79.88
-81.82
-77.64
-67.17
-51.56
-33.06
-14.26
2.58
16.06
25.73
31.79
34.78
35.3
33.88
31.12
27.77
24.73
22.89
22.9
24.87
28.32
32.29
35.74
37.89
38.49
37.78
36.28
34.36
32.07
29.08
24.92
19.36
12.61
5.32
-1.7
-7.8
-12.8
-17.05
-21.25
-26.16
-32.4
-40.25
-49.55
-59.6
-69.15
-76.45
-79.63
-77.19
-68.63
-54.64
-37.11
-18.44
-0.97
13.64
24.57
31.74
35.47
36.25
34.64
31.38
27.32
23.44
20.6
19.37
19.9
21.88
24.74
27.8
30.46
32.35
33.25
33.09
31.84
29.37
25.59
20.54
14.47
7.88
1.4
-4.47
-9.54
-14.06
-18.63
-24.02
-30.89
-39.45
-49.13
-58.58
-65.74
-68.45
-65.11
-55.37
-40.32
-22.22
-3.79
12.65
25.7
34.92
40.51
42.83
42.31
39.38
34.76
29.44
24.58
21.11
19.48
19.59
20.88
22.67
24.48
26.01
27.18
27.88
27.84
26.64
23.83
19.14
12.69
5.02
-3.04
-10.61
-17.07
-22.24
-26.45
-30.44
-35.18
-41.56
-50.03
-60.24
-70.85
-79.71
-84.31
-82.68
-74.05
-59.25
-40.45
-20.46
-1.81
13.75
25.51
33.45
37.89
39.18
37.71
34.12
29.38
24.71
21.28
19.84
20.52
22.81
25.82
28.7
30.87
32.12
32.57
32.4
31.69
30.28
27.84
24.01
18.66
11.98
4.55
-2.87
-9.58
-15.24
-19.97
-24.38
-29.33
-35.66
-43.88
-53.85
-64.69
-74.69
-81.63
-83.41
-78.64
-67.27
-50.63
-31.12
-11.43
6.12
20.19
30.34
36.79
40.0
40.5
38.85
35.74
32.1
28.94
27.09
26.95
28.39
30.82
33.41
35.47
36.6
36.81
36.32
35.4
34.1
32.24
29.39
25.19
19.54
12.76
5.56
-1.28
-7.14
-11.91
-15.96
-20.04
-25.05
-31.69
-40.22
-50.21
-60.46
-69.08
-73.94
-73.21
-66.09
-53.1
-36.08
-17.56
-0.05
14.65
25.7
33.08
37.2
38.58
37.74
35.17
31.54
27.66
24.4
22.43
22.11
23.34
25.66
28.37
30.8
32.49
33.2
32.91
31.59
29.15
25.43
20.39
14.23
7.45
0.74
-5.36
-10.65
-15.41
-20.34
-26.22
-33.6
-42.46
-51.97
-60.54
-66.12
-66.76
-61.27
-49.71
-33.46
-14.91
3.32
19.08
31.16
39.26
43.72
45.07
43.79
40.38
35.53
30.21
25.54
22.47
21.43
22.18
24.01
26.0
27.5
28.24
28.31
27.9
27.04
25.51
22.87
18.69
12.84
5.62
-2.27
-9.93
-16.59
-21.96
-26.35
-30.62
-35.88
-43.02
-52.3
-63.04
-73.62
-81.85
-85.47
-82.85
-73.57
-58.51
-39.68
-19.66
-0.87
15.02
27.25
35.79
40.99
43.27
43.04
40.84
37.44
33.9
31.31
30.48
31.59
34.21
37.4
40.18
41.89
42.29
41.56
40.08
38.16
35.95
33.34
30.05
25.78
20.4
14.06
7.18
0.33
-5.96
-11.42
-16.07
-20.29
-24.63
-29.74
-36.16
-44.21
-53.73
-63.87
-73.08
-79.3
-80.59
-75.72
-64.72
-48.95
-30.67
-12.36
3.99
17.19
26.87
33.17
36.43
37.06
35.54
32.58
29.08
26.07
24.4
24.56
26.47
29.55
32.93
35.77
37.52
38.08
37.77
37.03
36.1
34.81
32.6
28.84
23.18
15.95
7.98
0.41
-5.91
-10.74
-14.49
-17.99
-22.16
-27.67
-34.8
-43.29
-52.38
-60.72
-66.58
-68.22
-64.42
-55.01
-40.99
-24.31
-7.28
8.1
20.54
29.52
35.08
37.5
37.2
34.7
30.71
26.09
21.81
18.67
17.16
17.38
19.02
21.53
24.28
26.69
28.33
28.89
28.21
26.14
22.67
17.93
12.24
6.08
0.01
-5.51
-10.31
-14.58
-18.79
-23.69
-29.96
-37.98
-47.4
-57.04
-64.96
-68.96
-67.3
-59.38
-46.0
-29.16
-11.38
5.06
18.62
28.61
34.98
38.04
38.23
36.18
32.68
28.71
25.23
23.01
22.35
23.14
24.87
26.86
28.5
29.45
29.68
29.38
28.7
27.62
25.81
22.72
17.94
11.45
3.74
-4.3
-11.71
-17.91
-22.88
-27.2
-31.77
-37.5
-44.93
-53.94
-63.71
-72.67
-78.84
-80.33
-75.92
-65.5
-50.24
-32.23
-13.93
2.53
15.78
25.34
31.37
34.4
35.03
33.83
31.42
28.51
25.9
24.3
24.09
25.21
27.14
29.16
30.63
31.29
31.24
30.82
30.24
29.45
28.07
25.63
21.77
16.54
10.32
3.77
-2.47
-8.01
-12.82
-17.23
-21.81
-27.25
-34.08
-42.45
-51.84
-61.0
-68.12
-71.24
-68.92
-60.79
-47.75
-31.74
-15.13
0.04
12.48
21.79
28.1
31.72
32.97
32.13
29.63
26.16
22.58
19.71
18.07
17.85
18.87
20.78
23.15
25.61
27.77
29.3
29.83
29.07
26.81
23.02
17.89
11.84
5.45
-0.73
-6.35
-11.37
-16.14
-21.22
-27.23
-34.51
-42.89
-51.41
-58.47
-62.11
-60.6
-53.12
-40.18
-23.57
-5.83
10.56
23.81
33.14
38.62
40.75
40.17
37.51
33.43
28.73
24.31
20.99
19.25
19.1
20.16
21.81
23.45
24.69
25.33
25.32
24.62
23.08
20.46
16.53
11.21
4.73
-2.35
-9.31
-15.51
-20.7
-25.12
-29.45
-34.6
-41.33
-49.88
-59.68
-69.3
-76.68
-79.69
-76.79
-67.61
-53.16
-35.54
-17.26
-0.55
13.24
23.66
30.91
35.39
37.39
37.17
35.04
31.65
27.93
24.98
23.63
24.17
26.28
29.15
31.89
33.89
34.99
35.36
35.3
34.8
33.54
31.02
26.82
20.96
13.96
6.71
0.07
-5.42
-9.8
-13.63
-17.75
-23.04
-30.09
-39.02
-49.26
-59.62
-68.34
-73.54
-73.64
-67.85
-56.49
-40.98
-23.47
-6.34
8.35
19.36
26.37
29.77
30.42
29.21
26.89
24.07
21.3
19.16
18.16
18.59
20.28
22.71
25.14
26.99
28.07
28.56
28.75
28.71
28.17
26.59
23.48
18.7
12.62
5.99
-0.39
-5.91
-10.46
-14.39
-18.42
-23.35
-29.74
-37.63
-46.31
-54.39
-60.05
-61.55
-57.71
-48.43
-34.73
-18.54
-2.14
12.46
23.92
31.75
36.1
37.47
36.36
33.32
28.95
24.05
19.58
16.45
15.22
15.9
17.97
20.59
22.99
24.62
25.29
24.94
23.5
20.89
17.05
12.07
6.28
0.25
-5.48
-10.52
-14.86
-18.86
-23.22
-28.66
-35.7
-44.39
-53.98
-63.03
-69.55
-71.61
-67.9
-58.25
-43.79
-26.62
-9.22
6.18
18.23
26.42
31.07
32.82
32.38
30.4
27.44
24.08
20.94
18.59
17.43
17.53
18.66
20.37
22.17
23.73
24.86
25.51
25.58
24.78
22.77
19.15
13.81
7.03
-0.51
-7.92
-14.43
-19.68
-23.89
-27.78
-32.35
-38.56
-46.84
-56.82
-67.14
-75.68
-80.05
-78.39
-70.03
-55.81
-37.88
-18.95
-1.49
12.91
23.68
30.97
35.21
36.8
36.07
33.47
29.76
25.94
23.07
21.9
22.65
24.96
28.06
31.03
33.17
34.17
34.13
33.37
32.22
30.75
28.76
25.83
21.65
16.15
9.72
2.93
-3.51
-9.16
-13.93
-18.12
-22.31
-27.24
-33.58
-41.7
-51.39
-61.71
-70.93
-76.96
-77.85
-72.55
-61.19
-45.16
-26.7
-8.24
8.22
21.42
30.85
36.58
38.96
38.47
35.75
31.56
26.88
22.76
20.07
19.34
20.51
23.0
25.97
28.6
30.37
31.17
31.18
30.62
29.59
27.94
25.39
21.67
16.75
10.92
4.7
-1.23
-6.34
-10.47
-13.85
-17.12
-21.09
-26.47
-33.62
-42.32
-51.68
-60.2
-66.05
-67.47
-63.32
-53.5
-39.08
-22.08
-4.85
10.51
22.72
31.33
36.48
38.61
38.1
35.34
30.91
25.7
20.83
17.32
15.75
16.02
17.55
19.53
21.37
22.83
23.91
24.65
24.84
24.06
21.83
17.92
12.48
6.04
-0.68
-6.98
-12.44
-17.04
-21.12
-25.34
-30.53
-37.35
-45.97
-55.75
-65.15
-72.04
-74.26
-70.38
-60.22
-44.96
-26.8
-8.29
8.34
21.71
31.27
37.14
39.75
39.61
37.24
33.36
28.84
24.73
21.97
21.15
22.26
24.65
27.34
29.41
30.38
30.31
29.6
28.66
27.55
25.88
23.01
18.38
11.91
4.05
-4.27
-12.03
-18.54
-23.61
-27.64
-31.45
-35.98
-42.01
-49.88
-59.32
-69.33
-78.25
-84.08
-84.95
-79.71
-68.33
-52.04
-33.05
-13.86
3.33
17.2
27.31
33.88
37.41
38.39
37.23
34.42
30.69
27.02
24.39
23.47
24.39
26.64
29.38
31.74
33.19
33.68
33.44
32.75
31.66
29.93
27.13
22.96
17.39
10.82
3.9
-2.67
-8.41
-13.27
-17.55
-21.89
-26.97
-33.35
-41.25
-50.34
-59.66
-67.61
-72.36
-72.2
-66.25
-54.71
-38.94
-21.1
-3.54
11.81
23.8
32.1
36.91
38.72
38.08
35.63
32.05
28.22
25.01
23.11
22.87
24.16
26.47
29.14
31.55
33.28
34.14
34.04
32.92
30.67
27.21
22.61
17.15
11.27
5.45
0.09
-4.7
-9.13
-13.67
-18.99
-25.63
-33.71
-42.56
-50.72
-56.15
-56.85
-51.6
-40.49
-24.94
-7.36
9.71
24.26
35.19
42.25
45.74
46.16
44.07
40.17
35.31
30.53
26.83
24.88
24.87
26.44
28.9
31.44
33.47
34.71
35.14
34.83
33.74
31.67
28.28
23.3
16.78
9.16
1.23
-6.12
-12.29
-17.11
-21.0
-24.74
-29.27
-35.34
-43.23
-52.53
-62.02
-69.83
-73.8
-72.2
-64.25
-50.61
-33.23
-14.73
2.38
16.39
26.66
33.39
37.18
38.62
38.14
36.16
33.23
30.16
27.81
26.88
27.62
29.71
32.45
35.03
36.8
37.56
37.42
36.68
35.55
33.98
31.6
28.01
22.93
16.54
9.41
2.43
-3.66
-8.48
-12.2
-15.51
-19.24
-24.19
-30.77
-38.91
-47.92
-56.54
-63.07
-65.78
-63.36
-55.42
-42.74
-27.13
-10.85
4.02
16.07
24.79
30.38
33.3
34.04
33.04
30.74
27.77
24.91
22.89
22.19
22.81
24.32
26.1
27.6
28.49
28.75
28.47
27.71
26.4
24.3
21.18
16.94
11.75
6.04
0.39
-4.67
-8.89
-12.39
-15.65
-19.36
-24.14
-30.26
-37.44
-44.74
-50.76
-53.88
-52.76
-46.79
-36.34
-22.78
-8.07
5.77
17.16
25.29
30.03
31.77
31.12
28.74
25.32
21.55
18.15
15.75
14.71
15.11
16.68
18.95
21.38
23.49
24.95
25.48
24.88
23.01
19.74
15.14
9.41
2.98
-3.61
-9.85
-15.36
-20.03
-24.05
-27.9
-32.21
-37.59
-44.33
-52.11
-59.81
-65.68
-67.81
-64.77
-56.23
-43.16
-27.54
-11.72
2.3
13.35
21.12
25.88
28.08
28.16
26.52
23.66
20.29
17.27
15.36
14.95
15.91
17.66
19.49
20.81
21.39
21.32
20.87
20.2
19.2
17.51
14.65
10.33
4.63
-1.96
-8.62
-14.55
-19.26
-22.78
-25.66
-28.8
-33.12
-39.18
-46.94
-55.62
-63.78
-69.6
-71.33
-67.81
-58.86
-45.41
-29.28
-12.72
2.23
14.18
22.64
27.81
30.31
30.86
30.0
28.19
25.86
23.57
21.93
21.48
22.43
24.59
27.33
29.9
31.65
32.24
31.74
30.45
28.65
26.48
23.78
20.27
15.65
9.87
3.22
-3.68
-10.08
-15.34
-19.22
-21.97
-24.28
-27.03
-31.02
-36.74
-44.18
-52.72
-61.22
-68.1
-71.65
-70.48
-63.98
-52.63
-37.88
-21.84
-6.61
6.21
15.8
22.08
25.37
26.22
25.15
22.76
19.75
16.91
14.96
14.41
15.36
17.47
20.13
22.69
24.67
25.91
26.51
26.61
26.29
25.36
23.47
20.27
15.66
9.9
3.64
-2.34
-7.4
-11.28
-14.24
-16.95
-20.26
-24.91
-31.26
-39.04
-47.32
-54.6
-59.14
-59.4
-54.54
-44.72
-31.14
-15.73
-0.56
12.64
22.83
29.68
33.31
34.07
32.41
28.86
24.18
19.34
15.37
13.1
12.9
14.51
17.25
20.22
22.71
24.3
25.03
25.09
24.67
23.79
22.18
19.46
15.32
9.78
3.22
-3.65
-10.05
-15.45
-19.76
-23.43
-27.21
-32.0
-38.39
-46.39
-55.27
-63.53
-69.25
-70.56
-66.23
-56.22
-41.71
-24.8
-7.91
6.95
18.67
27.01
32.36
35.2
35.91
34.73
32.04
28.51
25.12
22.87
22.42
23.78
26.38
29.25
31.54
32.72
32.78
32.06
30.98
29.83
28.56
26.88
24.35
20.68
15.79
9.96
3.72
-2.33
-7.72
-12.31
-16.25
-20.01
-24.2
-29.46
-36.26
-44.71
-54.3
-63.79
-71.34
-74.9
-72.85
-64.64
-51.03
-33.95
-15.91
0.82
14.68
25.06
32.08
36.23
38.04
37.89
36.16
33.31
29.92
26.75
24.49
23.63
24.37
26.49
29.48
32.65
35.34
37.04
37.57
37.01
35.63
33.68
31.29
28.4
24.88
20.59
15.54
9.91
4.03
-1.72
-7.07
-11.86
-16.18
-20.36
-24.87
-30.23
-36.85
-44.82
-53.73
-62.58
-69.81
-73.6
-72.36
-65.28
-52.76
-36.41
-18.62
-1.86
12.06
22.3
28.92
32.46
33.52
32.48
29.71
25.72
21.38
17.73
15.69
15.66
17.41
20.21
23.15
25.59
27.29
28.42
29.2
29.73
29.75
28.81
26.4
22.28
16.6
9.93
3.07
-3.15
-8.21
-12.02
-15.0
-17.88
-21.53
-26.65
-33.54
-41.97
-51.05
-59.36
-65.12
-66.59
-62.62
-53.0
-38.71
-21.71
-4.42
11.03
23.26
31.86
37.12
39.62
39.88
38.23
35.0
30.67
26.03
22.08
19.71
19.39
21.0
23.88
27.08
29.68
31.07
31.06
29.82
27.73
25.19
22.41
19.4
15.91
11.63
6.33
0.05
-6.83
-13.68
-19.87
-25.01
-29.15
-32.72
-36.4
-40.89
-46.74
-54.2
-62.98
-72.2
-80.28
-85.25
-85.2
-79.02
-66.83
-50.14
-31.37
-13.1
2.66
14.87
23.47
28.97
32.03
33.2
32.9
31.52
29.51
27.49
26.06
25.75
26.79
28.98
31.78
34.48
36.44
37.33
37.21
36.39
35.2
33.78
31.97
29.41
25.79
20.96
15.06
8.51
1.81
-4.6
-10.43
-15.58
-20.11
-24.26
-28.41
-33.07
-38.79
-46.03
-54.94
-65.01
-74.98
-82.94
-86.75
-84.73
-76.27
-62.15
-44.35
-25.48
-7.94
6.63
17.56
25.02
29.5
31.53
31.54
29.98
27.41
24.61
22.38
21.38
21.87
23.67
26.23
28.86
31.01
32.41
33.1
33.33
33.23
32.75
31.53
29.09
25.06
19.42
12.6
5.37
-1.43
-7.2
-11.76
-15.4
-18.74
-22.53
-27.44
-33.9
-41.94
-51.02
-60.01
-67.26
-70.93
-69.51
-62.34
-49.95
-33.95
-16.55
0.04
14.21
25.14
32.65
36.91
38.2
36.88
33.51
29.02
24.58
21.31
19.91
20.46
22.45
25.02
27.42
29.22
30.41
31.2
31.76
32.02
31.58
29.85
26.29
20.74
13.53
5.45
-2.55
-9.66
-15.55
-20.48
-25.19
-30.55
-37.3
-45.75
-55.51
-65.51
-74.03
-79.02
-78.71
-72.15
-59.65
-42.79
-23.96
-5.66
10.26
22.84
31.92
37.82
40.85
41.29
39.45
35.9
31.59
27.64
25.07
24.5
25.91
28.72
32.06
35.08
37.18
38.16
38.16
37.43
36.15
34.21
31.27
26.92
20.97
13.69
5.78
-1.88
-8.53
-13.96
-18.53
-23.05
-28.44
-35.4
-44.17
-54.43
-65.19
-74.91
-81.69
-83.71
-79.7
-69.49
-54.12
-35.65
-16.56
0.92
15.38
26.3
33.83
38.42
40.5
40.41
38.51
35.41
31.98
29.25
28.1
28.98
31.7
35.49
39.32
42.25
43.77
43.96
43.27
42.18
40.89
39.16
36.38
32.01
25.83
18.21
9.98
2.12
-4.66
-10.11
-14.54
-18.57
-22.96
-28.41
-35.44
-44.19
-54.28
-64.63
-73.48
-78.79
-78.73
-72.4
-60.12
-43.47
-24.79
-6.46
9.6
22.29
31.28
36.73
39.08
38.86
36.74
33.54
30.14
27.41
26.03
26.26
27.92
30.51
33.34
35.84
37.65
38.72
39.11
38.88
37.9
35.84
32.33
27.17
20.52
13.0
5.41
-1.45
-7.13
-11.68
-15.65
-19.95
-25.48
-32.81
-41.85
-51.62
-60.34
-65.84
-66.16
-60.33
-48.64
-32.67
-14.71
2.92
18.42
30.83
39.82
45.42
47.78
47.12
43.87
38.81
33.08
27.98
24.62
23.59
24.78
27.52
30.78
33.54
35.2
35.6
35.03
33.89
32.43
30.53
27.81
23.79
18.25
11.36
3.68
-4.01
-11.05
-17.11
-22.24
-26.86
-31.63
-37.33
-44.66
-53.93
-64.8
-76.02
-85.55
-90.97
-90.31
-82.64
-68.56
-49.98
-29.58
-9.94
7.01
20.26
29.66
35.58
38.58
39.22
38.05
35.63
32.69
30.04
28.49
28.62
30.56
33.9
37.81
41.35
43.85
45.04
45.08
44.28
42.9
40.96
38.3
34.63
29.84
24.0
17.38
10.4
3.55
-2.75
-8.27
-13.03
-17.33
-21.69
-26.69
-32.83
-40.44
-49.53
-59.73
-70.11
-79.09
-84.69
-84.95
-78.67
-65.98
-48.42
-28.56
-9.16
7.64
20.72
29.99
35.88
38.9
39.47
37.97
35.0
31.46
28.46
26.96
27.47
29.8
33.19
36.58
39.08
40.24
40.09
39.06
37.63
36.07
34.23
31.69
27.98
22.84
16.46
9.41
2.48
-3.68
-8.79
-12.97
-16.67
-20.51
-25.12
-30.97
-38.31
-46.91
-55.96
-64.0
-69.19
-69.8
-64.8
-54.25
-39.42
-22.35
-5.32
9.81
21.93
30.67
36.16
38.75
38.77
36.57
32.72
28.08
23.77
20.91
20.21
21.71
24.68
27.95
30.4
31.38
30.95
29.66
28.16
26.74
25.22
22.99
19.4
14.17
7.53
0.18
-6.98
-13.25
-18.3
-22.36
-26.05
-30.21
-35.63
-42.85
-51.89
-62.09
-72.1
-80.01
-83.83
-82.07
-74.18
-60.89
-43.93
-25.56
-8.0
7.11
18.92
27.28
32.49
35.02
35.39
34.1
31.71
28.88
26.38
24.92
24.96
26.56
29.27
32.3
34.84
36.33
36.66
36.05
34.92
33.5
31.74
29.27
25.64
20.57
14.13
6.79
-0.71
-7.65
-13.57
-18.36
-22.36
-26.19
-30.58
-36.24
-43.64
-52.82
-63.21
-73.52
-81.81
-85.97
-84.25
-76.0
-61.94
-44.06
-25.01
-7.28
7.43
18.48
26.05
30.71
33.01
33.39
32.21
30.03
27.57
25.67
25.01
25.92
28.24
31.48
34.93
37.89
39.9
40.75
40.48
39.31
37.53
35.28
32.57
29.2
24.98
19.8
13.79
7.35
0.95
-4.96
-10.13
-14.56
-18.5
-22.36
-26.66
-31.95
-38.69
-47.01
-56.52
-66.1
-74.0
-78.24
-77.23
-70.27
-57.9
-41.79
-24.19
-7.33
7.2
18.58
26.67
31.71
33.98
33.79
31.46
27.68
23.45
19.99
18.35
19.04
21.8
25.74
29.72
32.8
34.55
35.1
34.85
34.21
33.24
31.68
29.03
24.86
19.06
12.01
4.47
-2.64
-8.63
-13.32
-17.1
-20.83
-25.42
-31.61
-39.65
-49.22
-59.44
-68.92
-75.91
-78.66
-75.85
-67.08
-53.16
-35.95
-17.89
-1.23
12.5
22.71
29.52
33.43
34.95
34.49
32.51
29.61
26.65
24.58
24.15
25.64
28.8
32.83
36.79
39.81
41.39
41.49
40.4
38.54
36.2
33.44
30.13
26.01
20.98
15.06
8.55
1.86
-4.63
-10.65
-16.13
-21.14
-25.89
-30.65
-35.79
-41.78
-49.06
-57.92
-68.09
-78.53
-87.41
-92.46
-91.66
-84.03
-70.02
-51.53
-31.28
-12.07
4.05
16.12
24.23
29.13
31.73
32.73
32.6
31.69
30.45
29.47
29.38
30.64
33.29
36.97
40.96
44.53
47.13
48.52
48.71
47.83
46.01
43.37
39.98
35.89
31.14
25.76
19.79
13.35
6.67
0.09
-6.06
-11.53
-16.28
-20.47
-24.49
-28.85
-34.16
-40.95
-49.49
-59.48
-69.8
-78.59
-83.62
-82.96
-75.69
-62.37
-44.86
-25.76
-7.66
7.58
19.1
26.91
31.5
33.54
33.59
32.19
29.87
27.32
25.24
24.24
24.65
26.42
29.09
32.0
34.51
36.22
37.1
37.35
37.2
36.7
35.57
33.33
29.5
23.94
17.01
9.46
2.25
-3.83
-8.48
-11.95
-14.94
-18.38
-23.12
-29.7
-38.13
-47.78
-57.31
-64.93
-68.74
-67.24
-59.93
-47.44
-31.45
-14.21
2.14
16.05
26.77
34.22
38.67
40.47
39.96
37.59
34.04
30.25
27.3
26.03
26.8
29.29
32.64
35.82
37.92
38.54
37.72
35.87
33.49
30.9
28.11
24.86
20.75
15.4
8.79
1.3
-6.37
-13.4
-19.2
-23.66
-27.28
-30.96
-35.71
-42.34
-51.1
-61.48
-72.23
-81.47
-87.11
-87.35
-81.25
-69.11
-52.45
-33.64
-15.2
0.83
13.35
22.18
27.79
30.94
32.27
32.27
31.33
29.79
28.14
26.96
26.78
27.9
30.24
33.29
36.32
38.61
39.76
39.8
39.02
37.77
36.15
33.96
30.82
26.41
20.7
14.0
6.92
0.06
-6.09
-11.34
-15.79
-19.78
-23.8
-28.45
-34.29
-41.66
-50.46
-60.0
-68.87
-75.18
-77.04
-73.11
-63.13
-48.19
-30.37
-12.29
3.81
16.48
25.36
30.88
33.84
34.98
34.81
33.7
32.02
30.33
29.22
29.16
30.28
32.34
34.85
37.27
39.21
40.44
40.83
40.3
38.76
36.26
33.03
29.33
25.4
21.25
16.74
11.67
6.06
0.22
-5.39
-10.34
-14.51
-18.14
-21.73
-25.77
-30.66
-36.64
-43.78
-51.92
-60.48
-68.27
-73.64
-74.84
-70.68
-60.98
-46.82
-30.17
-13.25
2.06
14.61
23.96
30.14
33.39
34.04
32.5
29.4
25.56
21.95
19.45
18.67
19.73
22.24
25.44
28.48
30.68
31.79
31.9
31.33
30.3
28.76
26.37
22.74
17.66
11.35
4.38
-2.46
-8.47
-13.28
-16.99
-20.17
-23.62
-28.27
-34.71
-42.99
-52.32
-61.13
-67.37
-69.1
-65.17
-55.59
-41.61
-25.31
-8.93
5.68
17.41
25.92
31.4
34.24
34.85
33.61
30.97
27.5
24.0
21.34
20.25
21.11
23.72
27.37
31.07
33.87
35.23
35.13
33.92
32.1
29.97
27.49
24.32
20.02
14.36
7.46
-0.1
-7.56
-14.17
-19.57
-23.87
-27.62
-31.6
-36.57
-43.07
-51.26
-60.82
-70.89
-80.02
-86.38
-88.14
-83.97
-73.61
-58.08
-39.48
-20.39
-3.13
10.81
20.93
27.56
31.39
33.16
33.49
32.88
31.78
30.68
29.99
30.0
30.8
32.33
34.37
36.67
38.9
40.75
41.89
42.11
41.27
39.38
36.57
32.99
28.86
24.35
19.6
14.76
9.88
4.97
-0.02
-5.09
-10.19
-15.15
-19.82
-24.19
-28.51
-33.3
-39.21
-46.72
-55.87
-65.92
-75.4
-82.34
-84.79
-81.43
-72.04
-57.69
-40.41
-22.59
-6.34
6.94
16.78
23.38
27.28
29.05
29.19
28.16
26.48
24.74
23.58
23.54
24.83
27.37
30.73
34.27
37.36
39.48
40.35
40.02
38.69
36.68
34.2
31.29
27.79
23.5
18.35
12.46
6.23
0.21
-5.14
-9.55
-13.04
-15.97
-18.87
-22.3
-26.77
-32.63
-40.04
-48.76
-58.01
-66.4
-72.12
-73.32
-68.74
-58.25
-42.98
-25.12
-7.22
8.52
20.77
29.18
34.14
36.3
36.3
34.63
31.7
28.06
24.4
21.55
20.28
20.99
23.57
27.39
31.44
34.67
36.36
36.23
34.54
31.85
28.72
25.49
22.11
18.33
13.83
8.46
2.37
-4.05
-10.32
-16.04
-21.0
-25.25
-29.08
-32.89
-37.19
-42.51
-49.23
-57.39
-66.43
-75.11
-81.59
-83.93
-80.68
-71.45
-57.11
-39.61
-21.39
-4.66
9.11
19.37
26.29
30.41
32.26
32.32
31.03
28.83
26.35
24.23
23.08
23.26
24.84
27.59
31.04
34.62
37.73
39.87
40.72
40.17
38.37
35.56
32.07
28.13
23.83
19.18
14.13
8.69
2.99
-2.82
-8.58
-14.11
-19.31
-24.14
-28.66
-33.08
-37.8
-43.38
-50.31
-58.7
-67.95
-76.59
-82.57
-83.77
-78.74
