0
12.88
15.08
17.24
18.63
18.88
17.98
16.22
14.07
12.0
10.35
9.35
8.99
9.16
9.64
10.14
10.41
10.26
9.63
8.58
7.27
5.85
4.4
2.82
0.88
-1.74
-5.29
-9.8
-14.9
-19.78
-23.38
-24.64
-22.88
-18.06
-10.79
-2.14
6.69
14.75
21.45
26.57
30.1
32.12
32.77
32.27
30.93
29.18
27.44
26.01
24.95
24.11
23.17
21.85
20.04
17.85
15.51
13.3
11.29
9.41
7.41
5.0
1.99
-1.61
-5.67
-9.88
-13.91
-17.45
-20.28
-22.3
-23.64
-24.57
-25.47
-26.74
-28.67
-31.41
-34.97
-39.15
-43.56
-47.55
-50.22
-50.67
-48.32
-43.13
-35.73
-27.2
-18.65
-10.88
-4.23
1.28
5.73
9.13
11.4
12.63
13.11
13.34
13.8
14.76
16.17
17.78
19.3
20.55
21.35
21.56
21.07
19.79
17.78
15.24
12.48
9.78
7.29
5.02
2.88
0.75
-1.5
-3.95
-6.6
-9.36
-12.04
-14.46
-16.55
-18.42
-20.34
-22.59
-25.37
-28.67
-32.35
-36.11
-39.49
-41.9
-42.66
-41.16
-37.15
-30.86
-23.03
-14.64
-6.62
0.42
6.24
10.87
14.44
17.11
19.0
20.34
21.32
22.17
23.05
23.98
24.92
25.79
26.48
26.94
27.1
26.95
26.5
25.84
25.09
24.3
23.4
22.29
20.78
18.84
16.48
13.83
11.06
8.37
5.92
3.9
2.45
1.54
0.96
0.36
-0.66
-2.36
-4.79
-7.77
-10.94
-13.84
-16.04
-17.06
-16.53
-14.23
-10.19
-4.76
1.48
7.91
14.02
19.5
24.21
28.04
30.85
32.53
33.0
32.44
31.17
29.65
28.26
27.19
26.44
25.86
25.33
24.72
24.01
23.21
22.3
21.18
19.78
18.02
15.84
13.22
10.09
6.43
2.27
-2.18
-6.62
-10.63
-13.92
-16.4
-18.3
-20.15
-22.52
-25.86
-30.3
-35.57
-40.97
-45.56
-48.37
-48.65
-46.13
-41.09
-34.25
-26.57
-18.94
-12.0
-6.06
-1.21
2.61
5.52
7.66
9.17
10.26
11.08
11.74
12.31
12.8
13.21
13.54
13.78
13.9
13.88
13.66
13.21
12.46
11.4
10.0
8.27
6.24
3.99
1.63
-0.76
-3.15
-5.56
-8.04
-10.66
-13.39
-16.18
-18.95
-21.66
-24.42
-27.43
-30.96
-35.18
-40.04
-45.16
-49.87
-53.32
-54.75
-53.74
-50.24
-44.63
-37.53
-29.69
-21.8
-14.4
-7.88
-2.43
1.89
5.17
7.54
9.23
10.46
11.46
12.39
13.35
14.4
15.5
16.64
17.78
18.84
19.76
20.38
20.61
20.41
19.83
19.0
18.01
16.85
15.41
13.64
11.59
9.49
7.62
6.16
5.13
4.37
3.68
2.88
1.93
0.8
-0.56
-2.35
-4.84
-8.31
-12.75
-17.78
-22.63
-26.22
-27.59
-26.16
-22.03
-15.97
-9.09
-2.42
3.45
8.42
12.8
16.9
20.8
24.35
27.32
29.55
31.08
32.08
32.74
33.19
33.43
33.44
33.2
32.68
31.88
30.84
29.63
28.32
27.02
25.72
24.35
22.7
20.63
18.06
15.13
12.12
9.32
6.9
4.85
2.98
0.99
-1.5
-4.78
-9.01
-14.13
-19.77
-25.26
-29.81
-32.59
-33.02
-30.87
-26.4
-20.28
-13.39
-6.58
-0.49
4.61
8.67
11.78
13.99
15.27
15.63
15.13
14.04
12.78
11.75
11.19
11.11
11.3
11.44
11.32
10.8
9.9
8.75
7.43
6.03
4.53
2.82
0.73
-1.83
-4.83
-8.03
-11.12
-13.87
-16.3
-18.58
-21.01
-23.77
-26.91
-30.37
-34.13
-38.35
-43.19
-48.6
-54.12
-58.83
-61.56
-61.35
-57.83
-51.35
-42.85
-33.52
-24.43
-16.28
-9.38
-3.78
0.64
3.97
6.26
7.54
7.92
7.62
6.97
6.42
6.31
6.86
8.02
9.58
11.21
12.54
13.36
13.56
13.17
12.32
11.16
9.8
8.3
6.7
4.97
3.17
1.35
-0.37
-1.89
-3.23
-4.47
-5.76
-7.31
-9.25
-11.69
-14.71
-18.29
-22.32
-26.47
-30.17
-32.66
-33.18
-31.2
-26.63
-19.86
-11.72
-3.15
5.03
12.28
18.4
23.39
27.31
30.22
32.12
33.12
33.47
33.53
33.7
34.24
35.14
36.14
36.9
37.18
36.92
36.29
35.43
34.45
33.29
31.79
29.78
27.21
24.19
20.93
17.67
14.63
11.91
9.5
7.26
4.98
2.43
-0.58
-4.17
-8.36
-12.97
-17.59
-21.62
-24.29
-24.93
-23.12
-18.95
-12.92
-5.85
1.4
8.14
13.92
18.56
21.97
24.17
25.15
25.0
23.9
22.13
20.04
17.98
16.28
15.09
14.41
14.04
13.68
13.06
12.04
10.65
9.02
7.27
5.36
3.14
0.4
-2.89
-6.58
-10.33
-13.78
-16.67
-18.95
-20.77
-22.38
-24.13
-26.29
-29.13
-32.76
-37.12
-41.91
-46.52
-50.08
-51.69
-50.64
-46.64
-39.95
-31.36
-21.96
-12.82
-4.72
1.98
7.26
11.28
14.17
15.96
16.66
16.38
15.46
14.35
13.51
13.2
13.44
14.0
14.55
14.84
14.75
14.31
13.62
12.76
11.71
10.39
8.69
6.54
4.0
1.18
-1.75
-4.67
-7.51
-10.26
-12.91
-15.45
-17.87
-20.29
-22.89
-25.98
-29.78
-34.26
-39.02
-43.32
-46.23
-46.96
-45.03
-40.47
-33.74
-25.57
-16.76
-8.0
0.18
7.41
13.44
18.1
21.31
23.13
23.8
23.7
23.32
23.05
23.12
23.5
23.99
24.38
24.55
24.55
24.48
24.42
24.28
23.86
22.93
21.35
19.13
16.43
13.48
10.5
7.67
5.13
2.94
1.15
-0.32
-1.66
-3.16
-5.13
-7.8
-11.24
-15.2
-19.19
-22.49
-24.33
-24.08
-21.41
-16.46
-9.71
-1.96
5.97
13.44
20.0
25.4
29.48
32.18
33.5
33.57
32.73
31.5
30.47
30.08
30.49
31.51
32.7
33.51
33.57
32.76
31.29
29.46
27.59
25.74
23.76
21.37
18.28
14.42
9.96
5.3
0.85
-3.09
-6.51
-9.57
-12.62
-15.96
-19.78
-24.13
-28.86
-33.7
-38.16
-41.61
-43.34
-42.76
-39.66
-34.26
-27.26
-19.55
-11.99
-5.17
0.58
5.13
8.46
10.56
11.47
11.38
10.61
9.55
8.61
8.09
8.14
8.73
9.7
10.77
11.59
11.87
11.46
10.36
8.79
6.92
4.92
2.76
0.4
-2.26
-5.17
-8.21
-11.18
-13.96
-16.49
-18.81
-21.03
-23.24
-25.56
-28.12
-31.06
-34.43
-38.06
-41.54
-44.23
-45.46
-44.73
-41.85
-37.01
-30.72
-23.64
-16.41
-9.57
-3.52
1.51
5.43
8.19
9.86
10.6
10.66
10.34
9.91
9.55
9.32
9.23
9.3
9.57
10.07
10.74
11.36
11.63
11.3
10.34
8.94
7.44
6.13
5.1
4.24
3.32
2.16
0.71
-1.0
-2.9
-4.95
-7.13
-9.41
-11.69
-13.89
-15.97
-18.03
-20.27
-22.88
-25.86
-28.89
-31.28
-32.22
-30.98
-27.25
-21.24
-13.67
-5.44
2.6
9.9
16.2
21.42
25.49
28.27
29.64
29.64
28.6
27.07
25.67
24.89
24.94
25.73
26.95
28.2
29.14
29.6
29.56
29.12
28.4
27.46
26.23
24.56
22.35
19.62
16.57
13.5
10.73
8.38
6.4
4.57
2.65
0.47
-2.06
-4.93
-8.08
-11.41
-14.7
-17.58
-19.57
-20.16
-18.96
-15.88
-11.14
-5.27
1.04
7.18
12.63
17.15
20.59
22.87
23.98
23.95
23.05
21.68
20.36
19.55
19.41
19.79
20.28
20.48
20.15
19.29
18.04
16.56
14.89
13.01
10.92
8.66
6.33
3.97
1.54
-1.04
-3.83
-6.78
-9.72
-12.59
-15.42
-18.37
-21.62
-25.24
-29.18
-33.24
-37.2
-40.78
-43.59
-45.14
-44.89
-42.51
-38.03
-31.94
-24.99
-17.93
-11.29
-5.27
0.02
4.54
8.15
10.72
12.23
12.82
12.76
12.4
11.98
11.67
11.54
11.57
11.69
11.77
11.65
11.18
10.34
9.14
7.72
6.17
4.52
2.68
0.56
-1.88
-4.59
-7.43
-10.21
-12.81
-15.27
-17.71
-20.3
-23.12
-26.14
-29.2
-32.13
-34.84
-37.26
-39.32
-40.8
-41.34
-40.54
-38.16
-34.22
-29.04
-23.1
-16.85
-10.67
-4.78
0.56
5.09
8.55
10.74
11.72
11.73
11.14
10.35
9.67
9.29
9.35
9.9
10.91
12.28
13.8
15.22
16.29
16.82
16.73
16.06
14.95
13.56
12.0
10.35
8.61
6.8
5.02
3.41
2.09
1.02
-0.04
-1.44
-3.45
-6.13
-9.19
-12.14
-14.46
-15.69
-15.6
-14.04
-10.97
-6.44
-0.68
5.86
12.56
18.79
23.99
27.87
30.41
31.75
32.13
31.81
31.09
30.28
29.63
29.34
29.38
29.6
29.72
29.54
28.99
28.14
27.12
26.01
24.72
23.06
20.83
17.95
14.54
10.91
7.44
4.43
1.96
-0.16
-2.26
-4.76
-7.97
-12.08
-17.06
-22.62
-28.26
-33.28
-36.92
-38.51
-37.68
-34.5
-29.47
-23.41
-17.16
-11.43
-6.61
-2.83
0.03
2.07
3.4
4.05
4.01
3.34
2.2
0.89
-0.28
-1.04
-1.32
-1.18
-0.84
-0.49
-0.22
-0.03
0.15
0.33
0.41
0.25
-0.33
-1.39
-2.95
-4.91
-7.13
-9.43
-11.68
-13.73
-15.57
-17.31
-19.16
-21.35
-24.1
-27.53
-31.61
-36.06
-40.4
-43.91
-45.8
-45.41
-42.51
-37.43
-30.97
-24.1
-17.62
-11.96
-7.21
-3.31
-0.24
1.95
3.27
3.87
4.05
4.17
4.51
5.11
5.92
6.77
7.59
8.33
9.01
9.64
10.19
10.59
10.76
10.63
10.11
9.22
8.02
6.63
5.1
3.45
1.6
-0.53
-2.86
-5.19
-7.27
-8.93
-10.19
-11.26
-12.43
-13.93
-15.87
-18.28
-21.09
-24.17
-27.26
-29.88
-31.42
-31.28
-29.09
-24.83
-18.87
-11.84
-4.35
3.07
10.01
16.19
21.36
25.36
28.18
29.9
30.77
31.09
31.21
31.37
31.76
32.46
33.42
34.51
35.51
36.23
36.54
36.34
35.61
34.36
32.58
30.34
27.7
24.82
21.84
18.94
16.24
13.8
11.63
9.69
7.87
6.06
4.17
2.16
-0.02
-2.43
-5.16
-8.24
-11.63
-14.97
-17.67
-19.01
-18.44
-15.75
-11.22
-5.48
0.68
6.57
11.71
15.86
18.9
20.82
21.66
21.54
20.71
19.5
18.25
17.25
16.64
16.38
16.27
16.07
15.59
14.74
13.61
12.3
10.91
9.4
7.63
5.51
3.01
0.31
-2.42
-5.02
-7.41
-9.64
-11.76
-13.85
-15.93
-18.1
-20.48
-23.23
-26.46
-30.24
-34.52
-39.15
-43.89
-48.28
-51.72
-53.55
-53.2
-50.44
-45.41
-38.66
-30.91
-22.93
-15.35
-8.58
-2.85
1.8
5.34
7.85
9.39
10.04
9.96
9.4
8.64
7.98
7.61
7.54
7.73
8.09
8.55
9.09
9.57
9.78
9.47
8.49
6.9
5.01
3.2
1.73
0.61
-0.37
-1.48
-2.92
-4.65
-6.48
-8.21
-9.7
-10.97
-12.14
-13.39
-14.96
-17.03
-19.72
-23.02
-26.71
-30.34
-33.3
-34.91
-34.58
-32.0
-27.2
-20.57
-12.8
-4.62
3.28
10.46
16.76
22.14
26.67
30.29
32.91
34.44
34.94
34.67
34.04
33.47
33.25
33.44
33.89
34.33
34.5
34.31
33.74
32.88
31.85
30.68
29.36
27.81
25.94
23.76
21.4
19.06
16.95
15.18
13.66
12.23
10.63
8.67
6.25
3.38
0.12
-3.49
-7.39
-11.52
-15.64
-19.29
-21.81
-22.47
-20.79
-16.73
-10.83
-4.01
2.69
8.55
13.23
16.74
19.24
20.77
21.32
20.87
19.6
17.91
16.3
15.15
14.62
14.62
14.87
15.1
15.05
14.53
13.37
11.53
9.14
6.47
3.91
1.74
0.05
-1.31
-2.59
-4.1
-5.99
-8.37
-11.22
-14.48
-18.03
-21.65
-25.15
-28.36
-31.31
-34.19
-37.34
-40.99
-45.12
-49.36
-53.0
-55.23
-55.36
-53.06
-48.48
-42.17
-34.88
-27.35
-20.1
-13.42
-7.52
-2.55
1.29
3.86
5.23
5.69
5.67
5.63
5.87
6.46
7.3
8.2
9.0
9.64
10.13
10.52
10.85
11.11
11.18
10.91
10.16
8.87
7.12
5.09
3.0
0.95
-1.06
-3.11
-5.29
-7.63
-10.04
-12.37
-14.46
-16.22
-17.71
-19.11
-20.71
-22.85
-25.76
-29.37
-33.25
-36.67
-38.7
-38.56
-35.81
-30.53
-23.28
-14.89
-6.23
1.97
9.26
15.53
20.79
25.16
28.67
31.27
32.92
33.65
33.69
33.38
33.14
33.21
33.61
34.13
34.49
34.47
33.96
33.02
31.78
30.36
28.77
26.98
24.93
22.58
19.98
17.3
14.74
12.52
10.74
9.32
8.04
6.62
4.79
2.41
-0.58
-4.13
-8.18
-12.56
-16.98
-20.96
-23.87
-25.1
-24.24
-21.22
-16.38
-10.33
-3.8
2.56
8.25
12.96
16.52
18.92
20.21
20.58
20.26
19.56
18.77
18.14
17.8
17.71
17.73
17.6
17.14
16.24
14.92
13.28
11.42
9.41
7.24
4.89
2.37
-0.28
-3.01
-5.78
-8.56
-11.31
-14.01
-16.56
-18.91
-21.07
-23.12
-25.21
-27.53
-30.26
-33.55
-37.55
-42.23
-47.34
-52.28
-56.17
-58.06
-57.29
-53.66
-47.59
-39.93
-31.68
-23.73
-16.68
-10.85
-6.29
-2.94
-0.59
0.97
1.95
2.57
3.01
3.44
4.05
5.0
6.38
8.14
10.08
11.93
13.43
14.4
14.75
14.47
13.62
12.28
10.6
8.76
6.94
5.24
3.65
2.14
0.61
-0.91
-2.38
-3.74
-4.97
-6.09
-7.2
-8.39
-9.77
-11.49
-13.73
-16.61
-20.14
-24.02
-27.69
-30.31
-31.05
-29.31
-24.95
-18.38
-10.41
-2.02
5.91
12.85
18.65
23.39
27.23
30.24
32.39
33.68
34.21
34.26
34.19
34.29
34.69
35.29
35.97
36.55
36.97
37.15
37.02
36.46
35.37
33.75
31.72
29.4
26.92
24.34
21.7
19.07
16.58
14.32
12.27
10.3
8.21
5.8
2.97
-0.3
-4.03
-8.2
-12.69
-17.18
-21.19
-24.13
-25.46
-24.89
-22.36
-18.09
-12.46
-6.02
0.58
6.63
11.55
15.03
17.12
18.17
18.57
18.6
18.39
17.99
17.53
17.23
17.28
17.68
18.18
18.35
17.87
16.67
14.96
13.07
11.22
9.36
7.27
4.78
1.91
-1.14
-4.09
-6.78
-9.19
-11.48
-13.79
-16.15
-18.54
-20.9
-23.24
-25.71
-28.54
-32.01
-36.31
-41.5
-47.32
-53.14
-58.04
-61.04
-61.35
-58.73
-53.46
-46.27
-38.04
-29.54
-21.32
-13.76
-7.14
-1.73
2.29
4.83
6.08
6.32
5.94
5.33
4.74
4.31
4.06
3.98
4.06
4.32
4.82
5.56
6.45
7.23
7.64
7.43
6.58
5.27
3.8
2.46
1.41
0.64
0.02
-0.65
-1.54
-2.77
-4.4
-6.39
-8.6
-10.82
-12.83
-14.58
-16.15
-17.84
-19.98
-22.84
-26.45
-30.55
-34.64
-38.01
-39.9
-39.61
-36.7
-31.07
-23.11
-13.57
-3.45
6.24
14.76
21.71
27.02
30.88
33.53
35.22
36.17
36.59
36.72
36.82
37.09
37.62
38.31
38.87
39.0
38.47
37.27
35.58
33.72
31.96
30.42
29.01
27.54
25.84
23.85
21.61
19.18
16.61
13.87
10.96
8.0
5.21
2.77
0.76
-1.01
-2.89
-5.29
-8.48
-12.51
-17.15
-21.87
-25.94
-28.5
-28.79
-26.35
-21.26
-14.16
-6.06
1.96
9.11
14.96
19.5
22.85
25.13
26.44
26.83
26.43
25.48
24.31
23.17
22.24
21.54
20.98
20.43
19.77
18.9
17.78
16.45
14.92
13.18
11.2
8.87
6.13
2.96
-0.54
-4.18
-7.76
-11.13
-14.24
-17.1
-19.73
-22.14
-24.31
-26.18
-27.81
-29.33
-31.06
-33.36
-36.53
-40.64
-45.38
-50.12
-53.95
-55.92
-55.34
-51.96
-46.05
-38.31
-29.64
-20.91
-12.81
-5.72
0.19
4.91
8.5
11.03
12.62
13.48
13.88
14.11
14.38
14.75
15.15
15.42
15.49
15.43
15.37
15.43
15.56
15.53
15.01
13.78
11.86
9.48
7.01
4.78
2.98
1.53
0.27
-1.03
-2.55
-4.36
-6.47
-8.82
-11.29
-13.74
-16.04
-18.2
-20.32
-22.68
-25.57
-29.21
-33.59
-38.41
-43.01
-46.53
-48.1
-47.1
-43.36
-37.2
-29.32
-20.55
-11.68
-3.29
4.27
10.83
16.32
20.69
23.98
26.23
27.56
28.18
28.31
28.23
28.19
28.33
28.7
29.18
29.54
29.64
29.43
29.0
28.48
27.92
27.28
26.4
25.16
23.56
21.73
19.87
18.1
16.45
14.8
13.01
10.99
8.7
6.22
3.66
1.1
-1.47
-4.15
-7.11
-10.5
-14.32
-18.26
-21.68
-23.74
-23.69
-21.11
-16.11
-9.29
-1.56
6.21
13.31
19.29
23.91
27.04
28.67
28.9
28.03
26.49
24.8
23.4
22.56
22.28
22.41
22.69
22.95
23.12
23.22
23.24
23.12
22.69
21.74
20.16
17.98
15.46
12.86
10.38
7.95
5.31
2.15
-1.72
-6.19
-10.93
-15.52
-19.65
-23.25
-26.54
-29.84
-33.5
-37.76
-42.55
-47.55
-52.14
-55.57
-57.12
-56.3
-53.0
-47.48
-40.31
-32.14
-23.7
-15.59
-8.31
-2.18
2.69
6.25
8.57
9.74
9.88
9.22
8.12
7.04
6.43
6.54
7.3
8.39
9.4
10.02
10.14
9.79
9.04
7.91
6.4
4.53
2.43
0.29
-1.69
-3.42
-4.97
-6.54
-8.38
-10.64
-13.35
-16.32
-19.22
-21.68
-23.46
-24.56
-25.23
-26.01
-27.44
-29.93
-33.61
-38.2
-43.03
-47.15
-49.54
-49.36
-46.25
-40.38
-32.46
-23.52
-14.5
-6.09
1.37
7.83
13.28
17.71
21.0
23.08
24.05
24.16
23.83
23.43
23.25
23.43
23.92
24.63
25.4
26.11
26.7
27.1
27.29
27.24
26.89
26.09
24.76
22.85
20.47
17.92
15.5
13.43
11.72
10.21
8.67
7.0
5.23
3.55
2.02
0.49
-1.42
-4.12
-7.86
-12.46
-17.29
-21.39
-23.82
-23.83
-21.2
-16.14
-9.3
-1.5
6.5
14.07
20.8
26.41
30.72
33.66
35.27
35.77
35.47
34.73
33.84
33.02
32.37
31.95
31.77
31.8
31.91
31.91
31.57
30.68
29.12
26.87
23.97
20.54
16.71
12.66
8.57
4.58
0.76
-2.86
-6.31
-9.53
-12.5
-15.19
-17.74
-20.42
-23.57
-27.42
-32.06
-37.26
-42.61
-47.49
-51.16
-52.94
-52.23
-48.76
-42.7
-34.72
-25.78
-16.93
-8.95
-2.24
3.18
7.49
10.83
13.3
14.9
15.69
15.85
15.68
15.5
15.53
15.83
16.29
16.75
17.04
17.14
17.06
16.85
16.52
15.94
15.0
13.53
11.54
9.16
6.61
4.08
1.59
-0.99
-3.8
-6.94
-10.34
-13.78
-17.03
-20.01
-22.75
-25.53
-28.62
-32.33
-36.77
-41.9
-47.4
-52.7
-57.03
-59.51
-59.43
-56.46
-50.68
-42.64
-33.15
-23.09
-13.29
-4.36
3.28
9.41
14.0
17.16
19.11
20.14
20.58
20.74
20.9
21.26
21.93
22.88
23.93
24.88
25.54
25.83
25.76
25.34
24.61
23.5
22.0
20.14
18.06
15.97
14.11
12.57
11.3
10.1
8.74
7.04
4.93
2.49
-0.1
-2.66
-5.05
-7.29
-9.57
-12.19
-15.45
-19.51
-24.19
-28.99
-33.12
-35.64
-35.79
-33.15
-27.82
-20.39
-11.75
-2.85
5.54
12.95
19.14
24.07
27.69
30.0
31.14
31.4
31.26
31.24
31.68
32.68
34.04
35.44
36.55
37.17
37.19
36.62
35.52
33.98
32.13
30.1
27.95
25.66
23.14
20.31
17.21
13.91
10.55
7.27
4.17
1.33
-1.21
-3.47
-5.63
-7.98
-10.89
-14.64
-19.26
-24.49
-29.76
-34.29
-37.26
-37.96
-35.99
-31.39
-24.66
-16.65
-8.38
-0.78
5.57
10.37
13.63
15.51
16.27
16.17
15.59
14.88
14.34
14.16
14.33
14.74
15.21
15.51
15.49
15.02
14.05
12.62
10.86
8.91
6.87
4.77
2.58
0.23
-2.22
-4.71
-7.13
-9.43
-11.7
-14.02
-16.48
-19.08
-21.69
-24.24
-26.75
-29.37
-32.36
-36.02
-40.49
-45.68
-51.15
-56.19
-59.86
-61.23
-59.71
-55.22
-48.26
-39.75
-30.73
-22.03
-14.09
-7.09
-0.99
4.18
8.31
11.24
12.94
13.55
13.45
13.02
12.6
12.37
12.4
12.69
13.24
14.07
15.1
16.13
16.89
17.03
16.36
14.89
12.89
10.74
8.84
7.33
6.13
4.95
3.51
1.71
-0.31
-2.25
-3.82
-4.93
-5.73
-6.51
-7.66
-9.41
-11.91
-15.18
-19.07
-23.25
-27.14
-29.95
-30.87
-29.3
-25.18
-19.0
-11.75
-4.48
2.1
7.8
12.9
17.83
22.79
27.58
31.72
34.73
36.43
37.05
37.12
37.16
37.51
38.21
39.09
39.98
40.76
41.41
41.89
42.11
41.87
40.96
39.21
36.63
33.4
29.88
26.49
23.57
21.27
19.44
17.75
15.77
13.17
9.79
5.61
0.77
-4.56
-10.15
-15.7
-20.71
-24.56
-26.6
-26.33
-23.66
-18.87
-12.74
-6.2
-0.12
4.97
8.88
11.76
13.79
15.08
15.62
15.39
14.48
13.2
11.96
11.12
10.8
10.87
11.01
11.0
10.75
10.36
9.98
9.6
9.02
7.94
6.06
3.33
-0.02
-3.57
-6.92
-9.82
-12.24
-14.3
-16.19
-18.05
-20.0
-22.14
-24.56
-27.4
-30.8
-34.9
-39.66
-44.89
-50.09
-54.55
-57.47
-58.19
-56.4
-52.25
-46.28
-39.25
-31.94
-24.91
-18.53
-12.98
-8.35
-4.73
-2.12
-0.48
0.35
0.61
0.59
0.58
0.77
1.26
2.06
3.12
4.34
5.6
6.81
7.78
8.34
8.34
7.72
6.6
5.2
3.8
2.63
1.76
1.1
0.47
-0.28
-1.21
-2.31
-3.49
-4.72
-6.0
-7.41
-9.05
-11.03
-13.43
-16.26
-19.39
-22.55
-25.29
-27.05
-27.27
-25.57
-21.83
-16.31
-9.54
-2.15
5.2
12.03
18.05
23.16
27.29
30.41
32.47
33.48
33.61
33.18
32.62
32.31
32.46
33.08
33.94
34.81
35.47
35.83
35.84
35.49
34.73
33.47
31.71
29.51
26.99
24.29
21.54
18.76
16.0
13.25
10.51
7.78
5.04
2.24
-0.68
-3.84
-7.34
-11.31
-15.76
-20.49
-25.01
-28.61
-30.5
-30.12
-27.37
-22.63
-16.65
-10.23
-4.01
1.6
6.4
10.27
13.05
14.57
14.8
13.88
12.15
10.09
8.19
6.82
6.17
6.22
6.79
7.55
8.2
8.49
8.27
7.47
6.13
4.35
2.33
0.3
-1.48
-2.88
-3.93
-4.86
-5.93
-7.35
-9.2
-11.38
-13.74
-16.22
-18.78
-21.46
-24.32
-27.4
-30.8
-34.63
-38.96
-43.59
-48.02
-51.41
-52.95
-52.04
-48.61
-43.07
-36.13
-28.6
-21.16
-14.26
-8.23
-3.26
0.54
3.13
4.59
5.16
5.12
4.84
4.59
4.56
4.76
5.13
5.53
5.86
6.09
6.24
6.28
6.13
5.71
4.94
3.89
2.66
1.37
0.07
-1.25
-2.63
-4.04
-5.38
-6.61
-7.76
-8.96
-10.35
-11.98
-13.73
-15.4
-16.86
-18.17
-19.58
-21.43
-23.97
-27.28
-31.12
-34.99
-38.18
-39.89
-39.44
-36.49
-31.16
-24.09
-16.14
-8.19
-0.83
5.72
11.45
16.41
20.56
23.84
26.14
27.54
28.24
28.5
28.55
28.57
28.67
28.99
29.58
30.46
31.49
32.45
33.05
33.09
32.47
31.18
29.3
27.0
24.5
22.07
19.98
18.35
17.13
16.11
15.01
13.59
11.8
9.74
7.58
5.51
3.5
1.43
-1.04
-4.24
-8.35
-13.26
-18.42
-22.98
-25.98
-26.65
-24.67
-20.22
-13.87
-6.37
1.54
9.18
15.98
21.52
25.51
27.87
28.78
28.57
27.66
26.44
25.22
24.21
23.52
23.14
22.96
22.85
22.72
22.51
22.18
21.69
20.87
19.54
17.58
15.02
12.05
8.96
6.01
3.28
0.72
-1.79
-4.39
-7.19
-10.19
-13.36
-16.65
-19.92
-23.04
-25.95
-28.69
-31.47
-34.6
-38.37
-42.94
-48.14
-53.53
-58.32
-61.64
-62.66
-60.82
-56.04
-48.78
-39.86
-30.3
-20.98
-12.51
-5.19
0.89
5.65
9.0
10.91
11.56
11.35
10.93
10.87
11.52
12.81
14.35
15.65
16.37
16.45
16.06
15.46
14.81
14.17
13.45
12.55
11.42
10.08
8.58
6.99
5.35
3.68
1.92
-0.0
-2.19
-4.67
-7.38
-10.12
-12.64
-14.72
-16.28
-17.4
-18.32
-19.33
-20.75
-22.77
-25.52
-29.0
-33.08
-37.41
-41.4
-44.29
-45.23
-43.62
-39.24
-32.35
-23.68
-14.12
-4.52
4.5
12.56
19.47
25.11
29.43
32.43
34.24
35.2
35.63
35.86
36.03
36.21
36.43
36.75
37.29
38.1
39.06
39.91
40.31
39.99
38.89
37.1
34.82
32.24
29.54
26.83
24.23
21.85
19.72
17.7
15.6
13.18
10.32
7.15
3.88
0.7
-2.37
-5.5
-8.97
-13.03
-17.79
-23.13
-28.68
-33.81
-37.74
-39.64
-38.84
-35.11
-28.73
-20.54
-11.63
-3.09
4.23
9.91
13.89
16.3
17.41
17.51
16.95
16.09
15.3
14.86
14.96
15.62
16.71
18.01
19.26
20.23
20.73
20.66
19.94
18.55
16.53
14.0
11.16
8.28
5.57
3.14
0.92
-1.28
-3.72
-6.58
-9.93
-13.63
-17.47
-21.19
-24.57
-27.47
-29.94
-32.12
-34.36
-37.08
-40.69
-45.37
-50.87
-56.45
-61.02
-63.43
-62.79
-58.81
-51.88
-42.87
-32.91
-23.03
-14.01
-6.3
-0.1
4.56
7.79
9.79
10.87
11.41
11.73
12.13
12.76
13.66
14.77
15.99
17.11
18.01
18.59
18.86
18.91
18.86
18.71
18.32
17.45
15.89
13.65
10.99
8.36
6.16
4.57
3.46
2.5
1.31
-0.31
-2.34
-4.59
-6.84
-8.99
-11.11
-13.39
-16.08
-19.34
-23.25
-27.69
-32.35
-36.7
-40.11
-41.86
-41.34
-38.2
-32.41
-24.37
-14.79
-4.63
5.16
13.82
20.93
26.36
30.23
32.71
34.02
34.39
34.14
33.66
33.31
33.35
33.84
34.69
35.74
36.83
37.86
38.7
39.16
39.0
37.98
36.08
33.49
30.59
27.77
25.25
23.02
20.88
18.63
16.16
13.52
10.85
8.26
5.76
3.28
0.71
-2.15
-5.43
-9.24
-13.65
-18.54
-23.55
-28.04
-31.2
-32.29
-30.81
-26.74
-20.49
-12.84
-4.64
3.34
10.52
16.61
21.51
25.12
27.4
28.29
27.83
26.29
24.22
22.24
20.91
20.49
20.83
21.53
22.14
22.33
22.02
21.21
19.92
18.12
15.77
12.91
9.78
6.62
3.65
0.84
-1.98
-5.07
-8.58
-12.48
-16.59
-20.6
-24.28
-27.49
-30.19
-32.52
-34.74
-37.23
-40.39
-44.51
-49.51
-54.86
-59.58
-62.47
-62.45
-58.94
-51.99
-42.33
-31.1
-19.54
-8.72
0.69
8.39
14.29
18.46
20.99
22.06
22.01
21.33
20.54
20.11
20.3
21.1
22.29
23.56
24.6
25.14
25.03
24.23
22.79
20.9
18.8
16.65
14.53
12.38
10.13
7.73
5.21
2.65
0.08
-2.55
-5.3
-8.17
-11.02
-13.59
-15.68
-17.25
-18.55
-19.98
-21.99
-24.92
-28.93
-33.9
-39.57
-45.42
-50.74
-54.66
-56.36
-55.25
-51.12
-44.29
-35.47
-25.61
-15.56
-6.03
2.55
9.94
16.01
20.6
23.58
24.94
24.86
23.81
22.42
21.29
20.81
20.95
21.44
21.94
22.29
22.54
22.89
23.41
23.96
24.23
23.93
22.94
21.36
19.47
17.55
15.76
14.16
12.75
11.45
10.12
8.61
6.78
4.59
2.14
-0.35
-2.61
-4.55
-6.25
-8.0
-10.15
-13.05
-16.82
-21.35
-26.14
-30.41
-33.18
-33.55
-31.05
-25.77
-18.34
-9.75
-0.99
7.21
14.42
20.45
25.24
28.74
30.93
31.92
31.98
31.51
30.96
30.71
30.91
31.53
32.4
33.3
34.0
34.38
34.35
33.84
32.75
30.94
28.37
25.11
21.42
17.72
14.39
11.63
9.37
7.33
5.14
2.59
-0.39
-3.66
-6.99
-10.22
-13.26
-16.2
-19.23
-22.66
-26.77
-31.77
-37.54
-43.62
-49.15
-53.08
-54.42
-52.62
-47.63
-40.05
-30.83
-21.08
-11.79
-3.65
3.02
8.13
11.77
14.13
15.45
16.02
16.17
16.2
16.33
16.61
16.94
17.17
17.2
17.05
16.88
16.83
16.98
17.17
17.12
16.49
15.13
13.04
10.46
7.71
5.05
2.59
0.3
-1.97
-4.45
-7.26
-10.45
-13.9
-17.42
-20.8
-23.93
-26.86
-29.77
-32.92
-36.57
-40.89
-45.88
-51.37
-56.93
-61.84
-65.2
-66.04
-63.74
-58.21
-50.04
-40.25
-30.05
-20.38
-11.83
-4.6
1.28
5.84
9.16
11.3
12.52
13.14
13.54
14.04
14.82
15.9
17.25
18.76
20.33
21.84
23.17
24.22
24.87
25.04
24.7
23.82
22.51
20.92
19.3
17.87
16.74
15.84
14.95
13.8
12.2
10.05
7.37
4.33
1.1
-2.15
-5.23
-8.08
-10.77
-13.57
-16.82
-20.78
-25.37
-30.05
-33.9
-35.89
-35.19
-31.55
-25.23
-16.95
-7.62
1.92
11.01
19.12
25.86
30.92
34.13
35.51
35.33
34.1
32.51
31.25
30.78
31.27
32.49
34.03
35.42
36.34
36.68
36.53
36.02
35.27
34.37
33.3
32.06
30.61
28.88
26.83
24.44
21.74
18.8
15.73
12.57
9.34
6.04
2.62
-1.02
-5.05
-9.7
-15.11
-21.23
-27.63
-33.53
-37.94
-39.91
-38.9
-34.88
-28.37
-20.27
-11.63
-3.37
3.87
9.72
14.08
16.98
18.53
18.92
18.4
17.36
16.24
15.37
14.88
14.71
14.65
14.56
14.36
14.11
13.82
13.4
12.7
11.59
10.04
8.18
6.22
4.28
2.41
0.53
-1.47
-3.7
-6.21
-9.04
-12.12
-15.27
-18.2
-20.68
-22.68
-24.42
-26.41
-29.18
-33.04
-37.95
-43.48
-48.91
-53.4
-56.12
-56.41
-53.9
-48.71
-41.45
-33.09
-24.7
-17.14
-10.91
-6.11
-2.6
-0.12
1.62
2.89
4.0
5.16
6.45
7.81
9.06
10.07
10.77
11.27
11.69
12.17
12.76
13.47
14.22
14.87
15.19
14.93
13.91
12.13
9.82
7.38
5.25
3.74
2.96
2.75
2.82
2.8
2.4
1.48
0.07
-1.68
-3.61
-5.61
-7.84
-10.55
-13.96
-18.02
-22.27
-25.9
-28.03
-27.98
-25.53
-20.9
-14.67
-7.56
-0.27
6.62
12.68
17.75
21.81
25.04
27.6
29.62
31.1
32.05
32.53
32.79
33.11
33.77
34.81
36.05
37.21
37.98
38.18
37.79
36.86
35.44
33.54
31.19
28.42
25.31
21.98
18.58
15.24
12.06
9.12
6.4
3.81
1.24
-1.47
-4.44
-7.79
-11.61
-15.88
-20.48
-25.04
-28.97
-31.6
-32.38
-31.15
-28.1
-23.78
-18.77
-13.59
-8.51
-3.71
0.66
4.41
7.29
9.14
9.94
9.9
9.34
8.62
8.01
7.67
7.53
7.48
7.37
7.12
6.72
6.22
5.63
4.84
3.67
1.97
-0.31
-3.01
-5.87
-8.62
-11.14
-13.49
-15.84
-18.32
-20.98
-23.72
-26.4
-28.98
-31.52
-34.18
-37.14
-40.54
-44.46
-48.79
-53.24
-57.29
-60.27
-61.48
-60.4
-56.88
-51.23
-44.05
-36.08
-27.96
-20.15
-12.96
-6.69
-1.6
2.11
4.45
5.7
6.31
6.79
7.48
8.46
9.68
10.95
12.18
13.35
14.48
15.55
16.46
17.09
17.32
17.1
16.51
15.68
14.77
13.86
12.94
11.91
10.63
9.01
7.08
4.98
2.84
0.75
-1.26
-3.21
-5.15
-7.12
-9.26
-11.73
-14.78
-18.45
-22.49
-26.25
-28.79
-29.29
-27.26
-22.82
-16.59
-9.45
-2.23
4.57
10.72
16.18
21.0
25.04
28.14
30.19
31.26
31.67
31.96
32.59
33.82
35.56
37.43
38.97
39.85
40.0
39.52
38.67
37.59
36.36
34.9
33.12
30.97
28.46
25.65
22.63
19.5
16.36
13.28
10.27
7.3
4.22
0.85
-3.03
-7.55
-12.75
-18.45
-24.26
-29.61
-33.81
-36.29
-36.68
-34.89
-31.11
-25.75
-19.33
-12.41
-5.56
0.68
5.9
9.82
12.39
13.72
14.08
13.74
13.03
12.19
11.44
10.94
10.73
10.73
10.81
10.85
10.76
10.5
10.03
9.29
8.29
7.03
5.65
4.31
3.06
1.89
0.62
-0.96
-2.98
-5.44
-8.2
-11.06
-13.84
-16.46
-18.88
-21.13
-23.35
-25.74
-28.58
-32.16
-36.54
-41.51
-46.45
-50.51
-52.7
-52.27
-48.94
-43.0
-35.26
-26.81
-18.68
-11.53
-5.57
-0.67
3.36
6.64
9.07
10.52
11.03
10.87
10.57
10.59
11.11
12.01
12.93
13.57
13.85
14.0
14.28
14.9
15.77
16.6
16.99
16.63
15.42
13.54
11.32
9.18
7.47
6.3
5.54
4.95
4.23
3.25
2.05
0.82
-0.3
-1.31
-2.3
-3.47
-4.97
-6.91
-9.33
-12.18
-15.34
-18.54
-21.31
-23.11
-23.42
-21.88
-18.43
-13.28
-6.91
0.13
7.23
13.85
19.61
24.28
27.77
30.06
31.24
31.43
30.83
29.81
28.82
28.26
28.32
28.92
29.81
30.65
31.22
31.49
31.48
31.26
30.82
30.08
28.98
27.51
