0
2.93
2.02
0.82
-0.43
-1.52
-2.31
-2.61
-2.3
-1.24
0.56
2.98
5.74
8.54
11.1
13.29
15.06
16.36
17.05
16.94
15.89
13.95
11.46
8.93
6.82
5.31
4.21
3.08
1.43
-1.01
-4.22
-7.85
-11.44
-14.6
-17.09
-18.91
-20.21
-21.28
-22.45
-24.1
-26.48
-29.64
-33.31
-36.84
-39.32
-39.83
-37.76
-32.97
-25.95
-17.55
-8.78
-0.52
6.66
12.46
16.84
19.89
21.81
22.81
23.12
22.97
22.58
22.12
21.75
21.6
21.74
22.17
22.8
23.57
24.44
25.41
26.54
27.83
29.13
30.16
30.6
30.24
29.11
27.41
25.47
23.57
21.88
20.42
19.14
17.94
16.69
15.33
13.77
11.94
9.84
7.53
5.09
2.63
0.23
-2.07
-4.29
-6.51
-8.87
-11.49
-14.37
-17.28
-19.73
-21.05
-20.67
-18.3
-14.12
-8.68
-2.69
3.18
8.47
12.92
16.41
18.81
20.02
20.03
19.02
17.3
15.26
13.25
11.44
9.88
8.5
7.23
6.02
4.93
4.01
3.34
2.94
2.78
2.79
2.83
2.77
2.55
2.17
1.65
1.01
0.22
-0.71
-1.71
-2.61
-3.24
-3.57
-3.78
-4.21
-5.23
-7.0
-9.37
-11.94
-14.34
-16.38
-18.24
-20.33
-23.1
-26.71
-31.01
-35.46
-39.38
-42.09
-43.05
-41.93
-38.73
-33.71
-27.39
-20.45
-13.61
-7.43
-2.3
1.64
4.42
6.15
6.93
6.91
6.23
5.18
4.1
3.33
3.17
3.77
5.14
7.16
9.61
12.14
14.4
16.07
16.9
16.86
16.01
14.55
12.69
10.58
8.36
6.19
4.27
2.79
1.9
1.55
1.54
1.49
1.02
-0.11
-1.99
-4.51
-7.5
-10.78
-14.23
-17.85
-21.66
-25.73
-30.05
-34.58
-39.08
-43.2
-46.45
-48.32
-48.43
-46.59
-42.92
-37.71
-31.44
-24.55
-17.41
-10.32
-3.48
2.9
8.65
13.56
17.5
20.44
22.45
23.73
24.56
25.2
25.92
26.87
28.12
29.65
31.38
33.19
34.91
36.32
37.22
37.37
36.63
34.96
32.44
29.26
25.7
22.04
18.59
15.52
12.91
10.66
8.58
6.33
3.73
0.68
-2.72
-6.27
-9.77
-13.16
-16.46
-19.71
-22.95
-26.14
-29.25
-32.31
-35.36
-38.38
-41.18
-43.29
-44.11
-43.08
-39.88
-34.65
-27.84
-20.14
-12.25
-4.72
2.03
7.78
12.4
15.79
17.94
18.92
18.88
18.09
16.87
15.59
14.47
13.62
12.97
12.36
11.66
10.86
10.1
9.62
9.58
10.01
10.74
11.49
12.03
12.22
12.06
11.63
10.98
10.1
8.98
7.62
6.14
4.72
3.55
2.74
2.27
1.97
1.62
1.05
0.14
-1.11
-2.66
-4.43
-6.41
-8.6
-11.06
-13.82
-16.8
-19.75
-22.25
-23.8
-24.01
-22.65
-19.77
-15.61
-10.55
-5.03
0.53
5.79
10.42
14.16
16.82
18.31
18.64
17.94
16.39
14.27
11.91
9.67
7.88
6.8
6.55
7.06
8.1
9.36
10.52
11.36
11.76
11.73
11.34
10.66
9.72
8.57
7.32
6.13
5.19
4.57
4.21
3.88
3.37
2.55
1.46
0.27
-0.86
-1.84
-2.79
-3.93
-5.48
-7.57
-10.15
-13.08
-16.16
-19.3
-22.43
-25.54
-28.47
-30.85
-32.15
-31.89
-29.79
-25.95
-20.85
-15.14
-9.42
-4.13
0.53
4.51
7.76
10.23
11.85
12.56
12.46
11.72
10.63
9.53
8.69
8.25
8.23
8.48
8.8
9.09
9.34
9.69
10.28
11.21
12.39
13.61
14.61
15.1
14.95
14.12
12.77
11.14
9.47
7.94
6.57
5.21
3.61
1.61
-0.87
-3.67
-6.53
-9.19
-11.52
-13.53
-15.41
-17.35
-19.52
-22.01
-24.8
-27.72
-30.47
-32.58
-33.5
-32.81
-30.36
-26.32
-21.22
-15.74
-10.51
-5.92
-2.07
1.08
3.64
5.68
7.17
8.08
8.44
8.32
7.89
7.26
6.54
5.83
5.23
4.87
4.88
5.32
6.15
7.17
8.13
8.76
8.96
8.71
8.16
7.38
6.48
5.43
4.16
2.62
0.84
-1.01
-2.74
-4.09
-4.96
-5.38
-5.51
-5.56
-5.75
-6.25
-7.21
-8.8
-11.13
-14.21
-17.88
-21.76
-25.25
-27.73
-28.66
-27.77
-25.08
-20.92
-15.79
-10.27
-4.85
0.14
4.57
8.42
11.72
14.43
16.41
17.57
17.9
17.61
16.97
16.29
15.76
15.37
15.09
14.92
14.98
15.43
16.32
17.47
18.52
19.06
18.83
17.78
16.09
14.01
11.77
9.52
7.36
5.35
3.54
1.89
0.33
-1.3
-3.14
-5.29
-7.74
-10.35
-12.95
-15.35
-17.43
-19.18
-20.68
-22.12
-23.74
-25.73
-28.19
-31.0
-33.78
-36.0
-37.0
-36.27
-33.57
-29.1
-23.44
-17.39
-11.74
-6.96
-3.2
-0.34
1.8
3.37
4.38
4.77
4.55
3.84
2.91
2.05
1.49
1.38
1.67
2.31
3.18
4.25
5.51
6.96
8.54
10.11
11.5
12.49
12.99
12.96
12.45
11.53
10.27
8.77
7.1
5.34
3.54
1.67
-0.31
-2.41
-4.59
-6.69
-8.52
-9.99
-11.17
-12.27
-13.57
-15.31
-17.61
-20.48
-23.82
-27.44
-31.05
-34.14
-36.09
-36.3
-34.37
-30.31
-24.51
-17.66
-10.53
-3.82
2.03
6.89
10.85
14.11
16.85
19.11
20.78
21.68
21.64
20.78
19.44
18.16
17.44
17.5
18.31
19.61
21.15
22.74
24.35
25.97
27.49
28.75
29.48
29.51
28.75
27.26
25.13
22.5
19.51
16.3
13.01
9.74
6.5
3.21
-0.18
-3.67
-7.12
-10.34
-13.21
-15.78
-18.3
-21.13
-24.51
-28.48
-32.83
-37.18
-41.03
-43.88
-45.3
-44.95
-42.68
-38.57
-32.93
-26.26
-19.15
-12.11
-5.54
0.34
5.4
9.64
13.0
15.51
17.13
17.91
17.96
17.56
17.1
17.0
17.57
18.85
20.6
22.42
23.92
24.94
25.49
25.75
25.79
25.56
24.9
23.67
21.89
19.78
17.65
15.73
14.03
12.39
10.54
8.26
5.5
2.38
-0.87
-3.98
-6.76
-9.08
-11.0
-12.7
-14.49
-16.65
-19.39
-22.62
-25.94
-28.76
-30.42
-30.37
-28.32
-24.31
-18.62
-11.76
-4.35
2.98
9.65
15.27
19.64
22.71
24.54
25.24
24.94
23.85
22.24
20.44
18.8
17.55
16.8
16.57
16.81
17.48
18.53
19.82
21.13
22.18
22.73
22.65
21.98
20.85
19.39
17.66
15.7
13.55
11.33
9.21
7.32
5.73
4.39
3.2
2.06
0.94
-0.16
-1.28
-2.52
-4.08
-6.05
-8.4
-10.83
-12.85
-13.84
-13.24
-10.72
-6.22
-0.04
7.28
15.02
22.46
29.01
34.33
38.3
41.0
42.56
42.97
42.13
39.92
36.29
31.42
25.73
19.67
13.67
8.0
2.75
-2.0
-6.12
-9.45
-11.87
-13.41
-14.34
-14.97
-15.58
-16.32
-17.13
-17.88
-18.49
-18.93
-19.23
-19.47
-19.74
-20.13
-20.71
-21.54
-22.64
-24.01
-25.53
-27.09
-28.52
-29.75
-30.82
-31.9
-33.27
-35.16
-37.61
-40.32
-42.76
-44.21
-44.07
-42.05
-38.2
-32.85
-26.39
-19.19
-11.65
-4.17
2.79
8.81
13.57
17.0
19.16
20.27
20.51
20.04
19.03
17.67
16.24
15.02
14.17
13.75
13.73
13.96
14.37
14.9
15.51
16.09
16.48
16.46
15.89
14.77
13.2
11.37
9.49
7.7
5.98
4.26
2.48
0.64
-1.13
-2.67
-3.9
-4.88
-5.84
-7.06
-8.79
-11.11
-13.95
-17.14
-20.45
-23.68
-26.57
-28.86
-30.2
-30.25
-28.77
-25.72
-21.29
-15.88
-10.01
-4.12
1.38
6.27
10.33
13.42
15.4
16.25
16.14
15.37
14.36
13.46
12.95
12.91
13.32
14.07
15.01
15.98
16.78
17.3
17.48
17.4
17.18
16.96
16.76
16.51
16.04
15.16
13.82
12.05
9.98
7.8
5.69
3.78
2.12
0.7
-0.57
-1.79
-3.05
-4.4
-5.85
-7.37
-8.9
-10.43
-12.05
-13.88
-16.07
-18.69
-21.64
-24.56
-26.89
-27.99
-27.27
-24.56
-20.1
-14.54
-8.67
-3.19
1.49
5.32
8.44
11.01
13.06
14.54
15.37
15.55
15.28
14.79
14.33
13.97
13.68
13.4
13.07
12.73
12.46
12.39
12.51
12.73
12.87
12.73
12.15
11.05
9.47
7.49
5.26
2.98
0.85
-0.87
-1.97
-2.29
-1.83
-0.75
0.62
1.92
2.78
3.02
2.62
1.69
0.37
-1.25
-3.16
-5.41
-8.0
-10.86
-13.79
-16.44
-18.45
-19.44
-19.11
-17.36
-14.27
-10.13
-5.34
-0.4
4.24
8.2
11.22
13.16
13.98
13.74
12.6
10.83
8.78
6.77
5.07
3.83
3.01
2.47
2.07
1.74
1.52
1.49
1.77
2.31
2.98
3.55
3.82
3.66
3.12
2.26
1.23
0.13
-1.04
-2.31
-3.75
-5.38
-7.16
-8.96
-10.65
-12.15
-13.46
-14.7
-16.01
-17.56
-19.44
-21.67
-24.19
-26.82
-29.28
-31.17
-32.06
-31.59
-29.58
-26.13
-21.56
-16.34
-10.97
-5.83
-1.2
2.74
5.92
8.27
9.84
10.68
10.87
10.53
9.76
8.71
7.53
6.41
5.53
5.02
4.95
5.29
5.91
6.66
7.39
7.99
8.41
8.57
8.41
7.91
7.08
6.06
5.08
4.37
4.03
4.01
4.1
4.03
3.66
2.92
1.88
0.62
-0.85
-2.58
-4.62
-6.99
-9.67
-12.63
-15.84
-19.23
-22.56
-25.44
-27.4
-28.01
-27.07
-24.67
-21.09
-16.76
-12.09
-7.46
-3.14
0.7
4.03
6.97
9.66
12.28
14.79
17.05
18.81
19.9
20.31
20.2
19.76
19.18
18.54
17.85
17.16
16.49
15.9
15.36
14.8
14.14
13.28
12.2
10.91
9.42
7.78
6.03
4.33
2.77
1.47
0.33
-0.81
-2.2
-3.93
-5.99
-8.16
-10.23
-12.08
-13.74
-15.32
-16.97
-18.81
-20.88
-23.22
-25.77
-28.41
-30.83
-32.56
-33.09
-32.1
-29.55
-25.73
-21.1
-16.2
-11.4
-6.89
-2.78
0.88
3.98
6.44
8.23
9.37
10.01
10.35
10.55
10.75
11.1
11.64
12.44
13.5
14.72
15.93
16.93
17.5
17.54
17.07
16.19
15.03
13.72
12.31
10.85
9.37
7.89
6.43
5.0
3.6
2.19
0.72
-0.88
-2.62
-4.51
-6.44
-8.25
-9.78
-10.98
-11.97
-12.99
-14.39
-16.3
-18.73
-21.39
-23.83
-25.52
-26.04
-25.09
-22.61
-18.78
-13.95
-8.65
-3.42
1.29
5.22
8.26
10.52
12.11
13.14
13.7
13.85
13.7
13.35
12.92
12.48
12.06
11.69
11.42
11.34
11.53
12.0
12.73
13.58
14.38
14.99
15.24
15.02
14.27
13.01
11.34
9.47
7.57
5.79
4.16
2.63
1.17
-0.26
-1.67
-3.08
-4.5
-5.97
-7.56
-9.32
-11.28
-13.53
-16.11
-18.98
-22.02
-24.86
-27.07
-28.22
-27.99
-26.33
-23.4
-19.48
-14.92
-10.09
-5.3
-0.87
2.93
5.9
7.97
9.19
9.68
9.59
8.98
7.95
6.62
5.21
4.06
3.5
3.7
4.62
5.97
7.36
8.46
9.11
9.32
9.19
8.81
8.17
7.21
5.87
4.22
2.45
0.77
-0.64
-1.77
-2.76
-3.81
-5.09
-6.64
-8.34
-10.06
-11.72
-13.37
-15.14
-17.23
-19.7
-22.41
-24.96
-26.81
-27.45
-26.48
-23.79
-19.54
-14.18
-8.27
-2.43
2.84
7.19
10.52
12.89
14.49
15.47
15.92
15.83
15.19
14.08
12.74
11.49
10.62
10.27
10.38
10.77
11.23
11.64
11.98
12.26
12.52
12.67
12.62
12.22
11.41
10.21
8.71
7.04
5.28
3.46
1.56
-0.52
-2.79
-5.17
-7.49
-9.55
-11.22
-12.55
-13.77
-15.2
-17.13
-19.66
-22.61
-25.62
-28.1
-29.49
-29.35
-27.44
-23.84
-18.86
-13.04
-6.99
-1.26
3.77
7.91
11.15
13.59
15.26
16.2
16.47
16.15
15.43
14.53
13.67
12.98
12.55
12.4
12.53
12.96
13.63
14.43
15.18
15.68
15.77
15.39
14.56
13.4
12.01
10.56
9.15
7.87
6.7
5.56
4.24
2.56
0.48
-1.9
-4.36
-6.66
-8.73
-10.62
-12.57
-14.78
-17.46
-20.57
-23.89
-27.04
-29.49
-30.7
-30.23
-27.88
-23.81
-18.45
-12.42
-6.26
-0.39
4.96
9.64
13.47
16.27
17.96
18.57
18.33
17.58
16.68
15.86
15.28
15.0
15.05
15.47
16.17
16.99
17.72
18.13
18.15
17.77
17.12
16.3
15.38
14.41
13.4
12.43
11.53
10.64
9.59
8.16
6.19
3.73
1.03
-1.56
-3.81
-5.66
-7.28
-8.92
-10.8
-13.02
-15.56
-18.39
-21.35
-24.2
-26.47
-27.55
-26.88
-24.2
-19.76
-14.25
-8.51
-3.23
1.28
5.08
8.34
11.16
13.41
14.86
15.36
15.01
14.1
13.01
12.08
11.5
11.34
11.61
12.28
13.24
14.32
15.33
16.08
16.5
16.57
16.27
15.58
14.48
13.0
11.22
9.33
7.48
5.72
4.03
2.41
0.86
-0.56
-1.85
-3.15
-4.69
-6.63
-9.03
-11.73
-14.49
-17.08
-19.36
-21.25
-22.53
-22.85
-21.81
-19.15
-14.95
-9.65
-3.92
1.58
6.41
10.44
13.68
16.2
18.03
19.15
19.49
19.11
18.15
16.78
15.3
13.95
12.95
12.45
12.51
13.06
13.94
14.91
15.73
16.21
16.27
15.89
15.09
13.96
12.6
11.09
9.55
7.98
6.38
4.69
2.82
0.77
-1.37
-3.47
-5.37
-7.01
-8.42
-9.77
-11.31
-13.24
-15.63
-18.44
-21.39
-24.11
-26.13
-26.97
-26.28
-23.93
-20.07
-15.06
-9.45
-3.78
1.52
6.14
9.92
12.77
14.65
15.61
15.75
15.27
14.4
13.42
12.53
11.9
11.6
11.62
11.87
12.24
12.63
13.0
13.34
13.67
13.92
14.01
13.77
13.11
12.0
10.55
8.87
7.03
5.04
2.88
0.59
-1.67
-3.7
-5.34
-6.61
-7.68
-8.82
-10.23
-12.02
-14.11
-16.4
-18.76
-21.15
-23.46
-25.52
-26.96
-27.32
-26.22
-23.49
-19.32
-14.19
-8.76
-3.61
0.9
4.64
7.66
10.06
11.88
13.05
13.52
13.35
12.7
11.91
11.29
11.01
11.11
11.43
11.82
12.22
12.68
13.29
14.04
14.83
15.39
15.5
15.06
14.17
13.01
11.77
10.48
9.05
7.35
5.39
3.25
1.17
-0.64
-2.09
-3.21
-4.14
-5.12
-6.3
-7.79
-9.57
-11.58
-13.72
-15.94
-18.27
-20.77
-23.42
-26.08
-28.38
-29.81
-29.89
-28.34
-25.2
-20.83
-15.74
-10.47
-5.44
-0.98
2.75
5.6
7.53
8.56
8.86
8.65
8.19
7.7
7.3
7.01
6.8
6.63
6.46
6.34
6.36
6.61
7.12
7.79
8.39
8.69
8.48
7.75
6.65
5.42
4.2
2.96
1.54
-0.19
-2.26
-4.48
-6.58
-8.32
-9.68
-10.83
-12.08
-13.72
-15.91
-18.58
-21.55
-24.53
-27.26
-29.5
-31.0
-31.52
-30.87
-29.01
-26.06
-22.34
-18.24
-14.12
-10.15
-6.29
-2.39
1.67
5.82
9.83
13.36
16.05
17.72
18.39
18.23
17.6
16.83
16.2
15.84
15.67
15.49
15.05
14.14
12.69
10.76
8.57
6.36
4.42
2.99
2.23
2.22
2.84
3.83
4.82
5.38
5.21
4.25
2.67
0.8
-1.0
-2.51
-3.68
-4.69
-5.81
-7.33
-9.42
-12.06
-15.04
-17.95
-20.3
-21.6
-21.48
-19.84
-16.81
-12.77
-8.27
-3.81
0.19
3.48
6.01
7.82
9.03
9.7
9.86
9.56
8.88
7.99
7.1
6.42
6.08
6.08
6.35
6.79
7.33
7.99
8.7
9.38
9.82
9.87
9.51
8.86
8.12
7.45
6.79
5.96
4.78
3.24
1.48
-0.25
-1.81
-3.22
-4.61
-6.1
-7.68
-9.23
-10.62
-11.88
-13.25
-15.04
-17.47
-20.52
-23.86
-26.99
-29.35
-30.47
-30.06
-28.03
-24.52
-19.86
-14.52
-8.98
-3.63
1.27
5.58
9.18
11.92
13.7
14.54
14.65
14.33
13.97
13.75
13.67
13.63
13.52
13.41
13.49
13.98
14.9
16.06
17.13
17.8
17.94
17.56
16.79
15.71
14.42
12.93
11.33
9.71
8.12
6.57
4.93
3.1
0.98
-1.36
-3.73
-5.9
-7.69
-9.12
-10.33
-11.67
-13.44
-15.84
-18.82
-22.06
-25.02
-27.11
-27.81
-26.92
-24.57
-21.11
-16.97
-12.52
-7.91
-3.28
1.19
5.25
8.56
10.88
12.15
12.52
12.23
11.49
10.48
9.28
8.04
6.96
6.28
6.16
6.55
7.24
7.93
8.38
8.49
8.29
7.84
7.21
6.37
5.35
4.21
2.99
1.8
0.65
-0.46
-1.62
-2.89
-4.3
-5.89
-7.65
-9.58
-11.66
-13.86
-16.17
-18.63
-21.27
-24.1
-26.96
-29.54
-31.39
-31.98
-30.91
-28.03
-23.53
-17.88
-11.73
-5.73
-0.43
3.9
7.14
9.39
10.79
11.52
11.68
11.37
10.66
9.7
8.64
7.64
6.88
6.55
6.74
7.48
8.69
10.13
11.53
12.58
13.1
13.02
12.4
11.37
10.1
8.7
7.21
5.62
3.89
2.05
0.15
-1.74
-3.56
-5.31
-7.06
-8.93
-11.07
-13.54
-16.32
-19.37
-22.52
-25.54
-28.06
-29.65
-29.87
-28.41
-25.3
-20.84
-15.56
-10.0
-4.54
0.64
5.43
9.72
13.33
16.06
17.82
18.68
18.82
18.44
17.72
16.81
15.89
15.22
15.06
15.59
16.73
18.21
19.7
20.88
21.55
21.62
21.11
20.04
18.53
16.71
14.81
12.93
11.09
9.19
7.08
4.7
2.09
-0.61
-3.25
-5.73
-8.01
-10.08
-11.96
-13.72
-15.54
-17.7
-20.42
-23.69
-27.17
-30.21
-32.05
-32.06
-29.98
-25.99
-20.58
-14.42
-8.11
-2.15
3.14
7.54
10.9
13.13
14.28
14.5
14.07
13.29
12.45
11.72
11.2
10.89
10.85
11.11
11.71
12.57
13.56
14.46
15.11
15.45
15.56
15.56
15.53
15.43
15.13
14.47
13.27
11.53
9.35
6.96
4.6
2.44
0.6
-1.02
-2.54
-4.15
-5.98
-8.1
-10.59
-13.55
-17.05
-21.02
-25.13
-28.77
-31.2
-31.73
-30.06
-26.29
-20.92
-14.66
-8.21
-2.14
3.19
7.59
11.03
13.59
15.42
16.63
17.33
17.56
17.35
16.77
15.93
14.96
14.02
13.32
13.03
13.3
14.14
15.34
16.48
17.09
16.81
15.62
13.8
11.81
9.99
8.48
7.12
5.67
3.97
2.03
0.02
-1.81
-3.35
-4.65
-5.92
-7.48
-9.55
-12.22
-15.43
-18.91
-22.33
-25.29
-27.41
-28.38
-27.98
-26.18
-23.09
-18.98
-14.23
-9.23
-4.34
0.16
4.06
7.21
9.5
10.87
11.35
11.08
10.27
9.14
7.9
6.78
5.92
5.51
5.63
6.35
7.6
9.23
10.95
12.44
13.43
13.76
13.44
12.61
11.44
10.05
8.48
6.7
4.72
2.65
0.62
-1.23
-2.91
-4.58
-6.42
-8.54
-10.88
-13.24
-15.5
-17.66
-19.84
-22.14
-24.44
-26.22
-26.85
-25.76
-22.73
-18.0
-12.19
-5.92
0.24
5.96
11.03
15.27
18.52
20.66
21.65
21.6
20.75
19.39
17.84
16.38
15.21
14.43
14.02
13.9
13.93
14.0
14.04
14.0
13.86
13.56
13.02
12.19
11.13
9.89
8.6
7.31
6.04
4.75
3.35
1.79
0.05
-1.86
-3.85
-5.82
-7.63
-9.25
-10.77
-12.42
-14.46
-17.09
-20.3
-23.84
-27.23
-29.86
-31.15
-30.66
-28.23
-24.01
-18.47
-12.27
-6.13
-0.63
3.89
7.4
10.04
12.05
13.61
14.78
15.59
16.07
16.28
16.29
16.14
15.82
15.36
14.84
14.46
14.43
14.9
15.76
16.76
17.51
17.7
17.25
16.24
14.87
13.32
11.67
9.92
8.07
6.14
4.21
2.33
0.43
-1.52
-3.49
-5.27
-6.52
-6.91
-6.35
-5.19
-4.12
-3.9
-5.04
-7.59
-11.1
-14.8
-17.92
-19.88
-20.4
-19.45
-17.14
-13.71
-9.47
-4.8
-0.12
4.13
7.57
9.93
11.1
11.19
10.44
9.22
7.89
6.73
5.87
5.37
5.19
5.33
5.82
6.64
7.72
8.94
10.14
11.14
11.79
11.96
11.57
10.58
9.07
7.17
5.11
3.05
1.12
-0.69
-2.42
-4.12
-5.78
-7.38
-8.89
-10.38
-12.02
-14.0
-16.49
-19.48
-22.79
-26.01
-28.7
-30.4
-30.77
-29.65
-27.08
-23.27
-18.53
-13.28
-7.89
-2.74
1.87
5.71
8.65
10.64
11.67
11.87
11.4
10.48
9.34
8.18
7.12
6.26
5.67
5.42
5.5
5.88
6.43
7.02
7.56
7.99
8.34
8.65
8.87
8.94
8.75
8.19
7.25
5.95
4.34
2.48
0.41
-1.82
-4.12
-6.38
-8.57
-10.77
-13.15
-15.91
-19.07
-22.49
-25.71
-28.12
-29.12
-28.33
-25.66
-21.34
-15.81
-9.69
-3.57
2.07
6.85
10.61
13.33
15.13
16.17
16.59
16.51
16.05
15.33
14.51
13.76
13.24
13.04
13.17
13.6
14.26
15.03
15.81
16.48
16.91
17.03
16.75
16.02
14.81
13.16
11.17
9.04
6.96
5.08
3.41
1.79
0.06
-1.83
-3.83
-5.72
-7.35
-8.72
-10.08
-11.77
-14.11
-17.16
-20.68
-24.19
-27.13
-28.98
-29.42
-28.31
-25.72
-21.86
-17.06
-11.76
-6.41
-1.4
2.97
6.56
9.34
11.39
12.78
13.64
14.03
14.02
13.68
13.12
12.49
11.95
11.68
11.73
12.11
12.71
13.42
14.1
14.69
15.14
15.41
15.41
15.02
14.18
12.94
11.49
10.05
8.82
7.78
6.81
5.69
4.29
2.65
0.89
-0.9
-2.74
-4.76
-7.13
-9.85
-12.82
-15.82
-18.65
-21.19
-23.4
-25.14
-26.21
-26.29
-25.06
-22.41
-18.46
-13.6
-8.33
-3.15
1.57
5.55
8.64
10.7
11.71
11.69
10.83
9.45
7.91
6.56
5.65
5.25
5.31
5.69
6.26
6.95
7.71
8.52
9.3
9.97
10.38
10.41
10.0
9.11
7.83
6.32
4.77
3.32
1.96
0.61
-0.87
-2.55
-4.41
-6.28
-8.02
-9.56
-11.01
-12.59
-14.57
-17.06
-19.98
-22.98
-25.58
-27.3
-27.74
-26.69
-24.16
-20.33
-15.55
-10.26
-4.93
0.01
4.17
7.3
9.33
10.29
10.37
9.82
8.9
7.83
6.79
5.9
5.3
5.07
5.23
5.75
6.47
7.19
7.76
8.11
8.26
8.29
8.23
8.08
7.72
7.05
5.97
4.44
2.52
0.28
-2.14
-4.57
-6.87
-8.89
-10.61
-12.07
-13.47
-15.04
-17.01
-19.45
-22.24
-24.99
-27.17
-28.2
-27.63
-25.32
-21.45
-16.47
-10.94
-5.39
-0.23
4.34
8.21
11.31
13.6
15.09
15.83
15.97
15.69
15.17
14.52
13.84
13.26
12.89
12.9
13.34
14.13
15.06
15.84
16.3
16.38
16.12
15.59
14.79
13.62
12.01
9.95
7.6
5.18
2.91
0.91
-0.83
-2.43
-4.01
-5.71
-7.65
-9.89
-12.49
-15.46
-18.7
-22.0
-25.05
-27.47
-28.88
-28.98
-27.61
-24.77
-20.67
-15.69
-10.26
-4.85
0.21
4.67
8.43
11.41
13.55
14.81
15.21
14.85
13.94
12.77
11.63
10.73
10.15
9.93
10.01
10.39
11.02
11.88
12.84
13.72
14.26
14.27
13.63
12.39
10.75
9.0
7.41
6.11
5.07
4.14
3.08
1.78
0.21
-1.48
-3.13
-4.63
-5.98
-7.28
-8.71
-10.44
-12.56
-15.05
-17.79
-20.48
-22.73
-24.08
-24.13
-22.67
-19.79
-15.79
-11.13
-6.26
-1.52
2.87
6.8
10.13
12.7
14.35
14.98
14.69
13.72
12.46
11.29
10.5
10.23
10.4
10.87
11.4
11.88
12.23
12.45
12.58
12.59
12.39
11.87
10.94
9.66
8.23
6.88
5.74
4.75
3.68
2.32
0.54
-1.55
-3.74
-5.78
-7.56
-9.08
-10.49
-11.94
-13.57
-15.47
-17.67
-20.02
-22.27
-24.01
-24.77
-24.2
-22.21
-18.95
-14.79
-10.17
-5.47
-1.01
2.98
6.33
8.89
10.64
11.62
11.95
11.76
11.16
10.26
9.18
8.11
7.25
6.7
6.48
6.5
6.68
6.97
7.4
7.97
8.52
8.8
8.5
7.51
5.92
4.08
2.35
0.93
-0.17
-1.09
-2.01
-3.03
-4.17
-5.44
-6.84
-8.43
-10.24
-12.29
-14.55
-16.97
-19.43
-21.63
-23.22
-23.73
-22.83
-20.46
-16.9
-12.59
-8.06
-3.65
0.44
4.19
7.53
10.4
12.62
14.08
14.74
14.66
13.98
12.88
11.56
10.24
9.12
8.42
8.23
8.54
9.19
9.98
10.73
11.28
11.52
11.42
10.9
9.98
8.69
7.21
5.71
4.35
3.17
2.07
0.9
-0.47
-2.03
-3.69
-5.32
-6.84
-8.26
-9.69
-11.25
-13.0
-14.96
-17.09
-19.25
-21.26
-22.82
-23.62
-23.35
-21.86
-19.23
-15.71
-11.68
-7.47
-3.3
0.66
4.27
7.39
9.86
11.59
12.56
12.84
12.53
11.79
10.76
9.67
8.76
8.25
8.25
8.68
9.36
10.05
10.57
10.89
10.97
10.86
10.52
9.94
9.16
8.27
7.44
6.74
6.17
5.56
4.69
3.4
1.6
-0.56
-2.78
-4.72
-6.12
-6.91
-7.33
-7.82
-8.86
-10.79
-13.66
-17.23
-20.99
-24.38
-26.84
-27.91
-27.3
-24.95
-21.04
-16.02
-10.51
-5.15
-0.49
3.26
6.05
8.07
9.5
10.54
11.27
11.74
11.97
11.98
11.8
11.47
11.09
10.75
10.54
10.51
10.66
10.96
11.37
11.89
12.41
12.82
12.94
12.64
11.82
10.5
8.77
6.81
4.84
3.01
1.43
0.07
-1.14
-2.3
-3.48
-4.72
-5.98
-7.24
-8.55
-9.98
-11.66
-13.63
-15.86
-18.2
-20.52
-22.62
-24.34
-25.41
-25.62
-24.77
-22.75
-19.59
-15.5
-10.76
-5.79
-1.07
2.95
5.95
7.82
8.71
8.92
8.72
8.29
7.67
6.84
5.89
5.04
4.57
4.61
5.13
5.88
6.59
7.15
7.51
7.75
7.79
7.51
6.76
5.51
3.91
2.25
0.8
-0.39
-1.41
-2.44
-3.66
-5.07
-6.53
-7.91
-9.07
-10.02
-10.79
-11.53
-12.43
-13.67
-15.42
-17.7
-20.35
-22.97
-25.08
-26.18
-25.96
-24.34
-21.47
-17.71
-13.44
-9.01
-4.67
-0.6
3.09
6.23
8.65
10.17
10.75
10.55
9.88
9.1
8.49
8.21
8.19
8.35
8.62
9.01
9.53
10.2
10.97
11.72
12.29
12.55
12.41
11.82
10.82
9.53
8.09
6.65
5.3
4.03
2.79
1.52
0.14
-1.39
-3.08
-4.9
-6.8
-8.68
-10.49
-12.28
-14.2
-16.46
-19.14
-22.13
-25.13
-27.7
-29.41
-29.93
-29.13
-27.02
-23.75
-19.59
-14.89
-10.06
-5.45
-1.31
2.26
5.25
7.65
9.41
10.47
10.86
10.76
10.45
10.17
10.09
10.2
10.47
10.85
11.37
12.05
12.84
13.61
14.14
14.26
13.94
13.23
12.3
11.24
10.1
8.89
7.58
6.23
4.9
3.59
2.21
0.65
-1.21
-3.32
-5.54
-7.65
-9.48
-11.05
-12.51
-14.09
-15.99
-18.28
-20.87
-23.52
-25.95
-27.76
-28.61
-28.15
-26.22
-22.83
-18.24
-12.86
-7.15
-1.57
3.52
7.86
11.29
13.77
15.35
16.18
16.45
16.36
16.09
15.73
15.34
15.02
14.84
14.89
15.18
15.71
16.4
17.16
17.85
18.29
18.35
17.94
17.09
15.88
14.47
12.96
11.41
9.84
8.22
6.59
4.96
3.33
1.65
-0.17
-2.18
-4.38
-6.69
-8.96
-11.13
-13.23
-15.37
-17.73
-20.38
-23.23
-26.03
-28.31
-29.64
-29.6
-28.0
-24.86
-20.48
-15.3
-9.79
-4.37
0.66
5.09
8.76
11.55
13.36
14.2
14.16
13.45
12.34
11.14
10.08
9.36
9.11
9.34
10.04
11.07
12.21
13.19
13.8
13.93
13.58
12.89
11.98
10.95
9.81
8.48
6.87
4.94
2.72
0.32
-2.11
-4.49
-6.79
-9.05
-11.37
-13.79
-16.29
-18.82
-21.37
-23.91
-26.41
-28.76
-30.7
-31.88
-31.85
-30.34
-27.26
-22.77
-17.26
-11.21
-5.18
0.37
5.06
8.67
11.15
12.58
13.09
12.84
12.0
10.79
9.49
8.41
7.79
7.75
8.26
9.17
10.32
11.56
12.78
13.85
14.64
15.07
15.07
14.66
13.84
12.61
10.95
8.88
6.52
4.02
1.6
-0.66
-2.73
-4.69
-6.62
-8.59
-10.68
-13.0
-15.71
-18.92
-22.61
-26.47
-29.93
-32.33
-33.11
-31.96
-28.91
-24.25
-18.49
-12.23
-6.01
-0.27
4.71
8.85
12.16
14.7
16.5
17.57
17.9
17.6
16.88
16.02
15.31
14.93
14.92
15.24
15.82
16.6
17.51
18.42
19.19
19.67
19.76
19.48
18.88
18.01
16.84
15.29
13.28
10.82
8.01
5.03
2.08
-0.73
-3.32
-5.73
-7.97
-10.14
-12.38
-14.89
-17.89
-21.46
-25.52
-29.74
-33.58
-36.4
-37.66
-36.98
-34.28
-29.75
-23.81
-17.07
-10.17
-3.68
2.06
6.91
10.93
14.19
16.71
18.44
19.34
19.46
19.07
18.53
18.2
18.31
18.86
19.71
20.66
21.56
22.38
23.12
23.77
24.25
24.43
24.16
23.42
22.26
20.86
19.37
17.89
16.38
14.69
12.65
10.21
7.4
4.39
1.39
-1.49
-4.21
-6.84
-9.49
-12.3
-15.38
-18.74
-22.3
-25.78
-28.71
-30.51
-30.69
-28.93
-25.28
-20.03
-13.72
-6.91
-0.08
6.31
11.89
16.29
19.22
20.55
20.41
19.17
17.36
15.51
14.04
13.16
12.89
13.14
13.81
14.78
15.97
17.27
18.52
19.55
20.23
20.43
20.1
19.2
17.72
15.64
13.02
9.93
6.45
2.69
-1.23
-5.18
-9.01
-12.56
-15.66
-18.25
-20.34
-22.09
-23.74
-25.5
-27.5
-29.66
-31.69
-33.17
-33.57
-32.46
-29.58
-24.94
-18.91
-12.11
-5.25
1.06
6.43
10.73
13.98
16.29
17.75
18.44
18.51
18.15
17.59
17.01
16.53
16.19
16.02
16.07
16.37
16.92
17.6
18.2
18.51
18.39
17.81
16.82
15.49
13.87
12.01
9.98
7.86
5.75
3.72
1.77
-0.19
-2.2
-4.32
-6.62
-9.11
-11.85
-14.89
-18.23
-21.74
-25.23
-28.38
-30.8
-32.06
-31.73
-29.51
-25.38
-19.66
-12.92
-5.92
0.68
6.45
11.17
14.85
17.57
19.37
20.32
20.47
20.0
19.18
18.31
17.67
17.43
17.64
18.26
19.12
20.03
20.84
21.39
21.61
21.44
20.84
19.8
18.31
16.47
14.39
12.24
10.14
8.16
6.21
4.23
2.15
-0.04
-2.27
-4.44
-6.5
-8.5
-10.56
-12.85
-15.42
-18.26
-21.26
-24.24
-26.99
-29.29
-30.83
-31.23
-30.13
-27.36
-22.99
-17.45
-11.3
-5.12
0.7
5.92
10.39
13.97
16.51
17.92
18.34
18.11
17.63
17.22
16.99
16.87
16.76
16.69
16.78
17.13
17.73
18.35
18.65
18.4
17.52
16.13
14.44
12.67
10.95
9.39
8.06
6.97
6.04
5.05
3.74
1.96
-0.29
-2.82
-5.33
-7.66
-9.72
-11.6
-13.41
-15.26
-17.26
-19.48
-22.04
-24.91
-27.9
-30.56
-32.25
-32.35
-30.48
-26.66
-21.3
-15.08
-8.68
-2.64
2.72
7.29
11.05
13.95
15.93
16.91
16.94
16.28
15.29
14.37
13.81
13.67
13.83
14.11
14.4
14.71
15.12
15.68
16.29
16.75
16.8
16.26
15.13
13.55
11.77
9.95
8.22
6.6
5.02
3.43
1.79
0.1
-1.57
-3.12
-4.47
-5.63
-6.72
-7.96
-9.61
-11.85
-14.73
-18.08
-21.69
-25.22
-28.32
-30.56
-31.5
-30.78
-28.25
-24.09
-18.83
-13.15
-7.61
-2.59
1.83
5.63
8.8
11.19
12.64
13.1
12.74
11.87
10.89
10.09
9.57
9.31
9.21
9.22
9.33
9.6
10.01
10.52
10.96
11.13
10.87
10.11
8.89
7.35
5.68
4.03
2.45
0.89
-0.73
-2.49
-4.38
-6.28
-8.1
-9.76
-11.32
-12.91
-14.72
-16.84
-19.32
-22.08
-24.94
-27.62
-29.77
-30.96
-30.77
-28.89
-25.32
-20.37
-14.67
-8.92
-3.66
0.82
4.53
7.6
10.09
11.94
13.04
13.32
12.88
11.96
10.89
9.92
9.24
8.92
8.98
9.38
10.09
11.01
12.0
12.91
13.59
13.94
13.91
13.42
12.5
11.15
9.47
7.59
5.68
3.85
2.14
0.51
-1.11
-2.8
-4.58
-6.44
-8.33
-10.23
-12.13
-14.1
-16.22
-18.56
-21.17
-23.96
-26.66
-28.8
-29.85
-29.33
-27.04
-23.18
-18.23
-12.87
-7.64
-2.85
1.4
5.11
8.24
10.69
12.34
13.18
13.35
13.08
12.63
12.17
11.79
11.51
11.39
11.46
11.77
12.22
12.72
13.11
13.3
13.25
12.97
12.47
11.73
10.73
9.43
7.9
6.21
4.41
2.59
0.76
-1.04
-2.77
-4.39
-5.9
-7.29
-8.59
-9.85
-11.15
-12.64
-14.5
-16.87
-19.74
-22.87
-25.81
-28.01
-28.98
-28.45
-26.42
-23.08
-18.74
-13.8
-8.57
-3.39
1.44
5.62
8.93
11.2
12.44
12.81
12.54
11.95
11.27
