0
15.55
14.69
13.33
11.45
9.13
6.45
3.6
0.7
-2.16
-4.95
-7.7
-10.47
-13.36
-16.47
-19.85
-23.44
-26.93
-29.87
-31.63
-31.66
-29.66
-25.61
-19.87
-13.05
-5.86
1.03
7.11
12.15
16.21
19.52
22.27
24.44
25.74
25.67
23.78
19.9
14.23
7.34
-0.04
-7.18
-13.51
-18.6
-22.18
-24.05
-24.23
-22.97
-20.81
-18.48
-16.72
-16.04
-16.55
-17.96
-19.69
-21.07
-21.62
-21.15
-19.81
-17.97
-16.1
-14.59
-13.67
-13.38
-13.57
-13.87
-13.73
-12.58
-9.9
-5.5
0.42
7.3
14.3
20.61
25.6
28.98
30.75
31.14
30.46
29.02
27.05
24.71
22.17
19.59
17.2
15.22
13.82
13.06
12.86
13.07
13.47
13.88
14.18
14.27
14.02
13.32
12.07
10.24
7.91
5.25
2.49
-0.14
-2.49
-4.49
-6.19
-7.69
-9.15
-10.71
-12.5
-14.62
-17.12
-19.89
-22.61
-24.77
-25.73
-24.92
-22.03
-17.2
-10.97
-4.18
2.27
7.66
11.55
13.85
14.7
14.38
13.2
11.44
9.37
7.25
5.34
3.86
2.98
2.76
3.17
4.09
5.35
6.8
8.24
9.53
10.5
11.03
11.06
10.57
9.59
8.19
6.46
4.53
2.51
0.52
-1.38
-3.13
-4.72
-6.14
-7.36
-8.43
-9.39
-10.35
-11.43
-12.77
-14.41
-16.33
-18.33
-20.06
-21.01
-20.68
-18.71
-15.02
-9.99
-4.28
1.35
6.27
10.19
13.05
14.93
15.9
15.97
15.18
13.72
11.88
10.06
8.55
7.51
6.94
6.75
6.9
7.38
8.17
9.19
10.21
10.99
11.31
11.02
10.14
8.8
7.18
5.44
3.74
2.15
0.67
-0.79
-2.36
-4.12
-6.04
-7.98
-9.73
-11.06
-11.89
-12.28
-12.43
-12.65
-13.25
-14.5
-16.44
-18.87
-21.31
-23.07
-23.47
-22.03
-18.64
-13.65
-7.71
-1.56
4.14
8.97
12.74
15.43
17.09
17.78
17.56
16.52
14.8
12.68
10.48
8.56
7.25
6.71
6.95
7.82
9.11
10.62
12.15
13.49
14.42
14.73
14.23
12.96
11.06
8.8
6.44
4.12
1.92
-0.15
-2.09
-3.87
-5.45
-6.87
-8.22
-9.62
-11.19
-13.0
-15.05
-17.25
-19.43
-21.28
-22.43
-22.48
-21.15
-18.35
-14.23
-9.15
-3.58
1.92
6.87
10.88
13.71
15.31
15.83
15.46
14.46
13.02
11.27
9.36
7.49
5.88
4.77
4.32
4.51
5.21
6.18
7.17
7.96
8.36
8.23
7.52
6.27
4.63
2.82
0.99
-0.79
-2.58
-4.44
-6.38
-8.3
-10.06
-11.5
-12.58
-13.39
-14.11
-14.92
-15.99
-17.43
-19.26
-21.42
-23.72
-25.83
-27.33
-27.77
-26.81
-24.21
-19.99
-14.4
-7.97
-1.37
4.64
9.5
12.87
14.79
15.52
15.41
14.78
13.79
12.54
11.07
9.51
8.0
6.78
6.05
5.92
6.37
7.22
8.22
9.13
9.75
10.0
9.9
9.45
8.66
7.48
5.9
3.95
1.74
-0.61
-2.95
-5.13
-7.08
-8.71
-10.02
-11.1
-12.09
-13.19
-14.56
-16.33
-18.5
-20.99
-23.55
-25.81
-27.25
-27.33
-25.61
-21.92
-16.48
-9.82
-2.72
4.06
9.92
14.5
17.68
19.48
20.02
19.48
18.06
16.02
13.65
11.23
9.04
7.32
6.24
5.89
6.24
7.13
8.3
9.48
10.43
10.98
11.07
10.67
9.82
8.59
7.07
5.39
3.65
1.94
0.29
-1.3
-2.83
-4.33
-5.82
-7.28
-8.69
-9.96
-11.05
-11.97
-12.8
-13.65
-14.53
-15.2
-15.15
-13.78
-10.65
-5.68
0.75
7.93
15.04
21.41
26.6
30.36
32.67
33.56
33.26
32.16
30.81
29.83
29.66
30.35
31.49
32.23
31.61
28.88
23.76
16.58
8.13
-0.59
-8.77
-15.87
-21.68
-26.2
-29.47
-31.46
-32.2
-31.8
-30.52
-28.75
-26.84
-25.01
-23.32
-21.73
-20.16
-18.67
-17.35
-16.23
-15.17
-13.79
-11.59
-8.19
-3.49
2.14
8.0
13.24
17.12
19.24
19.57
18.35
15.99
12.87
9.27
5.33
1.14
-3.21
-7.58
-11.67
-15.18
-17.8
-19.33
-19.72
-19.07
-17.61
-15.59
-13.32
-11.05
-9.03
-7.43
-6.3
-5.61
-5.25
-5.11
-5.14
-5.33
-5.71
-6.3
-7.05
-7.85
-8.59
-9.18
-9.67
-10.23
-11.1
-12.5
-14.47
-16.81
-19.05
-20.56
-20.68
-18.94
-15.19
-9.7
-3.13
3.67
9.87
14.92
18.59
20.98
22.28
22.64
22.05
20.44
17.82
14.46
10.89
7.75
5.57
4.61
4.82
5.96
7.69
9.66
11.51
12.89
13.52
13.21
11.95
9.94
7.47
4.85
2.29
-0.1
-2.29
-4.26
-6.01
-7.53
-8.79
-9.79
-10.54
-11.08
-11.54
-12.13
-13.15
-14.83
-17.22
-20.04
-22.68
-24.29
-24.09
-21.6
-16.84
-10.3
-2.87
4.47
10.9
15.86
19.17
20.9
21.28
20.55
18.97
16.74
14.13
11.47
9.07
7.25
6.19
5.95
6.46
7.58
9.11
10.82
12.44
13.65
14.24
14.08
13.2
11.7
9.73
7.43
4.89
2.26
-0.3
-2.58
-4.5
-6.08
-7.46
-8.79
-10.2
-11.67
-13.18
-14.73
-16.3
-17.84
-19.11
-19.71
-19.15
-17.02
-13.18
-7.87
-1.61
4.96
11.17
16.54
20.75
23.61
25.05
25.08
23.79
21.4
18.28
14.9
11.8
9.38
7.91
7.39
7.62
8.35
9.34
10.39
11.31
11.92
11.99
11.41
10.13
8.23
5.85
3.12
0.13
-3.01
-6.12
-8.96
-11.29
-13.03
-14.4
-15.76
-17.58
-20.07
-23.1
-26.18
-28.59
-29.6
-28.7
-25.68
-20.66
-14.1
-6.62
1.03
8.16
14.17
18.67
21.48
22.66
22.41
21.03
18.86
16.2
13.36
10.66
8.39
6.85
6.23
6.59
7.71
9.26
10.82
12.07
12.82
13.01
12.66
11.76
10.28
8.19
5.59
2.67
-0.3
-3.09
-5.57
-7.73
-9.66
-11.47
-13.28
-15.2
-17.31
-19.68
-22.24
-24.77
-26.9
-28.06
-27.69
-25.31
-20.8
-14.42
-6.87
0.93
8.09
13.93
18.16
20.78
21.97
21.94
20.88
19.0
16.61
14.04
11.64
9.69
8.39
7.83
8.03
8.9
10.23
11.71
12.96
13.65
13.65
12.96
11.71
10.04
8.03
5.72
3.18
0.58
-1.88
-4.02
-5.79
-7.28
-8.63
-9.95
-11.27
-12.59
-13.91
-15.32
-16.97
-18.94
-21.19
-23.41
-25.11
-25.73
-24.76
-21.97
-17.39
-11.4
-4.62
2.22
8.44
13.51
17.16
19.3
20.03
19.5
17.93
15.63
12.95
10.29
8.04
6.5
5.82
6.02
6.95
8.36
9.93
11.31
12.26
12.61
12.37
11.62
10.52
9.17
7.63
5.91
4.03
2.03
-0.03
-2.09
-4.07
-5.93
-7.59
-8.99
-10.08
-10.88
-11.48
-12.01
-12.67
-13.65
-15.09
-17.01
-19.13
-20.88
-21.49
-20.24
-16.73
-11.15
-4.26
2.88
9.26
14.26
17.72
19.77
20.7
20.68
19.78
18.07
15.74
13.14
10.71
8.87
7.83
7.66
8.17
9.07
10.01
10.67
10.85
10.49
9.69
8.58
7.28
5.79
4.0
1.81
-0.8
-3.66
-6.5
-9.0
-10.97
-12.32
-13.17
-13.74
-14.28
-15.05
-16.22
-17.83
-19.78
-21.72
-23.17
-23.59
-22.52
-19.69
-15.17
-9.38
-3.06
2.96
7.89
11.29
13.08
13.53
13.02
11.89
10.36
8.53
6.53
4.59
2.99
2.0
1.79
2.29
3.34
4.71
6.2
7.61
8.77
9.45
9.5
8.84
7.54
5.84
3.98
2.17
0.42
-1.35
-3.27
-5.4
-7.63
-9.78
-11.61
-12.96
-13.85
-14.39
-14.84
-15.46
-16.49
-18.05
-20.07
-22.21
-23.92
-24.54
-23.5
-20.55
-15.85
-9.96
-3.69
2.16
7.03
10.64
12.97
14.19
14.5
14.07
13.07
11.66
10.01
8.39
7.03
6.14
5.82
6.04
6.69
7.59
8.59
9.53
10.28
10.7
10.67
10.12
9.01
7.42
5.5
3.5
1.59
-0.07
-1.47
-2.7
-3.88
-5.13
-6.45
-7.79
-9.05
-10.15
-11.05
-11.78
-12.44
-13.17
-14.15
-15.59
-17.6
-20.07
-22.56
-24.35
-24.6
-22.7
-18.55
-12.59
-5.72
1.07
7.01
11.67
15.02
17.18
18.31
18.5
17.78
16.22
14.0
11.46
9.04
7.18
6.19
6.14
6.89
8.12
9.5
10.81
11.92
12.76
13.25
13.24
12.56
11.2
9.25
6.98
4.63
2.36
0.2
-1.89
-3.92
-5.8
-7.37
-8.53
-9.3
-9.88
-10.57
-11.65
-13.32
-15.58
-18.2
-20.71
-22.48
-22.85
-21.39
-18.0
-13.02
-7.11
-1.01
4.62
9.34
12.95
15.39
16.67
16.88
16.15
14.7
12.79
10.68
8.61
6.78
5.4
4.6
4.51
5.17
6.46
8.15
9.85
11.2
11.85
11.68
10.68
9.04
6.97
4.74
2.56
0.6
-1.06
-2.45
-3.67
-4.87
-6.19
-7.69
-9.35
-11.06
-12.71
-14.23
-15.64
-17.05
-18.62
-20.45
-22.55
-24.63
-26.17
-26.5
-24.98
-21.34
-15.76
-8.84
-1.46
5.52
11.45
16.0
19.04
20.65
20.96
20.17
18.51
16.23
13.63
11.0
8.67
6.96
6.14
6.35
7.5
9.28
11.27
13.02
14.26
14.89
14.96
14.55
13.67
12.29
10.36
7.97
5.35
2.84
0.71
-0.93
-2.26
-3.62
-5.33
-7.46
-9.77
-11.79
-13.14
-13.68
-13.66
-13.59
-14.02
-15.3
-17.49
-20.36
-23.48
-26.32
-28.27
-28.7
-27.1
-23.27
-17.4
-10.09
-2.22
5.32
11.84
16.91
20.34
22.14
22.45
21.57
19.92
18.0
16.28
15.05
14.4
14.27
14.55
15.17
16.1
17.37
18.91
20.59
22.17
23.36
23.87
23.53
22.28
20.22
17.55
14.53
11.44
8.49
5.86
3.59
1.7
0.14
-1.23
-2.54
-3.93
-5.47
-7.11
-8.73
-10.23
-11.64
-13.07
-14.68
-16.45
-18.09
-19.06
-18.74
-16.73
-13.13
-8.51
-3.79
0.07
2.43
3.07
2.21
0.29
-2.19
-4.88
-7.52
-9.92
-11.82
-12.9
-12.87
-11.56
-9.09
-5.8
-2.16
1.37
4.48
7.05
8.99
10.24
10.71
10.32
9.12
7.32
5.22
3.11
1.18
-0.5
-1.99
-3.39
-4.81
-6.35
-8.06
-9.92
-11.88
-13.83
-15.71
-17.53
-19.26
-20.84
-22.0
-22.29
-21.17
-18.23
-13.3
-6.59
1.46
10.26
19.24
27.96
36.08
43.39
49.7
54.93
59.0
61.93
63.78
64.67
64.73
64.16
63.12
61.77
60.24
58.65
57.09
55.65
54.44
53.53
52.89
52.3
51.27
49.11
44.99
38.29
28.77
16.73
2.93
-11.7
-26.34
-40.56
-54.29
-67.74
-81.02
-94.06
-106.48
-117.8
-127.56
-135.52
-141.67
-146.05
-148.62
-149.08
-146.96
-141.8
-133.42
-122.09
-108.55
-93.85
-78.98
-64.74
-51.61
-39.79
-29.34
-20.31
-12.71
-6.5
-1.56
2.38
5.57
8.27
10.67
12.93
15.24
17.75
20.58
23.71
26.96
30.08
32.74
34.73
35.9
36.21
35.66
34.3
32.16
29.31
25.86
22.0
17.91
13.82
9.91
6.32
3.07
0.07
-2.87
-6.03
-9.58
-13.55
-17.72
-21.63
-24.69
-26.33
-26.12
-23.92
-19.95
-14.71
-8.93
-3.27
1.75
5.92
9.28
12.05
14.48
16.73
18.85
20.81
22.56
24.09
25.41
26.49
27.32
27.79
27.82
27.39
26.53
25.36
24.02
22.59
21.09
19.5
17.8
16.04
14.34
12.8
11.47
10.29
9.06
7.59
5.75
3.6
1.36
-0.62
-2.04
-2.8
-3.06
-3.19
-3.63
-4.79
-6.83
-9.62
-12.69
-15.35
-16.84
-16.5
-13.99
-9.37
-3.14
3.85
10.69
16.61
21.1
24.05
25.57
25.97
25.52
24.51
23.14
21.62
20.16
18.96
18.18
17.91
18.14
18.67
19.29
19.76
19.97
19.94
19.75
19.47
19.04
18.25
16.89
14.85
12.25
9.39
6.68
4.4
2.66
1.32
0.14
-1.07
-2.38
-3.74
-5.02
-6.12
-7.04
-7.86
-8.7
-9.7
-10.94
-12.46
-14.26
-16.34
-18.57
-20.71
-22.28
-22.68
-21.29
-17.8
-12.35
-5.6
1.54
8.14
13.61
17.75
20.6
22.34
23.03
22.68
21.33
19.2
16.68
14.28
12.4
11.29
10.98
11.32
12.1
13.05
13.94
14.58
14.84
14.66
14.04
12.95
11.38
9.36
7.0
4.52
2.22
0.35
-1.03
-2.07
-3.11
-4.47
-6.28
-8.41
-10.57
-12.38
-13.61
-14.25
-14.53
-14.77
-15.35
-16.5
-18.26
-20.47
-22.78
-24.67
-25.59
-24.98
-22.52
-18.1
-12.06
-5.06
2.03
8.34
13.27
16.6
18.45
19.12
18.93
18.06
16.61
14.7
12.55
10.49
8.87
7.99
7.95
8.68
9.96
11.48
12.92
14.0
14.55
14.51
13.96
13.02
11.81
10.39
8.76
6.95
5.03
3.14
1.46
0.05
-1.07
-1.99
-2.84
-3.7
-4.65
-5.71
-6.84
-8.0
-9.12
-10.09
-10.89
-11.55
-12.21
-13.02
-14.16
-15.7
-17.63
-19.78
-21.79
-23.23
-23.54
-22.28
-19.29
-14.78
-9.26
-3.44
2.05
6.77
10.52
13.23
14.93
15.62
15.38
14.37
12.85
11.17
9.62
8.42
7.69
7.45
7.67
8.29
9.15
10.03
10.69
10.99
10.85
10.4
9.78
9.09
8.35
7.42
6.19
4.61
2.78
0.9
-0.84
-2.37
-3.76
-5.14
-6.61
-8.1
-9.41
-10.36
-10.85
-10.94
-10.85
-10.84
-11.12
-11.87
-13.16
-15.03
-17.41
-20.06
-22.54
-24.23
-24.57
-23.11
-19.82
-15.0
-9.27
-3.35
2.13
6.74
10.29
12.75
14.17
14.62
14.19
13.04
11.4
9.56
7.82
6.45
5.58
5.26
5.46
6.13
7.16
8.42
9.76
11.04
12.16
13.04
13.55
13.5
12.59
10.54
7.23
2.85
-2.12
-6.99
-11.11
-14.08
-15.82
-16.57
-16.69
-16.5
-16.24
-15.97
-15.71
-15.51
-15.5
-15.85
-16.74
-18.26
-20.36
-22.86
-25.46
-27.7
-29.1
-29.17
-27.54
-24.08
-18.99
-12.79
-6.19
0.11
5.57
9.97
13.3
15.71
17.31
18.11
18.09
17.25
15.72
13.79
11.81
10.12
8.98
8.5
8.66
9.38
10.47
11.75
12.98
13.99
14.6
14.74
14.41
13.62
12.42
10.83
8.93
6.82
4.64
2.54
0.61
-1.14
-2.82
-4.55
-6.42
-8.41
-10.38
-12.11
-13.42
-14.23
-14.61
-14.76
-14.94
-15.41
-16.33
-17.74
-19.48
-21.2
-22.39
-22.52
-21.18
-18.24
-13.85
-8.48
-2.71
2.9
7.92
12.04
15.09
17.01
17.76
17.43
16.19
14.29
12.08
9.89
8.01
6.68
6.0
5.98
6.55
7.59
8.92
10.33
11.53
12.26
12.32
11.65
10.39
8.81
7.19
5.7
4.3
2.83
1.11
-0.97
-3.3
-5.7
-7.94
-9.89
-11.51
-12.84
-13.99
-15.13
-16.43
-18.05
-19.94
-21.85
-23.27
-23.58
-22.22
-18.95
-13.92
-7.63
-0.81
5.79
11.52
15.95
18.83
20.17
20.12
18.97
17.07
14.76
12.34
10.08
8.19
6.82
6.09
6.01
6.51
7.45
8.65
9.94
11.15
12.11
12.66
12.66
12.06
10.87
9.21
7.24
5.12
2.97
0.85
-1.2
-3.19
-5.06
-6.81
-8.45
-9.99
-11.5
-12.98
-14.42
-15.79
-17.11
-18.49
-20.11
-22.05
-24.23
-26.24
-27.42
-27.08
-24.7
-20.21
-14.04
-6.96
0.13
6.48
11.65
15.52
18.19
19.79
20.36
19.9
18.41
16.01
13.04
9.96
7.26
5.3
4.22
3.96
4.34
5.2
6.44
8.0
9.75
11.51
12.98
13.88
14.01
13.37
12.07
10.32
8.34
6.34
4.48
2.86
1.53
0.48
-0.41
-1.33
-2.46
-3.91
-5.75
-7.97
-10.54
-13.43
-16.57
-19.78
-22.77
-25.18
-26.57
-26.61
-25.09
-22.03
-17.65
-12.37
-6.74
-1.32
3.37
6.93
9.2
10.17
9.94
8.67
6.53
3.73
0.6
-2.45
-4.98
-6.6
-7.14
-6.64
-5.38
-3.72
-2.02
-0.49
0.79
1.94
3.14
4.55
6.21
7.98
9.52
10.46
10.47
9.43
7.42
4.76
1.77
-1.22
-4.04
-6.59
-8.88
-10.95
-12.86
-14.75
-16.76
-18.98
-21.33
-23.48
-24.87
-24.88
-23.01
-19.1
-13.41
-6.55
0.67
7.45
13.17
17.42
20.05
21.11
20.81
19.44
17.39
15.03
12.69
10.6
8.89
7.62
6.85
6.62
6.95
7.87
9.29
11.04
12.9
14.58
15.84
16.47
16.35
15.44
13.8
11.61
9.14
6.64
4.3
2.19
0.24
-1.64
-3.51
-5.38
-7.23
-9.07
-11.01
-13.2
-15.8
-18.9
-22.46
-26.35
-30.3
-33.86
-36.41
-37.26
-35.81
-31.82
-25.56
-17.76
-9.44
-1.56
5.2
10.56
14.48
17.1
18.56
18.95
18.41
17.11
15.37
13.5
11.84
10.57
9.78
9.45
9.54
9.98
10.75
11.83
13.14
14.51
15.67
16.37
16.43
15.77
14.46
12.62
10.43
8.05
5.7
3.6
1.92
0.71
-0.15
-0.91
-1.82
-3.03
-4.54
-6.22
-7.94
-9.63
-11.31
-13.02
-14.76
-16.56
-18.36
-20.13
-21.69
-22.75
-22.92
-21.79
-19.13
-15.07
-10.07
-4.78
0.18
4.4
7.72
10.15
11.74
12.5
12.43
11.57
10.13
8.42
6.83
5.76
5.5
6.15
7.64
9.7
11.91
13.89
15.31
16.05
16.17
15.8
15.12
14.24
13.18
11.94
10.55
9.04
7.51
6.06
4.83
3.9
3.29
2.91
2.6
2.16
1.49
0.65
-0.18
-0.83
-1.25
-1.56
-2.02
-2.86
-4.21
-6.04
-8.27
-10.77
-13.39
-15.85
-17.75
-18.57
-17.8
-15.14
-10.69
-4.89
1.56
7.85
13.26
17.26
19.56
20.14
19.22
17.16
14.36
11.18
7.92
4.85
2.29
0.56
-0.08
0.38
1.71
3.45
5.11
6.3
6.86
6.82
6.29
5.4
4.23
2.83
1.25
-0.48
-2.29
-4.19
-6.19
-8.26
-10.37
-12.43
-14.31
-15.93
-17.22
-18.18
-18.88
-19.47
-20.16
-21.21
-22.77
-24.85
-27.13
-29.06
-29.88
-28.9
-25.71
-20.36
-13.39
-5.67
1.87
8.47
13.69
17.42
19.77
20.89
20.94
20.02
18.28
15.96
13.39
11.01
9.17
8.07
7.72
7.97
8.62
9.54
10.65
11.95
13.37
14.68
15.55
15.67
14.85
13.15
10.88
8.45
6.19
4.24
2.5
0.77
-1.14
-3.29
-5.54
-7.61
-9.3
-10.5
-11.3
-11.92
-12.58
-13.44
-14.57
-15.96
-17.52
-19.08
-20.3
-20.67
-19.64
-16.79
-12.13
-6.09
0.47
6.58
11.55
15.07
17.29
18.56
19.19
19.3
18.8
17.57
15.61
13.16
10.62
8.44
6.95
6.29
6.44
7.25
8.56
10.18
11.86
13.34
14.31
14.51
13.84
12.35
10.27
7.88
5.41
3.02
0.72
-1.47
-3.6
-5.66
-7.6
-9.38
-10.96
-12.32
-13.46
-14.45
-15.38
-16.37
-17.53
-18.85
-20.1
-20.82
-20.42
-18.37
-14.48
-9.0
-2.56
4.0
9.91
14.67
18.07
20.14
21.0
20.77
19.57
17.57
15.0
12.16
9.43
7.09
5.38
4.38
4.03
4.2
4.71
5.42
6.21
6.99
7.6
7.84
7.48
6.35
4.45
1.95
-0.88
-3.73
-6.38
-8.75
-10.84
-12.73
-14.52
-16.29
-18.14
-20.1
-22.14
-24.08
-25.56
-26.15
-25.36
-22.91
-18.76
-13.24
-6.97
-0.67
4.97
9.44
12.52
14.2
14.57
13.82
12.12
9.71
6.87
3.97
1.41
-0.48
-1.5
-1.64
-1.04
0.04
1.34
2.65
3.84
4.82
5.51
5.81
5.6
4.83
3.48
1.66
-0.49
-2.81
-5.15
-7.4
-9.49
-11.38
-13.13
-14.8
-16.51
-18.38
-20.47
-22.74
-24.94
-26.66
-27.35
-26.51
-23.86
-19.41
-13.57
-7.0
-0.48
5.28
9.81
12.95
14.75
15.38
15.05
13.91
12.11
9.84
7.38
5.1
3.4
2.56
2.65
3.54
4.93
6.5
7.96
9.18
10.09
10.6
10.67
10.2
9.13
7.48
5.37
3.0
0.55
-1.82
-4.04
-6.06
-7.91
-9.58
-11.08
-12.46
-13.81
-15.25
-16.91
-18.8
-20.73
-22.25
-22.83
-21.94
-19.3
-15.02
-9.51
-3.44
2.54
7.95
12.45
15.85
18.02
18.85
18.34
16.65
14.14
11.35
8.85
7.1
6.34
6.6
7.69
9.27
11.01
12.61
13.84
14.56
14.72
14.32
13.39
11.96
10.1
7.9
5.48
2.98
0.49
-1.93
-4.18
-6.18
-7.81
-9.01
-9.88
-10.68
-11.78
-13.49
-15.85
-18.52
-20.82
-21.97
-21.3
-18.53
-13.84
-7.76
-1.08
5.44
11.16
15.67
18.82
20.6
21.12
20.5
18.85
16.38
13.38
10.26
7.45
5.34
4.15
3.88
4.37
5.38
6.64
7.9
8.95
9.59
9.69
9.17
7.99
6.16
3.74
0.86
-2.27
-5.4
-8.27
-10.7
-12.68
-14.33
-15.84
-17.44
-19.3
-21.51
-24.0
-26.48
-28.43
-29.18
-28.06
-24.75
-19.41
-12.67
-5.44
1.42
7.31
12.0
15.48
17.78
18.93
18.91
17.78
15.72
13.11
10.44
8.19
6.78
6.42
7.08
8.47
10.16
11.71
12.83
13.41
13.53
13.31
12.77
11.85
10.39
8.37
5.85
3.03
0.18
-2.49
-4.84
-6.8
-8.36
-9.63
-10.82
-12.21
-14.06
-16.44
-19.15
-21.71
-23.48
-23.81
-22.22
-18.58
-13.09
-6.35
0.83
7.57
13.14
17.15
19.53
20.47
20.27
19.16
17.34
15.01
12.47
10.14
8.38
7.47
7.43
8.14
9.32
10.68
11.94
12.89
13.37
13.33
12.83
11.99
10.87
9.44
7.61
5.3
2.59
-0.25
-2.89
-5.02
-6.57
-7.62
-8.39
-9.09
-9.89
-10.86
-12.11
-13.69
-15.65
-17.84
-19.92
-21.37
-21.62
-20.24
-17.1
-12.43
-6.79
-0.89
4.62
9.25
12.79
15.18
16.47
16.7
15.93
14.26
11.95
9.36
6.96
5.13
4.14
4.02
4.59
5.51
6.43
7.09
7.35
7.29
6.99
6.51
5.77
4.55
2.7
0.22
-2.64
-5.49
-7.96
-9.87
-11.32
-12.54
-13.78
-15.2
-16.85
-18.73
-20.77
-22.8
-24.45
-25.15
-24.32
-21.6
-17.05
-11.17
-4.78
1.27
6.37
10.21
12.77
14.18
14.57
14.08
12.8
10.88
8.52
6.02
3.76
2.11
1.35
1.56
2.6
4.16
5.92
7.57
8.9
9.78
10.15
9.98
9.27
8.06
6.43
4.44
2.16
-0.36
-2.99
-5.54
-7.82
-9.67
-11.06
-12.12
-13.1
-14.23
-15.7
-17.58
-19.74
-21.91
-23.6
-24.23
-23.22
-20.21
-15.17
-8.61
-1.34
5.64
11.45
15.56
17.92
18.83
18.75
18.09
17.04
15.54
13.43
10.59
7.1
3.28
-0.38
-3.39
-5.34
-6.03
-5.48
-3.88
-1.57
1.05
3.55
5.57
6.87
7.41
7.25
6.47
5.21
3.52
1.54
-0.6
-2.67
-4.51
-6.01
-7.23
-8.28
-9.27
-10.37
-11.7
-13.42
-15.59
-18.14
-20.67
-22.52
-22.92
-21.33
-17.67
-12.36
-6.15
0.11
5.77
10.45
13.95
16.21
17.15
16.79
15.26
12.86
10.0
7.13
4.63
2.74
1.61
1.26
1.65
2.68
4.15
5.81
7.34
8.46
9.02
8.99
8.46
7.51
6.17
4.43
2.3
-0.15
-2.71
-5.11
-7.1
-8.54
-9.48
-10.08
-10.57
-11.19
-12.16
-13.62
-15.63
-18.06
-20.6
-22.71
-23.76
-23.14
-20.46
-15.77
-9.53
-2.53
4.32
10.26
14.81
17.85
19.5
20.0
19.6
18.47
16.82
14.84
12.81
10.94
9.45
8.46
8.03
8.17
8.84
9.97
11.38
12.86
14.16
15.04
15.3
14.76
13.35
11.12
8.21
4.92
1.56
-1.6
-4.41
-6.86
-9.04
-11.02
-12.86
-14.64
-16.45
-18.41
-20.63
-23.06
-25.44
-27.32
-28.09
-27.22
-24.39
-19.63
-13.3
-6.09
1.2
7.84
13.29
17.3
19.85
21.1
21.27
20.52
19.04
17.0
14.65
12.28
10.24
8.81
8.2
8.48
9.53
11.13
13.0
14.87
16.54
17.84
18.67
18.86
18.23
16.62
13.91
10.21
5.78
1.04
-3.51
-7.45
-10.56
-12.85
-14.56
-16.07
-17.8
-20.01
-22.79
-25.87
-28.77
-30.8
-31.27
-29.7
-25.97
-20.37
-13.58
-6.48
0.09
5.52
9.55
12.18
13.61
14.05
13.67
12.58
10.92
8.89
6.82
5.06
3.94
3.62
4.08
5.1
6.41
7.71
8.82
9.62
10.05
10.08
9.63
8.63
7.03
4.85
2.21
-0.7
-3.66
-6.48
-9.03
-11.28
-13.23
-15.0
-16.77
-18.73
-20.97
-23.31
-25.28
-26.2
-25.39
-22.48
-17.57
-11.18
-4.14
2.77
8.89
13.83
17.31
19.25
19.68
18.8
16.98
14.61
12.05
9.53
7.22
5.27
3.91
3.29
3.42
4.14
5.14
6.13
6.95
7.58
8.04
8.26
8.08
7.27
5.74
3.52
0.8
-2.17
-5.14
-7.91
-10.32
-12.28
-13.78
-14.96
-16.06
-17.36
-18.99
-20.85
-22.54
-23.46
-22.98
-20.72
-16.63
-11.06
-4.71
1.65
7.3
11.83
15.09
17.1
17.96
17.77
16.61
14.69
12.29
9.85
7.79
6.42
5.9
6.17
7.07
8.38
9.82
11.16
12.16
12.69
12.73
12.37
11.74
10.92
9.92
8.67
7.07
5.06
2.6
-0.29
-3.58
-7.19
-11.02
-14.93
-18.77
-22.44
-25.84
-28.84
-31.15
-32.36
-31.96
-29.57
-25.12
-18.95
-11.73
-4.29
2.59
8.42
12.97
16.25
18.37
19.46
19.58
18.78
17.2
15.11
12.96
11.27
10.45
10.63
11.58
12.86
13.99
14.67
14.87
14.8
14.72
14.77
14.86
14.73
14.07
12.66
10.49
7.77
4.85
2.11
-0.16
-1.89
-3.2
-4.34
-5.59
-7.1
-8.92
-10.91
-12.8
-14.18
-14.53
-13.44
-10.68
-6.5
-1.63
2.88
5.99
7.03
5.92
3.19
-0.33
-3.89
-7.02
-9.61
-11.79
-13.64
-15.11
-15.98
-16.04
-15.15
-13.38
-10.96
-8.22
-5.47
-2.94
-0.76
1.03
2.48
3.58
4.27
4.39
3.76
2.3
0.14
-2.4
-4.84
-6.77
-7.99
-8.58
-8.77
-8.88
-9.11
-9.56
-10.26
-11.19
-12.28
-13.39
-14.22
-14.35
-13.34
-10.88
-6.92
-1.8
3.92
9.54
14.49
18.39
21.14
22.77
23.35
22.94
21.6
19.46
16.78
13.95
11.35
9.32
7.94
7.18
6.87
6.89
7.11
7.39
7.6
7.56
7.14
6.27
4.98
3.35
1.48
-0.54
-2.65
-4.8
-6.9
-8.88
-10.71
-12.36
-13.84
-15.15
-16.31
-17.35
-18.36
-19.45
-20.75
-22.29
-23.95
-25.43
-26.31
-26.14
-24.52
-21.29
-16.51
-10.54
-3.98
2.44
8.09
12.54
15.67
17.63
18.63
18.87
18.45
17.44
15.95
14.28
12.81
11.85
11.56
11.86
12.51
13.29
14.02
14.65
15.18
15.51
15.51
15.03
13.97
12.38
10.35
8.04
5.59
3.14
0.74
-1.54
-3.67
-5.61
-7.32
-8.77
-9.94
-10.86
-11.64
-12.44
-13.45
-14.84
-16.63
-18.7
-20.76
-22.42
-23.23
-22.76
-20.74
-17.16
-12.34
-6.84
-1.36
3.43
7.12
9.56
10.86
11.27
11.04
10.37
9.34
8.02
6.52
5.03
3.8
3.13
3.18
3.97
5.36
7.04
8.7
10.11
11.09
11.59
11.56
10.96
9.81
8.18
6.21
4.11
2.04
0.11
-1.67
-3.34
-4.94
-6.46
-7.84
-9.05
-10.04
-10.88
-11.72
-12.76
-14.23
-16.25
-18.76
-21.44
-23.8
-25.22
-25.21
-23.44
-19.87
-14.75
-8.53
-1.84
4.63
10.24
14.56
17.38
18.82
19.13
18.64
17.61
16.25
14.76
13.35
12.25
11.64
11.6
12.1
13.05
14.35
15.91
17.62
19.28
20.63
21.43
21.54
21.01
20.04
18.91
17.87
17.14
16.82
16.89
17.16
17.12
16.09
13.32
8.37
1.28
-7.34
-16.5
-25.22
-32.8
-39.0
-43.88
-47.71
-50.73
-53.09
-54.86
-56.04
-56.51
-55.98
-53.99
-50.09
-43.99
-35.79
-26.07
-15.71
-5.66
3.27
10.64
16.28
20.28
22.79
23.96
23.99
23.16
21.85
20.55
19.72
19.66
20.44
21.84
23.51
25.12
26.45
27.48
28.31
29.02
29.58
29.81
29.43
28.14
25.75
22.22
17.73
12.61
7.34
2.41
-1.78
-5.05
-7.44
-9.17
-10.51
-11.65
-12.62
-13.37
-13.85
-14.14
-14.49
-15.21
-16.57
-18.62
-21.24
-24.17
-27.06
-29.53
-31.14
-31.43
-29.96
-26.46
-20.95
-13.82
-5.82
2.2
9.44
15.36
19.7
22.37
23.43
23.0
21.27
18.56
15.29
11.92
8.95
6.78
5.66
5.66
6.61
8.2
10.03
11.7
12.91
13.48
13.37
12.65
11.44
9.85
7.97
5.86
3.56
1.09
-1.49
-4.09
-6.58
-8.84
-10.85
-12.59
-14.07
-15.27
-16.18
-16.86
-17.45
-18.16
-19.29
-21.07
-23.51
-26.38
-29.11
-30.97
-31.22
-29.33
-25.09
-18.78
-11.04
-2.78
5.09
11.83
16.99
20.4
22.14
22.43
21.57
19.9
17.78
15.54
13.45
11.76
10.65
10.2
10.41
11.16
12.29
13.57
14.81
15.84
16.55
16.81
16.5
15.54
13.91
11.74
9.23
6.62
4.06
1.61
-0.81
-3.24
-5.62
-7.83
-9.73
-11.24
-12.45
-13.53
-14.7
-16.18
-18.06
-20.35
-22.9
-25.38
-27.3
-28.04
-27.07
-24.04
-19.01
-12.41
-4.99
2.4
9.02
14.34
18.13
20.36
21.21
20.86
19.53
17.43
14.78
11.9
9.17
7.02
5.78
5.62
6.48
8.12
10.19
12.36
14.34
15.96
17.06
17.58
17.43
16.6
15.13
13.07
10.54
7.69
4.71
1.73
-1.13
-3.84
-6.38
-8.74
-10.86
-12.67
-14.18
-15.49
-16.85
-18.54
-20.64
-22.98
-25.02
-26.02
-25.27
-22.35
-17.29
-10.59
-3.04
4.43
10.96
16.0
19.25
20.7
20.48
18.83
15.99
12.27
8.02
3.6
-0.59
-4.24
-7.13
-9.18
-10.35
-10.7
-10.28
-9.17
-7.46
-5.31
-2.97
-0.74
1.05
2.14
2.4
1.86
0.69
-0.85
-2.5
-4.07
-5.46
-6.67
-7.75
-8.81
-9.98
-11.42
-13.2
-15.23
-17.2
-18.58
-18.74
-17.17
-13.66
-8.37
-1.88
5.03
11.54
17.01
21.05
23.52
24.45
23.94
22.18
19.42
16.03
12.49
9.34
7.02
5.77
5.6
6.19
7.14
8.07
8.73
9.08
9.2
9.16
8.94
8.41
7.33
5.57
3.1
0.11
-3.06
-6.08
-8.68
-10.8
-12.53
-14.08
-15.68
-17.57
-19.85
-22.46
-25.1
-27.2
-28.08
-27.06
-23.78
-18.33
-11.28
-3.58
3.79
10.01
14.61
17.51
18.89
19.0
18.08
16.29
13.75
10.65
7.31
4.18
1.79
0.58
0.74
2.17
4.47
7.11
9.62
11.7
13.23
14.22
14.71
14.61
13.82
12.19
9.69
6.49
2.96
-0.4
-3.15
-5.05
-6.19
-6.92
-7.72
-8.97
-10.82
-13.19
-15.84
-18.43
-20.55
-21.73
-21.48
-19.4
-15.33
-9.52
-2.64
4.41
10.77
15.85
19.43
21.62
22.65
22.76
22.06
20.64
18.62
16.27
13.99
12.18
11.12
10.88
11.27
12.02
12.83
13.54
14.1
14.49
14.68
14.52
13.84
12.54
10.67
8.42
6.06
3.79
1.72
-0.13
-1.8
-3.31
-4.69
-5.98
-7.2
-8.36
-9.46
-10.44
-11.25
-11.99
-12.89
-14.3
-16.45
-19.33
-22.52
-25.32
-26.9
-26.57
-24.07
-19.55
-13.57
-6.91
-0.35
5.46
10.18
13.71
16.13
17.52
17.93
17.36
15.88
13.73
11.36
9.27
7.86
7.25
7.32
7.79
8.42
9.06
9.71
10.34
10.85
11.06
10.75
9.82
8.29
6.31
4.11
1.93
-0.06
-1.85
-3.5
-5.16
-6.95
-8.87
-10.79
-12.49
-13.8
-14.71
-15.33
-15.89
-16.59
-17.61
-19.04
-20.93
-23.17
-25.51
-27.42
-28.22
-27.25
-24.14
-18.95
-12.21
-4.74
2.56
8.96
13.97
17.36
19.13
19.43
18.56
16.87
14.78
12.67
10.9
9.74
9.34
9.68
10.55
11.64
12.6
13.18
13.32
13.16
12.92
12.77
12.7
12.51
11.87
10.51
8.37
5.65
2.74
0.03
-2.2
-3.9
-5.14
-6.1
-6.9
-7.61
-8.28
-8.95
-9.72
-10.7
-11.91
-13.3
-14.74
-16.13
-17.46
-18.85
-20.47
-22.44
-24.64
-26.72
-28.1
-28.17
-26.48
-22.9
-17.65
-11.27
-4.45
2.12
7.86
12.4
15.61
17.5
18.2
17.91
16.81
15.14
13.14
11.12
9.37
8.18
7.69
7.93
8.76
9.96
11.26
12.39
13.12
13.34
13.0
12.15
10.89
9.37
7.7
5.99
4.35
2.92
1.83
1.12
0.75
0.54
0.3
-0.14
-0.86
-1.82
-2.9
-3.98
-4.94
-5.71
-6.27
-6.7
-7.18
-7.95
-9.27
-11.29
-13.97
-16.99
-19.82
-21.77
-22.25
-20.87
-17.61
