0
14.88
16.72
19.56
22.9
26.2
29.1
31.41
33.08
34.05
34.21
33.37
31.4
28.41
24.75
20.93
17.42
14.45
11.95
9.58
6.93
3.69
-0.18
-4.55
-9.08
-13.45
-17.39
-20.77
-23.64
-26.18
-28.73
-31.73
-35.68
-40.96
-47.6
-55.05
-62.14
-67.24
-68.75
-65.56
-57.51
-45.31
-30.4
-14.47
0.93
14.58
25.63
33.62
38.37
40.06
39.2
36.51
32.85
29.02
25.72
23.43
22.45
22.8
24.32
26.65
29.39
32.17
34.74
36.93
38.64
39.72
40.06
39.59
38.3
36.27
33.63
30.52
27.02
23.2
19.09
14.76
10.33
5.97
1.86
-1.85
-5.27
-8.63
-12.31
-16.6
-21.54
-26.88
-32.16
-36.97
-41.13
-44.84
-48.56
-52.91
-58.41
-65.27
-73.19
-81.24
-87.95
-91.63
-90.8
-84.71
-73.6
-58.6
-41.41
-23.78
-7.19
7.3
19.08
27.83
33.52
36.39
36.95
35.91
34.05
32.08
30.52
29.68
29.67
30.47
31.99
34.19
36.98
40.3
43.96
47.61
50.81
53.07
54.04
53.6
51.9
49.25
46.08
42.73
39.4
36.15
32.87
29.34
25.34
20.77
15.76
10.64
5.81
1.59
-1.99
-5.22
-8.52
-12.3
-16.71
-21.59
-26.57
-31.23
-35.3
-38.84
-42.3
-46.35
-51.67
-58.62
-67.01
-75.93
-83.85
-89.01
-89.82
-85.31
-75.41
-60.95
-43.53
-25.15
-7.73
7.24
18.9
27.08
32.05
34.31
34.35
32.66
29.78
26.42
23.36
21.29
20.55
21.06
22.44
24.2
26.0
27.76
29.54
31.37
33.18
34.73
35.66
35.66
34.5
32.17
28.82
24.8
20.55
16.5
12.91
9.75
6.83
3.76
0.21
-3.96
-8.68
-13.66
-18.49
-22.81
-26.43
-29.43
-32.16
-35.15
-38.96
-44.02
-50.38
-57.54
-64.45
-69.62
-71.45
-68.73
-61.04
-48.95
-33.88
-17.67
-2.03
11.78
23.06
31.58
37.31
40.28
40.63
38.65
34.97
30.41
25.98
22.56
20.73
20.69
22.23
24.88
28.08
31.33
34.3
36.81
38.78
40.11
40.68
40.34
38.98
36.63
33.39
29.47
25.12
20.58
16.04
11.65
7.51
3.54
-0.42
-4.6
-9.19
-14.17
-19.41
-24.63
-29.56
-34.05
-38.13
-42.05
-46.18
-51.01
-57.04
-64.56
-73.36
-82.54
-90.51
-95.36
-95.42
-89.82
-78.82
-63.69
-46.29
-28.51
-11.88
2.61
14.52
23.76
30.46
34.82
37.14
37.76
37.13
35.78
34.31
33.26
33.04
33.84
35.62
38.22
41.37
44.86
48.41
51.71
54.36
55.97
56.22
55.04
52.62
49.36
45.81
42.4
39.39
36.7
34.03
30.99
27.31
23.01
18.34
13.7
9.37
5.4
1.62
-2.29
-6.58
-11.32
-16.36
-21.44
-26.22
-30.52
-34.31
-37.84
-41.63
-46.35
-52.59
-60.51
-69.6
-78.58
-85.63
-88.83
-86.76
-78.89
-65.82
-49.1
-30.76
-12.82
3.21
16.46
26.69
33.97
38.52
40.53
40.31
38.43
35.66
32.93
31.03
30.36
30.86
32.15
33.78
35.46
37.15
38.93
40.91
42.95
44.7
45.71
45.59
44.16
41.49
37.89
33.72
29.32
24.91
20.61
16.46
12.48
8.63
4.82
0.91
-3.23
-7.65
-12.22
-16.71
-20.81
-24.36
-27.31
-29.86
-32.37
-35.29
-39.06
-43.98
-50.08
-56.92
-63.54
-68.51
-70.27
-67.55
-59.87
-47.75
-32.59
-16.24
-0.49
13.33
24.53
32.86
38.34
41.05
41.15
39.0
35.28
30.93
26.98
24.24
23.08
23.44
24.98
27.26
29.93
32.73
35.4
37.67
39.21
39.79
39.33
37.89
35.61
32.65
29.09
25.03
20.59
16.02
11.6
7.52
3.85
0.44
-2.98
-6.72
-10.99
-15.8
-20.89
-25.85
-30.25
-33.85
-36.8
-39.58
-42.86
-47.35
-53.5
-61.32
-70.31
-79.36
-86.97
-91.43
-91.24
-85.63
-74.71
-59.6
-42.04
-23.97
-7.03
7.64
19.45
28.26
34.17
37.51
38.7
38.27
36.8
34.89
33.09
31.87
31.52
32.16
33.7
35.95
38.63
41.5
44.35
46.95
49.05
50.4
50.79
50.13
48.48
46.01
42.97
39.56
35.97
32.31
28.63
24.91
21.11
17.2
13.21
9.28
5.57
2.18
-0.97
-4.12
-7.6
-11.64
-16.24
-21.18
-26.09
-30.66
-34.74
-38.45
-42.12
-46.25
-51.38
-57.91
-65.88
-74.75
-83.3
-89.74
-92.19
-89.22
-80.35
-66.24
-48.55
-29.45
-11.02
5.14
18.16
27.84
34.38
38.18
39.67
39.31
37.59
35.09
32.44
30.2
28.78
28.38
29.03
30.59
32.92
35.88
39.28
42.88
46.25
48.91
50.38
50.36
48.87
46.15
42.67
38.86
35.02
31.22
27.36
23.27
18.87
14.16
9.32
4.57
0.09
-4.05
-7.92
-11.71
-15.6
-19.68
-23.95
-28.23
-32.32
-36.09
-39.53
-42.83
-46.4
-50.75
-56.29
-63.13
-70.71
-77.84
-82.81
-83.82
-79.67
-70.11
-55.99
-39.06
-21.37
-4.74
9.58
20.97
29.26
34.54
36.99
36.89
34.63
30.8
26.17
21.59
17.89
15.67
15.22
16.41
18.82
21.85
25.01
27.93
30.52
32.77
34.63
35.92
36.29
35.37
32.94
29.1
24.28
19.09
14.14
9.8
6.08
2.67
-0.97
-5.25
-10.33
-16.01
-21.87
-27.4
-32.24
-36.27
-39.64
-42.68
-45.93
-49.98
-55.35
-62.29
-70.49
-78.92
-85.92
-89.58
-88.22
-81.06
-68.43
-51.72
-33.03
-14.55
2.0
15.6
25.98
33.27
37.81
39.88
39.78
37.91
34.88
31.5
28.56
26.69
26.13
26.85
28.6
31.1
34.13
37.51
41.01
44.31
46.98
48.62
48.93
47.88
45.69
42.75
39.51
36.24
32.99
29.6
25.81
21.46
16.62
11.63
6.78
2.31
-1.83
-5.85
-9.99
-14.38
-18.98
-23.64
-28.17
-32.48
-36.54
-40.43
-44.32
-48.57
-53.66
-60.09
-68.08
-77.23
-86.34
-93.53
-96.66
-94.03
-84.95
-70.05
-51.06
-30.36
-10.26
7.47
21.87
32.73
40.25
44.87
46.98
46.99
45.36
42.64
39.53
36.7
34.72
33.93
34.39
35.92
38.23
41.02
44.04
47.06
49.84
52.09
53.46
53.66
52.58
50.32
47.25
43.81
40.4
37.18
34.03
30.64
26.69
22.01
16.7
11.12
5.71
0.85
-3.35
-7.05
-10.62
-14.4
-18.56
-23.08
-27.69
-32.18
-36.38
-40.32
-44.18
-48.31
-53.17
-59.16
-66.46
-74.72
-82.85
-89.18
-91.77
-89.06
-80.43
-66.41
-48.6
-29.18
-10.26
6.44
19.89
29.64
35.69
38.3
37.97
35.34
31.25
26.64
22.43
19.35
17.83
17.9
19.35
21.76
24.78
28.07
31.4
34.52
37.16
39.09
40.14
40.21
39.29
37.39
34.5
30.69
26.15
21.23
16.38
11.97
8.12
4.67
1.22
-2.64
-7.15
-12.27
-17.7
-23.03
-27.92
-32.22
-35.99
-39.5
-43.17
-47.45
-52.78
-59.46
-67.45
-76.2
-84.5
-90.62
-92.68
-89.17
-79.55
-64.53
-45.83
-25.76
-6.51
10.31
23.88
33.98
40.74
44.42
45.3
43.82
40.58
36.4
32.2
28.82
26.81
26.39
27.48
29.77
32.88
36.46
40.21
43.87
47.16
49.78
51.42
51.85
50.98
48.9
45.9
42.39
38.78
35.27
31.79
28.1
23.87
18.96
13.52
8.03
3.03
-1.13
-4.45
-7.36
-10.45
-14.26
-19.03
-24.6
-30.56
-36.37
-41.58
-45.98
-49.67
-53.1
-57.0
-62.15
-69.06
-77.73
-87.3
-96.1
-101.93
-102.66
-96.86
-84.33
-66.18
-44.58
-22.11
-1.07
16.96
31.25
41.74
48.7
52.51
53.55
52.29
49.37
45.58
41.74
38.54
36.45
35.65
36.16
37.85
40.53
43.91
47.64
51.33
54.56
56.93
58.11
57.9
56.25
53.38
49.63
45.46
41.23
37.05
32.86
28.43
23.63
18.5
13.23
8.08
3.21
-1.37
-5.83
-10.36
-15.1
-20.09
-25.15
-30.06
-34.53
-38.4
-41.72
-44.83
-48.28
-52.77
-58.9
-66.9
-76.36
-86.1
-94.28
-98.78
-97.78
-90.34
-76.79
-58.61
-38.08
-17.59
0.94
16.28
27.95
35.91
40.37
41.66
40.21
36.64
31.79
26.63
22.15
19.13
17.99
18.71
20.91
24.11
27.79
31.65
35.47
39.04
42.04
44.08
44.76
43.84
41.3
37.36
32.4
26.87
21.21
15.85
11.02
6.76
2.86
-1.07
-5.47
-10.61
-16.5
-22.84
-29.13
-34.86
-39.72
-43.67
-47.01
-50.36
-54.48
-60.07
-67.51
-76.56
-86.22
-94.77
-100.11
-100.27
-94.05
-81.39
-63.47
-42.35
-20.47
-0.02
17.49
31.28
41.21
47.48
50.48
50.67
48.63
45.08
40.85
36.78
33.58
31.78
31.58
32.94
35.58
39.11
43.13
47.23
51.07
54.29
56.49
57.3
56.47
53.98
50.16
45.55
40.79
36.31
32.21
28.29
24.2
19.67
14.68
9.49
4.52
0.09
-3.71
-7.1
-10.56
-14.57
-19.4
-24.99
-30.94
-36.64
-41.58
-45.62
-49.05
-52.54
-56.96
-63.09
-71.32
-81.38
-92.21
-101.91
-108.13
-108.58
-101.81
-87.69
-67.61
-44.06
-19.91
2.27
20.82
34.99
44.8
50.69
53.27
53.2
51.15
47.79
43.87
40.13
37.23
35.66
35.62
37.03
39.58
42.87
46.56
50.4
54.13
57.4
59.77
60.79
60.19
58.0
54.58
50.4
45.93
41.43
36.97
32.47
27.83
23.01
18.14
13.39
9.0
5.01
1.27
-2.62
-7.12
-12.5
-18.67
-25.11
-31.09
-36.01
-39.72
-42.61
-45.52
-49.49
-55.39
-63.56
-73.6
-84.27
-93.59
-99.27
-99.27
-92.42
-78.85
-60.01
-38.25
-16.25
3.7
20.08
32.27
40.37
44.83
46.23
45.13
42.02
37.54
32.48
27.8
24.41
22.87
23.33
25.43
28.57
32.14
35.67
38.94
41.84
44.27
46.0
46.73
46.13
43.98
40.26
35.26
29.5
23.62
18.17
13.4
9.2
5.2
0.93
-3.92
-9.42
-15.42
-21.62
-27.68
-33.31
-38.31
-42.66
-46.62
-50.75
-55.76
-62.31
-70.62
-80.12
-89.41
-96.42
-98.99
-95.42
-85.09
-68.7
-48.04
-25.55
-3.72
15.51
30.97
42.22
49.38
52.82
53.13
50.98
47.2
42.69
38.31
34.81
32.7
32.23
33.41
36.06
39.83
44.27
48.82
52.93
56.08
57.87
58.11
56.86
54.32
50.89
46.96
42.85
38.68
34.41
29.88
24.93
19.54
13.9
8.31
3.1
-1.55
-5.68
-9.59
-13.65
-18.24
-23.49
-29.28
-35.19
-40.77
-45.7
-49.98
-54.01
-58.51
-64.27
-71.85
-81.28
-91.78
-101.73
-108.88
-110.89
-106.07
-93.9
-75.37
-52.67
-28.6
-5.76
13.94
29.54
40.84
48.07
51.69
52.24
50.45
47.2
43.5
40.28
38.23
37.7
38.58
40.59
43.26
46.26
49.44
52.76
56.17
59.5
62.36
64.25
64.76
63.73
61.31
57.86
53.83
49.54
45.16
40.68
36.03
31.13
25.99
20.66
15.32
10.2
5.5
1.31
-2.52
-6.3
-10.47
-15.31
-20.86
-26.84
-32.74
-38.05
-42.52
-46.27
-49.81
-53.94
-59.46
-66.91
-76.23
-86.59
-96.33
-103.24
-105.07
-100.22
-88.31
-70.37
-48.64
-25.93
-4.85
12.77
26.06
35.02
40.1
41.9
41.0
37.96
33.44
28.22
23.18
19.15
16.78
16.38
17.94
21.15
25.51
30.41
35.27
39.63
43.15
45.63
46.91
46.89
45.52
42.83
39.0
34.4
29.44
24.56
20.07
16.07
12.42
8.82
4.9
0.35
-4.9
-10.67
-16.55
-22.06
-26.82
-30.76
-34.12
-37.4
-41.16
-45.94
-52.1
-59.69
-68.28
-76.81
-83.61
-86.71
-84.39
-75.77
-61.27
-42.52
-21.84
-1.66
16.11
30.33
40.57
46.86
49.5
48.98
45.93
41.17
35.67
30.4
26.2
23.61
22.83
23.74
25.99
29.15
32.79
36.53
40.06
43.0
44.99
45.71
45.0
42.97
39.95
36.39
32.6
28.73
24.71
20.39
15.72
10.79
5.85
1.2
-2.94
-6.58
-9.9
-13.25
-16.99
-21.38
-26.38
-31.73
-37.02
-41.8
-45.88
-49.32
-52.58
-56.33
-61.31
-68.03
-76.48
-85.84
-94.46
-100.17
-100.76
-94.78
-82.03
-63.71
-42.12
-19.94
0.46
17.52
30.55
39.58
44.99
47.27
46.95
44.62
40.98
36.85
33.04
30.23
28.83
28.93
30.36
32.82
35.99
39.62
43.46
47.25
50.66
53.27
54.69
54.62
52.98
49.93
45.92
41.5
37.23
33.43
30.11
26.96
23.58
19.65
15.13
10.29
5.6
1.51
-1.81
-4.5
-7.0
-9.8
-13.25
-17.46
-22.21
-27.11
-31.78
-35.94
-39.61
-43.08
-46.86
-51.62
-57.87
-65.79
-74.91
-84.03
-91.24
-94.41
-91.78
-82.58
-67.36
-47.89
-26.67
-6.21
11.55
25.56
35.55
41.8
44.81
45.13
43.31
39.95
35.69
31.19
27.07
23.84
21.86
21.31
22.22
24.47
27.79
31.83
36.14
40.2
43.46
45.4
45.66
44.18
41.18
37.18
32.79
28.47
24.44
20.63
16.82
12.82
8.61
4.35
0.21
-3.68
-7.34
-10.92
-14.58
-18.38
-22.23
-25.9
-29.18
-31.92
-34.15
-36.09
-38.17
-40.93
-44.94
-50.52
-57.54
-65.15
-71.81
-75.65
-74.96
-68.81
-57.39
-41.97
-24.46
-6.94
8.87
21.87
31.54
37.81
40.86
40.97
38.56
34.17
28.56
22.68
17.54
13.97
12.44
12.95
15.11
18.31
21.95
25.57
28.82
31.42
33.11
33.66
33.01
31.28
28.76
25.75
22.45
18.91
15.1
11.04
6.88
2.85
-0.86
-4.22
-7.41
-10.78
-14.67
-19.21
-24.3
-29.56
-34.51
-38.76
-42.22
-45.08
-47.82
-51.07
-55.42
-61.27
-68.64
-76.98
-85.12
-91.38
-93.9
-91.21
-82.68
-68.81
-51.12
-31.67
-12.6
4.43
18.37
28.79
35.72
39.49
40.56
39.5
36.99
33.7
30.37
27.6
25.86
25.39
26.15
27.97
30.61
33.84
37.44
41.17
44.71
47.6
49.44
49.94
49.06
46.97
43.99
40.43
36.58
32.62
28.63
24.63
20.56
16.37
12.04
7.64
3.35
-0.65
-4.27
-7.6
-10.87
-14.34
-18.2
-22.5
-27.07
-31.63
-35.89
-39.69
-43.15
-46.76
-51.23
-57.27
-65.11
-74.24
-83.25
-90.15
-92.87
-89.97
-81.05
-66.85
-49.03
-29.65
-10.71
6.26
20.26
30.89
38.15
42.27
43.71
42.99
40.74
37.63
34.32
31.43
29.47
28.76
29.42
31.41
34.52
38.41
42.7
46.98
50.84
53.9
55.81
56.27
55.18
52.67
49.13
45.15
41.31
37.94
35.04
32.3
29.24
25.52
21.05
16.07
11.02
6.39
2.49
-0.61
-3.16
-5.58
-8.33
-11.73
-15.85
-20.47
-25.25
-29.83
-34.05
-37.96
-41.9
-46.35
-51.78
-58.5
-66.38
-74.69
-82.11
-86.92
-87.5
-82.74
-72.53
-57.81
-40.32
-22.18
-5.3
8.96
19.9
27.42
31.75
33.3
32.49
29.76
25.68
20.98
16.52
13.18
11.64
12.18
14.68
18.6
23.24
27.88
31.99
35.2
37.43
38.72
39.17
38.84
37.72
35.74
32.83
29.05
24.66
20.02
15.49
11.28
7.36
3.5
-0.54
-4.93
-9.65
-14.47
-19.07
-23.22
-26.78
-29.84
-32.7
-35.84
-39.8
-45.06
-51.83
-59.82
-68.14
-75.39
-79.85
-80.0
-74.94
-64.7
-50.27
-33.32
-15.8
0.54
14.47
25.31
32.94
37.55
39.53
39.37
37.57
34.73
31.45
28.36
26.0
24.74
24.78
26.06
28.38
31.39
34.72
37.97
40.75
42.76
43.75
43.68
42.62
40.76
38.27
35.31
31.95
28.25
24.3
20.2
16.08
12.03
8.11
4.29
0.55
-3.19
-7.02
-11.05
-15.37
-20.02
-24.89
-29.77
-34.39
-38.58
-42.39
-46.14
-50.43
-55.96
-63.16
-71.91
-81.32
-89.78
-95.3
-96.1
-91.11
-80.33
-64.83
-46.43
-27.24
-9.13
6.51
19.0
28.21
34.41
38.01
39.44
39.05
37.25
34.55
31.64
29.27
28.07
28.37
30.15
33.11
36.83
40.9
45.02
48.9
52.22
54.6
55.65
55.16
53.17
50.08
46.48
42.99
39.95
37.35
34.8
31.79
27.95
23.25
17.99
12.68
7.8
3.58
-0.01
-3.25
-6.5
-10.07
-14.11
-18.64
-23.45
-28.32
-33.02
-37.52
-42.07
-47.12
-53.21
-60.67
-69.25
-78.04
-85.45
-89.63
-88.93
-82.49
-70.56
-54.47
-36.22
-17.93
-1.28
12.7
23.6
31.44
36.41
38.75
38.78
36.95
33.86
30.23
26.77
24.11
22.68
22.74
24.3
27.1
30.71
34.57
38.17
41.16
43.28
44.46
44.63
43.75
41.84
38.98
35.35
31.23
26.91
22.62
18.54
14.74
11.17
7.7
4.17
0.43
-3.56
-7.75
-11.99
-16.1
-19.92
-23.4
-26.57
-29.59
-32.78
-36.52
-41.27
-47.27
-54.4
-61.96
-68.75
-73.19
-73.79
-69.57
-60.41
-47.09
-31.12
-14.31
1.69
15.68
27.01
35.49
41.12
43.95
44.13
41.96
38.05
33.29
28.71
25.2
23.32
23.23
24.71
27.36
30.72
34.37
37.97
41.14
43.51
44.76
44.66
43.21
40.63
37.29
33.62
29.85
26.08
22.22
18.15
13.83
9.35
4.89
0.6
-3.41
-7.2
-10.9
-14.65
-18.6
-22.78
-27.15
-31.55
-35.83
-39.91
-43.88
-48.12
-53.13
-59.45
-67.24
-76.07
-84.84
-91.88
-95.4
-93.94
-86.84
-74.46
-58.07
-39.56
-20.92
-3.86
10.48
21.58
29.47
34.51
37.19
38.03
37.53
36.14
34.34
32.58
31.27
30.71
31.04
32.3
34.39
37.16
40.42
43.94
47.42
50.44
52.55
53.38
52.76
50.8
47.83
44.33
40.71
37.21
33.83
30.43
26.83
22.89
18.67
14.29
10.03
6.06
2.5
-0.72
-3.79
-6.98
-10.51
-14.48
-18.84
-23.35
-27.82
-32.12
-36.29
-40.59
-45.44
-51.25
-58.23
-66.19
-74.3
-81.16
-85.05
-84.4
-78.32
-66.92
-51.34
-33.39
-15.06
1.95
16.53
28.11
36.54
41.89
44.39
44.43
42.61
39.71
36.55
33.86
32.13
31.58
32.17
33.75
36.12
39.05
42.26
45.44
48.21
50.23
51.23
51.06
49.78
47.58
44.74
41.58
38.36
35.22
32.07
28.75
25.04
20.82
16.19
11.42
6.88
2.87
-0.52
-3.42
-6.2
-9.24
-12.87
-17.13
-21.87
-26.68
-31.18
-35.09
-38.41
-41.43
-44.68
-48.78
-54.17
-60.9
-68.42
-75.52
-80.51
-81.73
-78.0
-69.11
-55.97
-40.25
-23.92
-8.65
4.51
15.07
22.93
28.1
30.61
30.66
28.65
25.3
21.46
18.0
15.52
14.39
14.64
16.11
18.49
21.4
24.44
27.26
29.63
31.43
32.6
33.12
32.94
32.02
30.31
27.8
24.58
20.85
16.85
12.85
9.04
5.45
1.95
-1.66
-5.59
-9.9
-14.51
-19.18
-23.63
-27.69
-31.25
-34.38
-37.3
-40.43
-44.34
-49.56
-56.37
-64.46
-72.83
-79.86
-83.74
-82.96
-76.78
-65.49
-50.33
-33.11
-15.8
-0.03
13.12
23.16
30.1
34.22
35.92
35.65
33.91
31.28
28.36
25.7
23.82
23.04
23.53
25.27
28.06
31.54
35.28
38.86
41.9
44.13
45.28
45.23
43.91
41.51
38.42
35.13
32.03
29.24
26.55
23.56
19.99
15.78
11.21
6.75
2.76
-0.61
-3.51
-6.28
-9.36
-13.0
-17.27
-21.97
-26.75
-31.24
-35.26
-38.87
-42.42
-46.38
-51.22
-57.23
-64.31
-71.88
-78.77
-83.42
-84.23
-80.03
-70.56
-56.6
-39.81
-22.2
-5.58
8.72
20.03
28.19
33.34
35.83
36.18
34.97
32.86
30.47
28.3
26.77
26.18
26.66
28.21
30.64
33.64
36.82
39.86
42.53
44.72
46.3
47.17
47.22
46.41
44.8
42.57
39.96
37.2
34.42
31.56
28.44
24.86
20.73
16.18
11.58
7.35
3.8
0.93
-1.62
-4.35
-7.7
-11.84
-16.58
-21.49
-26.14
-30.24
-33.77
-36.98
-40.36
-44.5
-49.89
-56.67
-64.41
-72.02
-77.94
-80.48
-78.39
-71.22
-59.47
-44.47
-28.03
-11.97
2.27
13.82
22.32
27.81
30.58
30.99
29.49
26.71
23.37
20.28
18.06
17.1
17.44
18.84
20.97
23.52
26.23
28.92
31.39
33.44
34.9
35.64
35.62
34.86
33.4
31.34
28.72
25.61
22.07
18.19
14.12
10.07
6.3
2.98
0.09
-2.61
-5.45
-8.74
-12.58
-16.8
-21.06
-24.99
-28.37
-31.2
-33.72
-36.33
-39.59
-43.96
-49.63
-56.26
-62.85
-67.87
-69.66
-67.0
-59.49
-47.74
-33.14
-17.41
-2.16
11.4
22.51
30.81
36.18
38.73
38.71
36.6
32.99
28.63
24.35
20.9
18.88
18.55
19.82
22.27
25.36
28.54
31.44
33.83
35.6
36.66
36.96
36.43
35.09
33.05
30.43
27.38
24.03
20.43
16.61
12.56
8.37
4.18
0.23
-3.28
-6.26
-8.86
-11.45
-14.43
-18.07
-22.37
-27.02
-31.55
-35.59
-38.98
-41.92
-44.89
-48.52
-53.41
-59.76
-67.28
-74.99
-81.39
-84.79
-83.78
-77.7
-66.8
-52.21
-35.6
-18.81
-3.38
9.6
19.59
26.5
30.56
32.17
31.77
29.91
27.17
24.25
21.79
20.35
20.17
21.25
23.28
25.94
28.94
32.11
35.33
38.45
41.22
43.28
44.29
44.04
42.54
40.06
36.98
33.73
30.54
27.43
24.23
20.72
16.82
12.66
8.52
4.69
1.29
-1.79
-4.82
-8.1
-11.8
-15.88
-20.16
-24.37
-28.33
-31.93
-35.27
-38.6
-42.29
-46.76
-52.38
-59.24
-66.99
-74.72
-81.07
-84.39
-83.31
-77.12
-66.06
-51.28
-34.52
-17.61
-2.07
11.12
21.49
28.95
33.62
35.82
36.03
34.92
33.2
31.54
30.34
29.79
29.91
30.67
32.07
34.08
36.66
39.66
42.76
45.61
47.83
49.13
49.32
48.35
46.36
43.58
40.35
37.02
33.79
30.68
27.58
24.28
20.66
16.76
12.78
8.97
5.5
2.36
-0.64
-3.79
-7.31
-11.23
-15.39
-19.49
-23.26
-26.61
-29.67
-32.78
-36.34
-40.76
-46.31
-53.04
-60.6
-68.14
-74.35
-77.66
-76.69
-70.72
-60.04
-45.94
-30.3
-15.07
-1.69
9.15
17.37
23.2
26.85
28.46
28.14
26.19
23.17
19.9
17.22
15.78
15.85
17.28
19.71
22.69
25.8
28.8
31.54
33.88
35.68
36.77
36.93
36.07
34.19
31.45
28.1
24.37
20.49
16.61
12.85
9.32
6.1
3.14
0.26
-2.81
-6.29
-10.23
-14.46
-18.6
-22.32
-25.47
-28.2
-30.98
-34.43
-39.08
-45.14
-52.41
-60.17
-67.29
-72.36
-74.02
-71.27
-63.82
-52.22
-37.8
-22.3
-7.43
5.57
16.09
24.04
29.59
32.97
34.3
33.83
31.94
29.33
26.81
25.13
24.7
25.54
27.36
29.77
32.45
35.23
38.08
40.87
43.38
45.23
46.01
45.48
43.63
40.8
37.51
34.23
31.22
28.46
25.68
22.58
19.02
15.09
11.06
7.26
3.92
1.06
-1.47
-4.0
-6.86
-10.29
-14.36
-18.94
-23.72
-28.36
-32.64
-36.52
-40.27
-44.37
-49.39
-55.72
-63.35
-71.62
-79.24
-84.53
-85.83
-82.02
-72.93
-59.39
-43.04
-25.89
-9.76
4.02
14.8
22.5
27.43
30.09
30.99
30.62
29.43
27.85
26.34
25.31
25.1
25.8
27.37
29.6
32.27
35.26
38.46
41.74
44.8
47.19
48.45
48.27
46.68
44.01
40.81
37.58
34.66
32.08
29.68
27.15
24.21
20.7
16.67
12.39
8.27
4.67
1.74
-0.67
-2.91
-5.44
-8.53
-12.18
-16.14
-20.1
-23.79
-27.15
-30.35
-33.75
-37.81
-42.97
-49.47
-57.17
-65.35
-72.74
-77.77
-78.96
-75.4
-67.0
-54.58
-39.61
-23.81
-8.75
4.43
15.09
23.06
28.47
31.61
32.86
32.61
31.3
29.44
27.51
26.0
25.27
25.51
26.73
28.85
31.65
34.88
38.22
41.31
43.77
45.27
45.56
44.61
42.57
39.68
36.26
32.58
28.81
25.07
21.42
17.88
14.48
11.18
7.92
4.6
1.15
-2.49
-6.33
-10.32
-14.37
-18.36
-22.08
-25.36
-28.11
-30.39
-32.5
-34.98
-38.39
-43.12
-49.12
-55.76
-61.94
-66.26
-67.45
-64.61
-57.55
-46.77
-33.44
-19.07
-5.23
6.89
16.52
23.44
27.73
29.65
29.54
27.79
24.91
21.54
18.38
16.02
14.83
14.9
16.13
18.33
21.29
24.77
28.42
31.84
34.55
36.21
36.67
36.0
34.38
32.09
29.3
26.14
22.64
18.82
14.74
10.56
6.47
2.71
-0.68
-3.78
-6.88
-10.26
-14.1
-18.35
-22.75
-26.96
-30.72
-33.97
-36.88
-39.77
-43.07
-47.2
-52.47
-58.91
-66.13
-73.14
-78.52
-80.73
-78.57
-71.59
-60.29
-45.99
-30.42
-15.26
-1.79
9.27
17.71
23.65
27.34
29.12
29.34
28.44
26.9
25.24
23.9
23.17
23.21
24.02
25.52
27.62
30.22
33.17
36.25
39.13
41.43
42.83
43.09
42.18
40.22
37.49
34.33
31.04
27.82
24.69
21.51
18.07
14.24
10.08
5.84
1.89
-1.5
-4.28
-6.7
-9.17
-12.11
-15.68
-19.81
-24.18
-28.43
-32.34
-35.92
-39.45
-43.34
-48.07
-53.94
-60.95
-68.58
-75.78
-81.06
-82.86
-79.99
-72.06
-59.69
-44.34
-27.89
-12.12
1.68
12.86
21.24
26.97
30.26
31.42
30.9
29.29
27.36
25.79
25.07
25.34
26.46
28.13
30.13
32.35
34.89
37.84
41.16
44.55
47.52
49.5
50.08
49.13
46.9
43.82
40.46
37.21
34.26
31.55
28.84
25.85
22.43
18.58
14.51
10.53
6.86
3.57
0.49
-2.66
-6.16
-10.1
-14.37
-18.69
-22.78
-26.48
-29.84
-33.05
-36.45
-40.46
-45.47
-51.75
-59.17
-67.12
-74.36
-79.29
-80.34
-76.5
-67.69
-54.84
-39.59
-23.81
-9.14
3.32
13.11
20.17
24.7
26.99
27.34
26.12
23.84
21.11
18.57
16.75
15.92
16.15
17.35
19.41
22.21
25.64
29.49
33.38
36.87
39.49
40.94
41.1
40.06
38.0
35.15
31.75
28.02
24.16
20.28
16.5
12.9
9.57
6.6
3.99
1.62
-0.75
-3.41
-6.55
-10.12
-13.88
-17.49
-20.71
-23.46
-25.94
-28.51
-31.73
-36.12
-42.02
-49.33
-57.34
-64.73
-69.9
-71.35
-68.19
-60.44
-48.94
-35.1
-20.49
-6.51
5.83
15.9
23.45
28.48
31.2
31.9
30.97
28.85
26.06
23.18
20.74
19.21
18.88
19.8
21.85
24.75
28.13
31.57
34.67
37.1
38.63
39.18
38.77
37.51
35.55
33.09
30.35
27.54
24.75
21.94
18.94
15.61
11.88
7.94
4.04
0.41
-2.94
-6.24
-9.75
-13.62
-17.75
-21.88
-25.71
-29.1
-32.12
-35.04
-38.31
-42.39
-47.69
-54.42
-62.41
-70.96
-78.79
-84.31
-86.0
-82.86
-74.71
-62.31
-47.08
-30.75
-14.94
-0.87
10.74
19.65
25.91
29.72
31.36
31.19
29.74
27.66
25.67
24.39
24.16
25.02
26.77
29.16
31.99
35.13
38.45
41.76
44.71
46.91
48.03
47.9
46.57
44.27
41.41
38.35
35.4
32.61
29.87
26.93
23.57
19.72
15.52
11.25
7.2
3.5
0.1
-3.22
-6.67
-10.38
-14.34
-18.39
-22.34
-26.03
-29.51
-32.99
-36.83
-41.42
-47.12
-54.06
-62.04
-70.39
-77.97
-83.28
-84.84
-81.59
-73.33
-60.81
-45.56
-29.41
-14.0
-0.42
10.83
19.67
26.14
30.36
32.54
33.0
32.31
31.14
30.08
29.55
29.71
30.56
32.07
34.17
36.84
39.99
43.39
46.71
49.54
51.47
52.26
51.82
50.33
48.07
45.41
42.59
39.77
36.93
33.98
30.79
27.23
23.27
19.01
14.63
10.38
6.51
3.1
0.05
-2.91
-6.12
-9.82
-13.98
-18.42
-22.82
-26.9
-30.52
-33.81
-37.11
-40.94
-45.82
-52.05
-59.5
-67.39
-74.35
-78.77
-79.25
-74.98
-66.06
-53.44
-38.6
-23.23
-8.79
3.7
13.69
21.09
26.03
28.72
29.44
28.5
26.37
23.69
21.17
19.47
18.96
19.69
21.4
23.75
26.42
29.18
31.85
34.21
36.05
37.14
37.36
36.67
35.2
33.09
30.52
27.6
24.41
21.02
17.48
13.93
10.52
7.42
4.73
2.39
0.2
-2.14
-4.9
-8.23
-12.01
-16.06
-20.09
-23.91
-27.4
-30.64
-33.86
-37.44
-41.87
-47.44
-54.1
-61.24
-67.75
-72.21
-73.29
-70.17
-62.68
-51.43
-37.54
-22.48
-7.68
5.63
16.6
24.77
30.05
32.66
33.0
31.59
29.1
26.22
23.61
21.79
21.05
21.44
22.88
25.17
28.11
31.44
34.87
38.02
40.57
42.19
42.74
42.21
40.77
38.66
36.11
33.29
30.28
27.03
23.48
19.59
15.46
11.31
7.41
3.96
1.03
-1.55
-4.05
-6.81
-10.08
-13.99
-18.48
-23.29
-28.04
-32.39
-36.15
-39.44
-42.7
-46.52
-51.48
-57.86
-65.44
-73.39
-80.37
-84.78
-85.15
-80.55
-70.94
-57.24
-41.1
-24.47
-9.08
3.89
13.99
21.3
26.13
28.88
29.89
29.53
28.23
26.55
25.05
24.19
24.23
25.22
27.02
29.4
32.11
34.96
37.79
40.42
42.67
44.34
45.24
45.26
44.44
42.93
40.95
38.66
36.12
33.27
30.08
26.51
22.67
18.71
14.83
11.19
7.91
4.99
2.4
-0.08
-2.73
-5.83
-9.58
-13.93
-18.62
-23.23
-27.42
-31.04
-34.26
-37.55
-41.57
-46.97
-54.04
-62.52
-71.37
-79.0
-83.56
-83.53
-78.24
-68.03
-54.13
-38.29
-22.22
-7.31
5.56
15.95
23.71
28.96
31.98
33.21
33.2
32.48
31.54
30.75
30.38
30.59
31.44
32.91
34.87
37.16
39.64
42.23
44.81
47.22
49.15
50.25
50.2
48.89
46.42
43.16
39.53
35.92
32.51
29.31
26.2
23.03
19.71
16.29
12.86
9.52
6.33
3.24
0.16
-3.04
-6.44
-10.08
-13.92
-17.91
-21.91
-25.8
-29.43
-32.77
-35.99
-39.48
-43.77
-49.28
-56.11
-63.77
-71.22
-77.04
-79.75
-78.29
-72.23
-61.96
-48.55
-33.54
-18.53
-4.88
6.49
15.16
21.12
24.6
25.96
25.56
23.87
21.35
18.55
16.08
14.48
14.2
15.47
18.19
21.99
26.28
30.49
34.12
36.87
38.55
39.07
38.44
36.77
34.31
31.47
28.61
25.93
23.37
20.67
17.58
14.04
10.16
6.21
2.45
-1.05
-4.38
-7.64
-10.91
-14.12
-17.19
-20.05
-22.78
-25.62
-28.83
-32.68
-37.38
-43.03
-49.63
-56.96
-64.49
-71.29
-76.09
-77.56
-74.7
-67.2
-55.65
-41.35
-25.94
-10.98
2.37
13.41
21.84
27.6
30.83
31.83
31.1
29.29
27.12
25.19
23.91
23.49
23.9
25.08
26.88
29.19
31.9
34.86
37.89
40.67
42.84
44.04
44.03
42.79
40.51
37.58
34.39
31.22
28.16
25.13
21.96
18.5
14.69
10.63
6.52
2.64
-0.87
-4.03
-7.08
-10.35
-14.08
-18.31
-22.79
-27.17
-31.11
-34.54
-37.63
-40.82
-44.65
-49.62
-56.04
-63.74
-72.0
-79.55
-84.72
-85.98
-82.32
-73.64
-60.78
-45.25
-28.82
-13.07
0.82
12.21
20.83
26.74
30.16
31.42
30.98
29.38
27.24
25.19
23.76
23.32
23.99
25.65
28.05
30.86
33.82
36.75
39.52
41.99
43.94
45.08
45.16
44.09
42.02
39.32
36.45
33.76
31.36
29.04
26.5
23.43
19.75
15.65
11.46
7.58
4.2
1.35
-1.16
-3.64
-6.36
-9.52
-13.17
-17.2
-21.43
-25.59
-29.48
-33.0
-36.26
-39.67
-43.8
-49.21
-56.13
-64.12
-71.99
-78.04
-80.47
-78.04
-70.47
-58.5
-43.66
-27.74
-12.37
1.32
12.7
21.51
27.72
31.48
33.05
32.85
31.46
29.52
27.64
26.25
25.61
25.79
26.74
28.41
30.73
33.6
36.83
40.14
43.14
45.41
46.64
46.64
45.37
42.97
39.72
36.04
32.31
28.83
25.69
22.7
19.61
16.21
12.51
8.75
5.23
2.14
-0.56
-3.17
-6.04
-9.39
-13.23
-17.35
-21.42
-25.19
-28.55
-31.63
-34.72
-38.29
-42.73
-48.31
-54.94
-62.03
-68.55
-73.14
-74.47
-71.55
-64.09
-52.65
-38.5
-23.28
-8.63
4.14
14.3
21.66
26.39
28.87
29.47
28.59
26.55
23.8
20.87
18.39
16.94
16.88
18.26
20.76
23.87
27.05
29.94
32.37
34.31
35.69
36.38
36.21
35.08
33.07
30.4
27.35
24.11
20.76
17.32
13.81
10.33
7.02
3.95
1.05
-1.85
-5.02
-8.62
-12.66
-16.96
-21.24
-25.2
-28.69
-31.77
-34.73
-38.05
-42.23
-47.68
-54.48
-62.29
-70.28
-77.18
-81.49
-81.87
-77.51
-68.37
-55.33
-39.92
-23.96
-9.08
3.62
13.59
20.82
25.52
28.06
28.8
28.17
26.65
24.8
23.15
22.12
21.92
22.63
24.21
26.57
29.57
33.01
36.59
39.94
42.66
44.42
45.04
44.56
43.1
40.92
38.22
35.22
32.04
28.77
25.39
21.85
18.1
14.13
10.08
6.1
2.38
-1.0
-4.14
-7.25
