0
-18.29
-25.31
-31.17
-36.72
-42.95
-50.71
-60.26
-70.99
-81.26
-88.5
-89.83
-82.95
-66.97
-43.05
-14.2
15.51
42.09
62.67
76.02
82.36
82.74
78.44
70.52
59.95
47.73
35.13
23.55
14.29
8.18
5.37
5.45
7.6
10.88
14.38
17.3
18.95
18.78
16.41
11.74
5.02
-3.17
-11.97
-20.52
-28.22
-34.96
-41.24
-48.04
-56.4
-66.82
-78.7
-90.11
-98.1
-99.5
-91.98
-74.94
-49.91
-20.17
10.19
37.38
58.79
73.32
81.14
83.11
80.26
73.52
63.8
52.23
40.22
29.37
21.02
15.96
14.12
14.74
16.68
18.85
20.55
21.49
21.74
21.44
20.59
18.91
15.9
10.99
3.85
-5.4
-16.05
-26.91
-36.72
-44.6
-50.44
-54.91
-59.31
-64.99
-72.87
-82.93
-94.01
-103.86
-109.64
-108.59
-98.92
-80.42
-54.73
-24.91
5.33
32.63
54.7
70.44
79.8
83.3
81.71
75.92
67.06
56.47
45.67
36.07
28.72
24.1
22.08
22.05
23.19
24.7
26.08
27.14
27.93
28.5
28.6
27.66
24.97
20.04
12.92
4.32
-4.65
-12.85
-19.61
-24.96
-29.55
-34.34
-40.37
-48.29
-58.15
-69.2
-79.8
-87.55
-89.81
-84.49
-70.79
-49.67
-23.68
3.68
29.0
49.72
64.57
73.43
76.82
75.51
70.28
61.92
51.44
40.1
29.3
20.34
14.05
10.68
9.89
10.98
13.26
16.16
19.29
22.24
24.44
25.14
23.65
19.64
13.35
5.63
-2.42
-9.83
-16.15
-21.51
-26.53
-32.08
-38.95
-47.6
-57.88
-68.76
-78.27
-83.79
-82.69
-73.27
-55.52
-31.34
-4.1
22.37
44.79
61.16
70.88
74.38
72.68
66.88
58.07
47.32
35.76
24.51
14.57
6.67
1.17
-1.95
-2.98
-2.34
-0.5
2.07
4.8
6.97
7.81
6.61
3.02
-2.89
-10.47
-18.78
-26.85
-34.03
-40.21
-45.89
-51.91
-59.3
-68.71
-79.97
-91.72
-101.49
-106.1
-102.79
-90.14
-68.72
-41.11
-11.01
17.74
42.14
60.45
72.21
77.74
77.82
73.38
65.47
55.29
44.11
33.29
23.99
17.09
12.95
11.36
11.62
12.89
14.45
15.98
17.45
18.8
19.69
19.35
16.9
11.78
4.09
-5.31
-15.21
-24.42
-32.33
-39.01
-45.15
-51.73
-59.69
-69.54
-80.95
-92.56
-102.07
-106.68
-103.86
-92.21
-72.1
-45.61
-16.05
12.97
38.37
58.16
71.57
78.76
80.47
77.61
71.11
61.91
51.04
39.69
29.1
20.36
14.15
10.63
9.47
10.07
11.8
14.14
16.64
18.81
20.05
19.69
17.23
12.5
5.83
-2.01
-10.13
-17.79
-24.66
-30.93
-37.28
-44.6
-53.66
-64.6
-76.58
-87.63
-94.92
-95.55
-87.42
-70.14
-45.28
-16.05
13.57
39.93
60.47
74.1
80.95
81.93
78.19
70.85
60.87
49.2
36.87
25.05
14.99
7.74
3.91
3.47
5.71
9.46
13.37
16.32
17.58
16.95
14.57
10.82
6.01
0.35
-6.06
-13.2
-21.11
-29.92
-39.85
-51.07
-63.24
-75.19
-84.64
-88.68
-84.6
-71.0
-48.59
-20.16
10.17
38.24
60.87
76.49
84.96
87.09
84.02
76.85
66.64
54.42
41.35
28.68
17.63
9.2
4.03
2.17
3.13
5.95
9.44
12.41
13.91
13.38
10.64
5.87
-0.51
-7.95
-15.93
-24.03
-32.06
-40.15
-48.74
-58.5
-69.93
-82.92
-96.23
-107.37
-113.05
-110.08
-96.63
-73.06
-42.04
-7.84
24.93
52.61
73.11
85.93
91.61
91.15
85.63
76.22
64.29
51.45
39.39
29.53
22.67
18.89
17.65
18.16
19.71
21.86
24.37
27.01
29.27
30.31
29.14
24.98
17.65
7.76
-3.43
-14.45
-24.17
-32.18
-38.9
-45.36
-52.83
-62.29
-74.01
-87.17
-99.74
-108.73
-110.84
-103.54
-85.94
-59.36
-27.09
6.53
37.34
62.32
80.06
90.48
94.31
92.56
86.25
76.5
64.65
52.28
40.97
32.0
26.01
22.97
22.34
23.38
25.49
28.23
31.25
34.05
35.89
35.88
33.25
27.73
19.72
10.22
0.43
-8.63
-16.5
-23.34
-29.81
-36.82
-45.19
-55.33
-66.93
-78.68
-88.26
-92.75
-89.39
-76.61
-54.82
-26.56
4.18
33.09
56.8
73.53
83.11
86.38
84.48
78.4
68.93
56.92
43.53
30.24
18.63
10.02
5.12
3.91
5.65
9.19
13.18
16.44
18.19
18.05
16.01
12.21
6.91
0.41
-6.94
-14.76
-22.71
-30.73
-39.11
-48.42
-59.08
-70.82
-82.27
-90.91
-93.75
-88.28
-73.5
-50.46
-22.08
7.68
34.94
56.77
71.72
79.61
81.13
77.31
69.33
58.39
45.87
33.22
21.88
12.92
6.86
3.65
2.84
3.82
6.04
8.93
11.86
14.01
14.46
12.46
7.7
0.47
-8.43
-17.93
-27.11
-35.44
-42.89
-49.95
-57.47
-66.38
-77.19
-89.49
-101.6
-110.67
-113.37
-107.0
-90.57
-65.33
-34.54
-2.46
26.88
50.68
67.64
77.74
81.67
80.28
74.46
65.18
53.74
41.75
30.88
22.49
17.23
14.92
14.71
15.63
16.86
18.06
19.2
20.36
21.34
21.61
20.33
16.66
10.14
0.94
-10.09
-21.59
-32.2
-41.01
-47.85
-53.36
-58.7
-65.1
-73.38
-83.6
-94.8
-105.02
-111.53
-111.46
-102.63
-84.37
-57.99
-26.61
5.68
34.95
58.34
74.51
83.46
85.96
83.12
76.14
66.27
54.92
43.56
33.51
25.72
20.63
18.23
18.15
19.87
22.76
26.15
29.34
31.61
32.26
30.78
26.86
20.56
12.29
2.79
-7.08
-16.57
-25.29
-33.33
-41.33
-50.18
-60.6
-72.62
-85.13
-95.84
-101.64
-99.6
-87.89
-66.66
-38.15
-6.16
24.99
51.6
71.35
83.41
88.18
86.74
80.39
70.45
58.23
45.05
32.24
21.01
12.35
6.84
4.65
5.43
8.41
12.53
16.58
19.4
20.14
18.31
13.82
6.97
-1.71
-11.48
-21.6
-31.47
-40.8
-49.78
-59.12
-69.76
-82.34
-96.46
-110.3
-120.65
-123.75
-116.57
-97.94
-69.23
-33.99
3.01
37.19
65.12
85.06
96.72
100.79
98.41
90.9
79.68
66.36
52.73
40.5
31.02
24.96
22.19
21.94
23.2
25.1
27.16
29.18
31.02
32.24
32.02
29.37
23.56
14.59
3.28
-8.99
-20.76
-31.07
-39.8
-47.58
-55.56
-64.92
-76.5
-90.25
-104.96
-118.11
-126.26
-125.87
-114.5
-91.9
-60.33
-24.07
11.92
43.39
67.83
84.58
94.25
97.88
96.37
90.4
80.73
68.62
55.81
44.25
35.54
30.47
28.88
29.89
32.38
35.45
38.58
41.57
44.18
45.96
46.11
43.75
38.3
29.82
19.08
7.42
-3.71
-13.29
-21.04
-27.5
-33.81
-41.24
-50.71
-62.29
-74.95
-86.51
-94.02
-94.45
-85.56
-66.73
-39.45
-7.05
26.07
55.69
78.69
93.71
100.92
101.42
96.63
87.8
76.05
62.53
48.61
35.83
25.63
18.99
16.25
17.04
20.45
25.3
30.3
34.31
36.42
36.09
33.2
27.99
21.0
12.86
4.23
-4.43
-12.87
-21.22
-29.97
-39.77
-51.09
-63.63
-75.97
-85.55
-89.26
-84.41
-69.81
-46.33
-16.86
14.48
43.5
66.93
82.99
91.37
92.84
88.62
80.08
68.54
55.33
41.83
29.42
19.24
11.99
7.85
6.5
7.37
9.8
13.15
16.71
19.67
21.06
20.07
16.2
9.55
0.75
-9.13
-19.01
-28.05
-35.92
-42.82
-49.49
-56.94
-66.13
-77.41
-90.0
-101.81
-109.71
-110.38
-101.4
-82.27
-54.73
-22.36
10.41
39.57
62.37
77.68
85.7
87.4
84.01
76.68
66.56
54.91
43.13
32.63
24.52
19.32
16.9
16.6
17.61
19.33
21.41
23.71
26.02
27.85
28.36
26.65
22.03
14.42
4.46
-6.62
-17.39
-26.74
-34.19
-40.07
-45.35
-51.25
-58.8
-68.35
-79.23
-89.65
-96.95
-98.22
-91.21
-75.18
-51.29
-22.53
7.2
34.07
55.32
69.66
77.13
78.55
75.06
67.76
57.78
46.29
34.65
24.19
16.02
10.73
8.35
8.42
10.22
13.02
16.18
19.13
21.38
22.39
21.69
18.96
14.2
7.74
0.2
-7.67
-15.22
-22.09
-28.3
-34.25
-40.68
-48.29
-57.41
-67.5
-76.95
-83.3
-83.86
-76.68
-61.33
-39.32
-13.65
11.95
34.22
51.04
61.69
66.54
66.47
62.4
55.07
45.15
33.48
21.16
9.57
0.03
-6.44
-9.37
-9.0
-6.08
-1.79
2.58
5.87
7.22
6.28
3.12
-1.79
-7.85
-14.47
-21.27
-28.11
-35.05
-42.41
-50.6
-60.01
-70.56
-81.38
-90.6
-95.62
-93.86
-83.68
-65.18
-40.36
-12.63
14.17
36.76
53.12
62.68
65.94
64.07
58.37
50.05
40.14
29.59
19.32
10.18
2.88
-2.18
-4.94
-5.68
-4.83
-2.9
-0.42
2.01
3.66
3.77
1.75
-2.58
-8.86
-16.3
-23.99
-31.27
-37.88
-44.11
-50.56
-58.02
-67.07
-77.69
-88.84
-98.35
-103.33
-100.92
-89.42
-69.03
-42.01
-12.04
16.85
41.37
59.62
71.07
76.21
76.0
71.47
63.71
53.83
43.04
32.61
23.67
17.0
12.87
11.07
11.04
12.21
14.16
16.63
19.37
21.9
23.44
23.09
20.14
14.52
6.79
-1.98
-10.69
-18.54
-25.28
-31.16
-36.84
-43.13
-50.87
-60.48
-71.58
-82.61
-90.91
-93.32
-87.21
-71.67
-47.98
-19.41
9.8
35.68
55.64
68.71
75.28
76.39
73.16
66.48
57.1
45.83
33.75
22.13
12.29
5.21
1.4
0.74
2.58
5.95
9.84
13.29
15.56
16.07
14.53
10.9
5.51
-0.99
-7.81
-14.3
-20.2
-25.87
-32.17
-40.1
-50.2
-62.0
-73.76
-82.67
-85.63
-80.18
-65.48
-42.69
-14.7
14.61
41.44
62.97
77.76
85.6
87.14
83.4
75.47
64.39
51.29
37.39
24.02
12.48
3.87
-1.21
-2.73
-1.32
1.88
5.46
8.11
8.93
7.59
4.28
-0.49
-6.15
-12.26
-18.63
-25.33
-32.62
-40.98
-50.99
-63.1
-77.15
-91.94
-105.02
-113.04
-112.62
-101.57
-79.8
-49.57
-14.98
19.19
48.77
71.06
85.13
91.45
91.3
86.2
77.59
66.75
54.88
43.08
32.39
23.65
17.43
13.94
13.05
14.33
17.06
20.32
23.14
24.63
24.16
21.46
16.62
10.0
2.1
-6.54
-15.44
-24.33
-33.2
-42.46
-52.79
-64.74
-78.1
-91.42
-101.92
-106.12
-100.98
-85.06
-59.28
-26.77
8.03
40.62
67.54
86.92
98.38
102.61
100.75
94.1
83.99
71.77
58.83
46.56
36.11
28.28
23.36
21.22
21.42
23.3
26.19
29.33
31.93
33.14
32.25
28.87
23.07
15.4
6.72
-2.09
-10.42
-18.1
-25.49
-33.36
-42.63
-53.89
-66.9
-80.11
-90.79
-95.58
-91.56
-77.4
-54.03
-24.5
6.9
35.86
59.15
75.14
83.73
85.77
82.52
75.17
64.81
52.46
39.3
26.66
15.96
8.36
4.46
4.05
6.21
9.57
12.77
14.81
15.19
13.94
11.34
7.72
3.38
-1.55
-7.09
-13.42
-20.84
-29.7
-40.27
-52.43
-65.34
-77.23
-85.52
-87.36
-80.57
-64.5
-40.55
-11.91
17.28
43.17
63.07
75.98
82.22
82.84
79.03
71.72
61.72
49.85
37.17
24.93
14.47
6.82
2.52
1.43
2.75
5.26
7.63
8.8
8.14
5.59
1.46
-3.8
-9.79
-16.25
-23.08
-30.27
-37.98
-46.52
-56.31
-67.51
-79.54
-90.75
-98.48
-99.71
-92.1
-74.95
-49.67
-19.43
11.71
39.93
62.45
77.95
86.3
88.2
84.73
77.11
66.6
54.53
42.26
31.02
21.8
15.19
11.28
9.85
10.38
12.24
14.69
16.92
18.12
17.58
14.94
10.25
3.96
-3.27
-10.84
-18.32
-25.61
-32.85
-40.44
-48.88
-58.54
-69.37
-80.43
-89.73
-94.49
-91.94
-80.35
-59.87
-32.7
-2.58
26.39
50.8
68.67
79.56
84.07
83.31
78.43
70.5
60.59
49.87
39.61
30.91
24.48
20.45
18.44
17.87
18.26
19.35
21.02
23.04
24.82
25.46
24.05
20.08
13.65
5.48
-3.4
-11.99
-19.65
-26.29
-32.29
-38.48
-45.74
-54.72
-65.27
-76.11
-84.89
-88.67
-84.81
-72.02
-50.92
-24.02
4.91
31.93
53.92
69.19
77.5
79.68
76.98
70.61
61.58
50.79
39.17
27.87
18.07
10.8
6.6
5.45
6.75
9.52
12.63
15.02
15.86
14.66
11.38
6.34
0.06
-6.86
-13.94
-20.94
-27.8
-34.69
-42.02
-50.42
-60.4
-71.98
-84.12
-94.58
-100.31
-98.38
-87.1
-66.85
-40.06
-10.56
17.58
41.12
58.2
68.35
72.06
70.29
64.17
54.84
43.52
31.52
20.16
10.56
3.47
-0.88
-2.76
-2.71
-1.4
0.58
2.69
4.41
5.11
4.2
1.26
-3.78
-10.52
-18.27
-26.26
-33.99
-41.34
-48.53
-56.11
-64.63
-74.4
-85.02
-95.12
-102.35
-103.85
-97.14
-81.12
-56.73
-26.81
4.61
33.58
57.12
73.78
83.43
86.8
84.92
78.83
69.59
58.36
46.45
35.17
25.63
18.52
13.99
11.78
11.39
12.33
14.2
16.66
19.19
21.04
21.29
19.11
14.13
6.66
-2.42
-11.94
-20.88
-28.75
-35.69
-42.42
-49.96
-59.22
-70.54
-83.21
-95.32
-103.93
-105.9
-98.8
-81.93
-56.7
-26.28
5.27
34.15
57.6
74.32
84.16
87.73
85.92
79.71
70.18
58.61
46.48
35.26
26.17
19.81
16.16
14.65
14.56
15.34
16.77
18.81
21.29
23.66
24.99
24.28
20.78
14.43
5.86
-3.79
-13.21
-21.43
-28.06
-33.45
-38.57
-44.71
-53.04
-63.94
-76.65
-89.1
-98.24
-100.86
-94.63
-78.89
-55.03
-26.16
3.74
30.88
52.5
67.27
75.16
76.98
73.82
66.79
56.88
45.12
32.69
20.89
11.04
4.13
0.66
0.51
2.98
6.97
11.28
14.85
16.91
17.17
15.67
12.76
8.83
4.23
-0.86
-6.44
-12.61
-19.64
-27.93
-37.83
-49.33
-61.58
-72.63
-79.68
-79.76
-70.88
-52.86
-27.65
1.19
29.51
53.74
71.65
82.55
86.9
85.68
79.87
70.29
57.68
43.01
27.63
13.18
1.31
-6.82
-10.92
-11.57
-10.01
-7.71
-5.85
-5.09
-5.54
-6.99
-9.13
-11.79
-15.07
-19.18
-24.45
-31.21
-39.73
-50.16
-62.32
-75.3
-87.26
-95.5
-97.06
-89.61
-72.51
-47.16
-16.83
14.37
42.52
64.88
80.17
88.38
90.31
87.02
79.68
69.39
57.26
44.38
31.85
20.72
11.9
6.02
3.25
3.22
5.06
7.57
9.58
10.2
9.01
6.07
1.68
-3.72
-9.8
-16.41
-23.55
-31.35
-40.12
-50.22
-61.87
-74.79
-87.73
-98.34
-103.54
-100.35
-87.03
-63.92
-33.59
-0.17
31.82
58.68
78.27
90.07
94.73
93.42
87.4
77.84
65.88
52.72
39.67
27.98
18.62
12.18
8.78
8.06
9.34
11.71
14.23
16.02
16.41
15.02
11.81
6.98
0.95
-5.88
-13.15
-20.68
-28.51
-36.95
-46.45
-57.43
-69.72
-82.14
-92.35
-97.28
-94.0
-80.9
-58.43
-29.23
2.61
32.76
57.79
75.81
86.5
90.53
88.98
82.8
72.88
60.1
45.66
31.14
18.31
8.77
3.48
2.44
4.73
8.74
12.76
15.45
16.16
14.93
12.22
8.54
4.17
-0.91
-6.91
-14.1
-22.69
-32.87
-44.63
-57.63
-70.81
-82.21
-89.13
-88.77
-79.25
-60.49
-34.52
-5.02
23.79
48.33
66.5
77.75
82.63
82.07
76.9
67.76
55.39
40.97
26.12
12.76
2.54
-3.58
-5.67
-4.69
-2.18
0.34
1.7
1.37
-0.62
-3.93
-8.17
-13.07
-18.59
-24.85
-32.09
-40.66
-50.92
-63.12
-76.96
-91.27
-103.73
-111.2
-110.52
-99.61
-78.45
-49.26
-16.01
16.7
44.94
66.27
79.92
86.39
86.78
82.31
74.03
62.96
50.2
37.11
25.16
15.75
9.79
7.49
8.26
10.88
13.89
16.02
16.49
15.07
11.98
7.61
2.38
-3.51
-9.99
-17.18
-25.28
-34.59
-45.46
-58.05
-71.99
-85.9
-97.35
-103.12
-100.16
-86.62
-62.83
-31.43
3.17
36.11
63.37
82.64
93.53
97.03
94.75
88.24
78.8
67.45
55.25
43.37
33.03
25.26
20.64
19.12
20.08
22.53
25.38
27.69
28.75
28.06
25.4
20.74
14.28
6.43
-2.24
-11.16
-19.89
-28.3
-36.66
-45.55
-55.58
-66.98
-79.03
-89.85
-96.57
-96.05
-86.02
-66.02
-37.87
-5.3
27.14
55.36
76.73
90.28
96.37
96.06
90.53
80.98
68.68
55.17
42.15
31.2
23.36
18.94
17.55
18.34
20.43
23.07
25.71
27.82
28.81
28.01
24.87
19.21
11.34
2.02
-7.78
-17.17
-25.65
-33.22
-40.41
-48.11
-57.27
-68.42
-81.18
-93.86
-103.58
-106.87
-100.8
-84.17
-58.09
-25.89
7.89
38.85
63.84
81.41
91.62
95.32
93.58
87.34
77.55
65.38
52.33
40.15
30.43
24.17
21.52
21.78
23.7
26.03
27.89
28.98
29.42
29.48
29.06
27.66
24.48
18.79
10.35
-0.36
-12.27
-24.02
-34.46
-42.98
-49.68
-55.24
-60.77
-67.45
-76.19
-87.17
-99.46
-110.81
-118.04
-117.78
-107.66
-87.25
-58.4
-24.8
9.12
39.44
63.59
80.62
90.75
94.84
93.82
88.51
79.84
68.9
57.16
46.21
37.52
31.97
29.65
29.89
31.56
33.52
35.03
35.87
36.19
36.21
35.83
34.57
31.65
26.34
18.32
7.95
-3.83
-15.67
-26.37
-35.23
-42.31
-48.3
-54.26
-61.19
-69.74
-79.99
-91.25
-102.0
-109.94
-112.37
-106.9
-92.32
-69.16
-39.86
-8.1
22.17
47.81
67.07
79.54
85.71
86.4
82.38
74.5
63.74
51.5
39.47
29.32
22.3
18.9
18.73
20.71
23.59
26.32
28.45
30.01
31.27
32.31
32.76
31.87
28.83
23.17
15.09
5.42
-4.6
-13.82
-21.55
-27.79
-33.17
-38.67
-45.31
-53.8
-64.16
-75.51
-86.04
-93.24
-94.46
-87.72
-72.39
-49.55
-21.91
6.99
33.63
55.33
70.7
79.53
82.33
79.94
73.18
62.94
50.31
36.68
23.63
12.68
4.93
0.83
0.12
2.01
5.36
8.91
11.53
12.31
10.75
6.8
0.86
-6.36
-14.07
-21.63
-28.64
-35.06
-41.22
-47.74
-55.46
-65.08
-76.71
-89.35
-100.74
-107.69
-107.02
-96.71
-76.71
-49.18
-17.84
13.12
40.14
61.02
74.98
82.3
83.81
80.49
73.39
63.61
52.43
41.16
30.99
22.74
16.77
12.98
11.05
10.59
11.33
13.07
15.55
18.29
20.49
21.19
19.48
14.93
7.76
-1.16
-10.54
-19.18
-26.35
-32.13
-37.31
-43.24
-51.22
-62.02
-75.37
-89.62
-101.98
-109.04
-107.7
-96.26
-75.05
-46.52
-14.59
16.47
43.09
63.1
75.87
81.88
82.18
77.93
70.22
60.12
48.72
37.19
26.66
18.02
11.79
8.05
6.55
6.92
8.73
11.51
14.72
17.62
19.34
19.05
16.28
11.07
4.01
-3.96
-11.95
-19.39
-26.26
-33.1
-40.8
-50.23
-61.79
-74.9
-87.79
-97.61
-101.11
-95.69
-80.35
-56.3
-26.74
4.09
32.12
54.53
70.06
78.87
81.8
79.83
73.82
64.56
53.05
40.53
28.47
18.32
11.18
7.56
7.26
9.44
12.81
15.99
17.82
17.64
15.33
11.19
5.67
-0.8
-7.88
-15.36
-23.11
-31.11
-39.65
-49.17
-60.11
-72.35
-84.73
-94.86
-99.65
-96.23
-83.04
-60.65
-31.7
-0.21
29.56
54.25
71.93
82.25
85.83
83.76
77.15
66.99
54.26
40.16
26.1
13.65
4.16
-1.55
-3.5
-2.45
0.3
3.35
5.55
6.25
5.26
2.72
-1.09
-5.91
-11.54
-17.86
-24.85
-32.6
-41.44
-51.8
-63.95
-77.54
-91.09
-102.0
-107.02
-103.22
-89.19
-65.68
-35.62
-3.21
27.25
52.46
70.68
81.61
85.95
84.8
79.32
70.63
59.86
48.15
36.63
26.32
18.04
12.3
9.2
8.48
9.54
11.53
13.53
14.67
14.28
11.98
7.69
1.68
-5.61
-13.61
-21.86
-30.11
-38.53
-47.65
-58.2
-70.59
-84.35
-97.7
-107.63
-110.67
-104.03
-86.78
-60.35
-28.22
5.04
35.16
59.12
75.52
84.42
86.71
83.62
76.42
66.29
54.38
41.85
29.87
19.54
11.77
7.14
5.76
7.2
10.58
14.74
18.45
20.65
20.63
18.1
13.26
6.67
-0.88
-8.68
-16.3
-23.72
-31.36
-39.96
-50.23
-62.43
-75.87
-88.66
-97.78
-99.86
-92.28
-74.23
-47.28
-15.08
17.71
46.79
69.24
83.93
91.14
91.9
87.39
78.64
66.68
52.66
38.04
24.46
13.5
6.25
3.07
3.41
5.99
9.17
11.46
11.93
10.39
7.21
3.01
-1.7
-6.78
-12.4
-18.98
-27.02
-37.0
-49.27
-63.74
-79.56
-94.74
-106.29
-110.77
-105.33
-88.8
-62.34
-29.26
5.83
38.35
64.86
83.6
94.33
97.82
95.26
87.89
76.95
63.7
49.55
35.92
24.07
15.01
9.24
6.8
7.22
9.63
12.9
15.79
17.26
16.61
13.63
8.53
1.84
-5.84
-14.07
-22.64
-31.66
-41.56
-52.93
-66.27
-81.46
-97.32
-111.34
-120.05
-119.85
-108.35
-85.31
-53.04
-15.73
21.69
54.93
81.26
99.57
110.05
113.47
110.79
103.03
91.46
77.71
63.72
51.37
42.03
36.21
33.52
33.0
33.55
34.41
35.29
36.27
37.42
38.44
38.53
36.58
31.61
23.21
11.87
-1.17
-14.32
-26.11
-35.78
-43.44
-49.98
-56.78
-65.22
-76.17
-89.5
-103.79
-116.29
-123.45
-121.81
-109.14
-85.36
-52.76
-15.47
21.67
54.45
80.09
97.49
106.82
108.92
104.85
95.8
83.17
68.71
54.38
42.02
32.92
27.53
25.46
25.8
27.55
29.97
32.67
35.43
37.93
39.52
39.28
36.33
30.23
21.2
10.22
-1.35
-12.25
-21.77
-29.97
-37.62
-45.87
-55.78
-67.92
-81.84
-95.93
-107.42
-112.98
-109.57
-95.52
-71.27
-39.43
-4.17
29.94
59.06
80.85
94.51
100.4
99.46
92.93
82.11
68.54
53.92
40.0
28.26
19.64
14.38
12.09
12.03
13.4
15.59
18.18
20.83
23.0
23.88
22.57
18.36
11.08
1.27
-9.96
-21.3
-31.72
-40.75
-48.65
-56.26
-64.74
-75.14
-87.8
-101.82
-114.88
-123.51
-124.02
-113.78
-92.3
-61.68
-25.96
10.0
42.0
67.3
84.95
95.21
98.93
97.02
90.35
79.91
67.02
53.45
41.07
31.47
25.48
22.99
23.13
24.66
26.57
28.33
29.92
31.46
32.85
33.44
32.25
28.3
21.14
11.15
-0.5
-12.28
-22.84
-31.48
-38.39
-44.46
-51.0
-59.22
-69.9
-82.92
-97.12
-110.19
-119.05
-120.54
-112.33
-93.83
-66.55
-33.8
0.22
31.54
57.27
75.98
87.43
92.14
90.91
84.67
74.59
62.17
49.14
37.18
27.62
21.09
17.51
16.28
16.65
18.04
20.13
22.8
25.8
28.59
30.23
29.66
26.08
19.42
10.37
0.21
-9.68
-18.35
-25.55
-31.75
-37.87
-44.91
-53.7
-64.46
-76.56
-88.21
-96.68
-98.84
-92.16
-75.75
-50.89
-20.84
10.12
37.93
59.8
74.55
82.37
84.21
81.24
74.49
64.86
53.25
40.7
28.44
17.73
9.72
5.05
3.7
4.96
7.62
10.39
12.19
12.4
10.85
7.7
3.25
-2.17
-8.25
-14.74
-21.48
-28.48
-35.95
-44.34
-54.18
-65.72
-78.45
-90.8
-100.14
-103.38
-97.97
-82.94
-59.42
-30.5
-0.29
27.24
49.25
64.38
72.63
74.8
72.02
65.46
56.27
45.6
34.6
24.35
15.73
9.37
5.56
4.29
5.22
7.79
11.18
14.48
16.75
17.17
15.22
10.75
4.08
-4.07
-12.83
-21.36
-29.2
-36.35
-43.31
-50.93
-60.11
-71.34
-84.16
-96.87
-106.59
-109.95
-104.11
-87.95
-62.63
-31.42
1.3
31.33
55.77
73.31
84.0
88.55
87.82
82.62
73.9
62.91
51.15
40.19
31.21
24.83
20.97
19.14
18.72
19.21
20.31
21.87
23.63
25.13
25.66
24.44
20.86
14.78
6.63
-2.73
-12.21
-20.96
-28.63
-35.5
-42.38
-50.26
-59.93
-71.49
-83.95
-95.19
-102.25
-102.16
-92.92
-74.26
-48.0
-17.51
13.13
40.28
61.53
75.85
83.39
84.88
81.26
73.47
62.54
49.72
36.46
24.22
14.23
7.27
3.53
2.7
4.09
6.82
9.96
12.67
14.27
14.25
12.31
8.43
2.83
-3.97
-11.24
-18.21
-24.34
-29.56
-34.42
-39.96
-47.34
-57.26
-69.3
-81.65
-91.34
-94.96
-89.79
-74.77
-51.09
-21.87
8.67
36.49
58.7
74.04
82.6
85.29
83.13
76.95
67.5
55.6
42.41
29.38
18.0
9.46
4.37
2.63
3.59
6.21
9.34
11.91
13.13
12.56
10.09
5.93
0.43
-5.99
-12.97
-20.25
-27.77
-35.67
-44.35
-54.37
-66.05
-79.02
-91.74
-101.54
-105.17
-99.85
-84.38
-59.8
-29.21
3.08
32.82
56.87
73.68
83.14
86.06
83.61
76.96
67.23
55.57
43.3
31.73
22.03
14.98
10.84
9.33
9.81
11.5
13.67
15.65
16.9
16.86
15.06
11.15
5.11
-2.71
-11.54
-20.48
-28.82
-36.31
-43.41
-51.12
-60.67
-72.83
-87.29
-102.31
-114.82
-121.19
-118.29
-104.55
-80.64
-49.38
-14.99
18.15
46.48
67.91
81.83
88.67
89.35
84.96
76.63
65.73
53.85
42.68
33.65
27.57
24.45
23.64
24.21
25.38
26.75
28.2
29.68
30.91
31.22
29.74
25.71
18.87
9.63
-0.98
-11.61
-21.13
-28.98
-35.39
-41.3
-47.99
-56.58
-67.49
-80.03
-92.21
-101.05
-103.35
-96.63
-80.11
-55.17
-25.04
6.03
34.05
56.25
71.41
79.72
82.05
79.43
72.77
62.92
50.86
37.93
25.65
15.52
8.68
5.61
6.05
9.11
13.5
17.85
20.99
22.2
21.26
18.34
13.83
8.14
1.62
-5.49
-13.07
-21.12
-29.85
-39.67
-50.94
-63.59
-76.55
-87.68
-93.96
-92.45
-81.32
-60.7
-32.89
-1.76
28.28
53.52
71.68
82.1
85.37
82.76
75.62
65.18
52.57
39.02
25.87
14.5
6.07
1.18
-0.23
1.17
4.31
7.98
11.06
12.61
11.99
8.97
3.78
-3.0
-10.65
-18.5
-26.21
-33.84
-41.73
-50.44
-60.62
-72.65
-86.31
-100.34
-112.24
-118.7
-116.49
-103.67
-80.49
-49.54
-15.05
18.42
47.14
68.91
83.03
89.87
90.32
85.5
76.71
65.44
53.38
42.12
32.93
26.47
22.76
21.31
21.36
22.29
23.66
25.29
27.04
28.58
29.25
28.18
24.58
18.08
9.0
-1.72
-12.84
-23.26
-32.37
-40.32
-47.95
-56.4
-66.72
-79.15
-92.69
-104.93
-112.52
-112.07
-101.39
-80.36
-51.15
-17.64
15.81
45.47
69.04
85.71
95.69
99.6
98.11
91.89
81.88
69.43
56.35
44.56
35.64
30.41
28.75
29.76
32.15
34.79
36.97
38.48
39.37
39.59
38.84
36.54
32.09
25.23
16.25
5.97
-4.48
-14.07
-22.2
-28.91
-34.78
-40.72
-47.63
-56.18
-66.44
-77.69
-88.31
-95.81
-97.4
-90.73
-74.79
-50.48
-20.52
11.17
40.65
64.81
81.97
91.75
94.69
91.77
84.11
72.97
59.81
46.23
33.8
23.77
16.87
13.26
12.6
14.25
17.4
21.17
24.69
27.14
27.74
25.86
21.18
13.77
4.22
-6.47
-17.15
-26.9
-35.35
-42.85
-50.38
-59.15
-69.97
-82.71
-95.89
-106.83
-112.19
-108.92
-95.41
-72.07
-41.55
-7.98
24.25
51.57
72.03
85.18
91.54
91.9
87.03
77.71
65.16
51.15
37.84
27.23
20.53
17.84
18.26
20.38
22.8
24.65
25.66
26.0
25.93
25.5
24.38
21.88
17.29
10.22
0.91
-9.74
-20.56
-30.44
-38.81
-45.77
-51.98
-58.39
-65.92
-75.22
-86.29
-98.23
-109.08
-115.99
-115.92
-106.62
-87.5
-60.1
-27.67
5.69
36.2
61.18
79.29
90.39
94.96
93.81
87.9
78.35
66.5
53.98
42.5
33.55
28.01
26.0
26.8
29.19
31.91
34.12
35.52
36.3
36.74
36.88
36.3
34.25
29.96
22.99
13.52
2.35
-9.33
-20.31
-29.72
-37.31
-43.41
-48.78
-54.37
-61.01
-69.19
-78.82
-89.0
-97.92
-103.05
-101.75
-92.1
-73.71
-48.12
-18.45
11.44
38.11
59.22
73.79
81.85
83.92
80.72
73.09
62.13
49.33
36.36
24.86
16.02
10.44
8.1
8.52
10.98
14.67
18.8
22.59
25.29
26.21
24.85
21.01
14.91
7.17
-1.33
-9.71
-17.41
-24.36
-31.04
-38.27
-46.92
-57.54
-69.87
-82.53
-93.09
-98.46
-95.87
-83.81
-62.83
-35.43
-5.36
23.47
48.06
66.71
78.86
84.65
84.49
78.96
68.98
55.98
41.84
28.56
17.74
10.26
6.09
4.51
4.49
5.16
6.05
7.13
8.53
10.18
11.51
11.51
9.09
3.54
-5.04
-15.74
-27.11
-37.81
-47.05
-54.84
-61.88
-69.31
-78.22
-89.26
-102.27
-115.94
-127.86
-134.86
-133.83
-122.72
-101.32
-71.59
-37.14
-2.24
29.28
54.85
73.3
84.59
89.29
88.22
82.3
72.67
60.77
48.39
37.29
28.87
23.79
21.88
22.26
23.84
25.73
27.51
29.22
31.01
32.73
33.75
33.01
29.46
22.52
12.45
0.29
-12.5
-24.51
-34.9
-43.62
-51.29
-58.98
-67.81
-78.65
-91.74
-106.35
-120.63
-131.68
-136.13
-131.02
-114.81
-88.05
-53.39
-14.93
22.86
56.2
82.55
100.74
110.61
112.6
107.61
96.85
82.09
65.5
49.48
36.14
26.84
21.93
20.76
22.15
24.92
28.26
31.85
35.5
38.82
41.03
41.0
37.81
31.14
21.54
10.28
-1.18
-11.72
-20.94
-29.17
-37.29
-46.35
-57.21
-70.23
-84.86
-99.44
-111.16
-116.59
-112.52
-97.14
-70.86
-36.49
1.45
37.95
68.88
91.72
105.77
111.59
110.38
103.44
92.02
77.44
61.24
45.15
30.91
19.93
13.02
10.29
11.2
14.77
19.8
25.03
29.3
31.61
31.24
27.88
21.61
13.02
3.02
-7.37
-17.4
-26.82
-36.07
-46.13
-58.12
-72.69
-89.26
-105.71
-118.58
-123.86
-118.29
-100.45
-71.46
-34.69
5.11
43.09
75.37
99.52
114.59
120.68
118.57
109.53
95.28
77.93
59.86
43.29
29.93
20.67
15.52
13.83
14.62
16.97
20.16
23.66
26.99
29.49
30.29
28.46
23.38
15.01
4.06
-8.21
-20.39
-31.38
-40.82
-49.09
-57.26
-66.65
-78.41
-92.76
-108.62
-123.28
-132.88
-133.34
-121.79
-97.71
-63.37
-23.27
17.24
53.45
82.32
102.68
114.69
119.13
116.79
108.51
95.41
79.2
62.15
46.65
34.65
27.1
23.84
23.82
25.66
28.23
30.89
33.48
35.96
38.03
38.94
37.64
33.18
25.15
14.0
0.96
-12.38
-24.62
-34.96
-43.45
-50.84
-58.3
-67.08
-78.04
-91.24
-105.53
-118.47
-126.62
-126.43
-115.42
-93.12
-61.48
-24.42
13.29
47.24
74.33
93.1
103.44
106.13
102.31
93.31
80.54
65.63
50.36
36.5
25.5
18.26
14.9
14.96
17.56
21.73
26.59
31.31
35.03
36.85
35.88
31.59
23.99
13.71
1.83
-10.43
-22.14
-32.9
-42.91
-52.87
-63.68
-75.87
-89.06
-101.62
-110.75
-113.19
-106.27
-88.93
-62.3
-29.52
5.11
37.31
63.75
82.51
93.11
96.01
92.28
83.23
70.37
55.31
39.83
25.64
14.26
6.72
3.33
3.67
6.72
11.16
15.73
19.41
21.46
21.39
18.89
13.85
6.47
-2.75
-12.97
-23.25
-32.89
-41.71
-50.15
-59.25
-70.12
-83.27
-97.98
-112.02
-121.9
-123.91
-115.32
-95.51
-66.31
-31.55
4.13
36.49
62.64
81.3
92.41
96.61
94.74
87.73
76.72
63.23
49.16
36.52
26.98
21.36
19.47
20.29
22.47
24.83
26.79
28.3
29.49
30.26
30.07
28.03
23.29
15.52
5.16
-6.7
-18.63
-29.37
-38.23
-45.32
-51.45
-57.83
-65.66
-75.67
-87.66
-100.27
-111.07
-116.93
-114.89
-103.1
-81.58
-52.41
-19.22
13.77
42.94
65.95
81.93
91.09
94.12
91.81
84.97
74.67
62.43
50.16
39.78
32.69
29.42
29.55
31.99
35.38
38.56
40.8
41.84
41.78
40.79
38.92
35.95
31.44
24.96
16.36
5.99
-5.29
-16.37
-26.26
-34.41
-40.88
-46.13
-50.91
-55.96
-61.93
-69.22
-77.79
-86.83
-94.6
-98.6
-96.27
-85.77
-66.86
-41.15
-11.72
17.77
43.97
64.63
78.67
85.93
86.85
82.14
72.82
60.28
46.38
33.23
22.76
16.25
13.96
15.11
18.24
21.83
24.79
26.71
27.69
27.95
27.46
25.76
22.16
16.13
7.62
-2.72
-13.82
-24.48
-33.8
-41.49
-47.88
-53.8
-60.34
-68.4
-78.42
-89.95
-101.43
-110.37
-113.82
-109.23
-95.33
-72.73
-43.92
-12.61
17.3
42.7
61.83
74.27
80.48
81.31
77.58
70.13
60.01
48.6
37.62
28.79
23.33
21.68
23.39
27.35
32.15
36.53
39.59
40.9
40.4
38.26
34.73
29.99
24.13
17.16
9.04
-0.13
-10.05
-20.2
-29.96
-38.81
-46.44
