0
-4.35
-10.16
-16.37
-23.3
-30.97
-39.03
-46.87
-53.97
-60.12
-65.61
-71.14
-77.64
-85.96
-96.6
-109.47
-123.63
-137.23
-147.67
-152.18
-148.59
-136.19
-116.05
-90.84
-63.89
-38.21
-15.6
3.49
19.62
33.65
46.14
57.14
66.37
73.6
78.91
82.74
85.7
88.24
90.57
92.62
94.22
95.32
96.0
96.41
96.7
96.83
96.58
95.65
93.69
90.47
85.92
80.24
73.81
67.19
60.86
55.06
49.68
44.28
38.36
31.54
23.78
15.37
6.84
-1.26
-8.56
-15.02
-20.9
-26.7
-32.97
-40.08
-48.05
-56.54
-64.95
-72.59
-79.04
-84.26
-88.74
-93.4
-99.33
-107.5
-118.24
-130.93
-143.8
-154.21
-159.24
-156.5
-144.96
-125.3
-99.83
-71.79
-44.45
-20.24
-0.38
15.2
27.24
36.69
44.22
50.09
54.36
57.13
58.68
59.46
59.92
60.33
60.76
61.21
61.74
62.56
63.88
65.78
68.08
70.28
71.73
71.81
70.18
66.87
62.19
56.67
50.81
44.96
39.22
33.52
27.8
22.08
16.5
11.21
6.2
1.28
-3.93
-9.79
-16.45
-23.77
-31.32
-38.55
-45.03
-50.63
-55.61
-60.66
-66.77
-74.99
-85.95
-99.46
-114.1
-127.3
-135.86
-136.92
-128.84
-111.81
-87.88
-60.29
-32.43
-7.0
14.56
32.04
46.03
57.38
66.74
74.42
80.49
84.94
87.94
89.8
91.01
92.01
93.11
94.42
95.95
97.66
99.59
101.77
104.18
106.55
108.38
109.01
107.92
104.89
100.16
94.29
87.88
81.35
74.79
68.0
60.77
52.99
44.73
36.18
27.44
18.48
9.08
-1.01
-11.89
-23.44
-35.3
-46.91
-57.68
-67.14
-75.15
-82.01
-88.53
-95.88
-105.25
-117.3
-131.67
-146.66
-159.43
-166.73
-165.85
-155.56
-136.57
-111.3
-83.13
-55.37
-30.44
-9.56
7.21
20.47
30.99
39.44
46.21
51.53
55.49
58.17
59.65
60.03
59.44
58.02
55.98
53.7
51.63
50.26
49.95
50.72
52.18
53.56
53.93
52.57
49.24
44.25
38.29
32.1
26.18
20.61
15.13
9.38
3.21
-3.34
-9.92
-16.12
-21.62
-26.41
-30.77
-35.2
-40.29
-46.33
-53.23
-60.4
-67.05
-72.51
-76.62
-79.88
-83.3
-88.11
-95.26
-105.05
-116.88
-129.16
-139.52
-145.25
-143.99
-134.46
-116.94
-93.38
-66.79
-40.38
-16.63
3.21
19.1
31.79
42.16
50.8
57.92
63.44
67.25
69.41
70.21
70.08
69.49
68.8
68.28
68.16
68.57
69.62
71.21
73.06
74.63
75.35
74.78
72.76
69.5
65.37
60.74
55.83
50.69
45.27
39.56
33.66
27.67
21.73
15.86
9.96
3.92
-2.41
-9.12
-16.24
-23.67
-31.17
-38.41
-45.04
-50.88
-56.09
-61.22
-67.14
-74.77
-84.68
-96.66
-109.49
-120.97
-128.32
-129.01
-121.52
-105.96
-84.12
-58.91
-33.52
-10.52
8.67
23.78
35.38
44.26
51.08
56.16
59.6
61.48
62.02
61.62
60.84
60.16
59.9
60.14
60.77
61.62
62.65
63.82
65.11
66.31
67.04
66.82
65.29
62.3
58.06
52.91
47.27
41.45
35.66
29.94
24.3
18.71
13.1
7.39
1.44
-4.83
-11.52
-18.64
-26.19
-34.04
-41.98
-49.69
-56.88
-63.41
-69.45
-75.53
-82.53
-91.37
-102.62
-116.08
-130.45
-143.29
-151.6
-152.56
-144.53
-127.67
-104.0
-76.79
-49.49
-24.82
-4.13
12.52
25.91
36.97
46.34
54.24
60.58
65.35
68.68
70.93
72.53
73.76
74.71
75.32
75.58
75.66
75.94
76.78
78.3
80.23
81.97
82.73
81.9
79.29
75.13
70.01
64.55
59.23
54.22
49.36
44.33
38.79
32.6
25.83
18.8
11.88
5.4
-0.56
-6.27
-12.2
-18.92
-26.77
-35.7
-45.2
-54.48
-62.83
-69.92
-76.01
-81.9
-88.7
-97.45
-108.68
-122.03
-136.02
-148.11
-155.22
-154.58
-144.68
-125.85
-100.34
-71.59
-43.2
-17.89
3.05
19.66
32.83
43.58
52.61
60.2
66.38
71.1
74.48
76.76
78.22
79.05
79.35
79.16
78.57
77.83
77.28
77.23
77.77
78.68
79.45
79.5
78.26
75.5
71.31
66.11
60.46
54.92
49.81
45.11
40.5
35.51
29.78
23.24
16.22
9.31
3.08
-2.21
-6.79
-11.31
-16.52
-22.99
-30.77
-39.44
-48.3
-56.62
-63.98
-70.43
-76.41
-82.66
-90.06
-99.42
-111.12
-124.68
-138.47
-149.69
-154.99
-151.53
-138.1
-115.75
-87.55
-57.6
-29.6
-5.91
12.81
27.13
38.09
46.49
52.67
56.77
58.99
59.76
59.77
59.62
59.7
60.07
60.63
61.26
62.01
63.06
64.62
66.7
69.03
71.03
72.05
71.57
69.41
65.81
61.33
56.65
52.35
48.67
45.44
42.13
38.15
33.07
26.91
20.13
13.45
7.49
2.41
-2.2
-7.08
-12.98
-20.23
-28.56
-37.29
-45.63
-53.08
-59.6
-65.59
-71.76
-78.97
-88.03
-99.44
-112.95
-127.22
-139.7
-147.14
-146.53
-136.2
-116.59
-90.24
-60.93
-32.47
-7.63
12.42
27.86
39.6
48.64
55.61
60.78
64.26
66.18
66.85
66.76
66.42
66.21
66.33
66.73
67.25
67.79
68.37
69.16
70.36
71.95
73.6
74.69
74.48
72.48
68.6
63.33
57.47
51.83
46.86
42.56
38.49
34.06
28.83
22.69
15.89
8.96
2.46
-3.22
-8.04
-12.33
-16.7
-21.84
-28.22
-35.91
-44.48
-53.19
-61.21
-68.08
-73.87
-79.23
-85.23
-93.0
-103.36
-116.42
-131.24
-145.73
-156.91
-161.59
-157.28
-143.11
-120.3
-91.81
-61.53
-33.08
-8.8
10.49
25.34
36.86
46.12
53.71
59.76
64.24
67.15
68.76
69.52
69.91
70.28
70.75
71.29
71.88
72.54
73.42
74.63
76.21
77.97
79.47
80.2
79.69
77.66
74.15
69.44
64.03
58.41
52.98
47.89
42.99
37.93
32.27
25.78
18.53
10.94
3.65
-2.8
-8.23
-12.97
-17.73
-23.27
-30.08
-38.09
-46.78
-55.41
-63.38
-70.38
-76.54
-82.29
-88.25
-95.18
-103.84
-114.79
-127.95
-142.15
-155.01
-163.27
-163.75
-154.48
-135.56
-109.21
-79.1
-49.16
-22.41
-0.38
16.85
30.08
40.32
48.38
54.67
59.35
62.52
64.34
65.08
65.12
64.79
64.38
64.03
63.8
63.8
64.13
64.96
66.36
68.13
69.79
70.62
69.92
67.27
62.79
57.09
50.96
45.08
39.68
34.53
29.17
23.19
16.57
9.66
3.03
-2.86
-7.88
-12.34
-16.82
-21.89
-27.87
-34.67
-41.87
-48.91
-55.24
-60.59
-65.06
-69.15
-73.73
-79.78
-88.13
-99.02
-111.75
-124.5
-134.57
-138.99
-135.37
-122.76
-102.02
-75.67
-47.1
-19.66
4.23
23.45
38.07
48.88
56.75
62.34
65.98
67.85
68.19
67.45
66.26
65.24
64.81
65.05
65.79
66.75
67.75
68.75
69.8
70.85
71.63
71.67
70.46
67.7
63.4
57.87
51.49
44.64
37.56
30.45
23.51
17.0
11.03
5.44
-0.22
-6.57
-14.05
-22.71
-32.12
-41.53
-50.29
-58.06
-65.0
-71.62
-78.65
-86.83
-96.86
-109.12
-123.36
-138.3
-151.61
-160.2
-161.1
-152.56
-134.8
-110.08
-81.96
-54.14
-29.36
-8.84
7.58
20.82
31.82
41.16
48.96
55.1
59.48
62.19
63.5
63.77
63.33
62.48
61.51
60.76
60.53
61.05
62.31
63.98
65.58
66.56
66.53
65.35
63.11
60.01
56.25
51.93
47.07
41.68
35.86
29.82
23.86
18.17
12.73
7.21
1.17
-5.82
-13.84
-22.57
-31.42
-39.77
-47.28
-54.01
-60.42
-67.21
-75.21
-85.1
-97.24
-111.35
-126.14
-139.32
-147.94
-149.22
-141.44
-124.67
-100.84
-73.07
-44.79
-18.68
3.79
22.47
37.95
51.06
62.34
71.93
79.67
85.31
88.86
90.65
91.19
91.07
90.68
90.23
89.78
89.48
89.57
90.35
91.91
94.01
96.09
97.43
97.46
95.97
93.15
89.42
85.24
80.93
76.6
72.16
67.4
62.06
56.02
49.39
42.56
36.08
30.44
25.78
21.7
17.3
11.52
3.6
-6.58
-18.42
-30.8
-42.61
-53.18
-62.52
-71.38
-80.92
-92.31
-106.21
-122.34
-139.26
-154.44
-164.77
-167.32
-160.32
-143.78
-119.57
-90.88
-61.31
-33.8
-10.09
9.38
25.08
37.76
48.06
56.25
62.38
66.5
68.81
69.73
69.75
69.35
68.83
68.37
68.09
68.1
68.57
69.58
71.01
72.5
73.53
73.55
72.27
69.7
66.13
61.94
57.44
52.71
47.68
42.23
36.31
30.08
23.8
17.74
12.01
6.5
0.87
-5.31
-12.3
-20.04
-28.12
-35.91
-42.83
-48.66
-53.7
-58.75
-64.9
-73.18
-84.15
-97.49
-111.83
-124.78
-133.43
-135.04
-127.97
-112.2
-89.5
-62.91
-35.8
-10.96
10.09
27.08
40.65
51.61
60.47
67.24
71.65
73.56
73.23
71.48
69.35
67.72
67.0
67.04
67.36
67.57
67.56
67.61
68.0
68.75
69.39
69.17
67.36
63.65
58.36
52.28
46.29
41.01
36.51
32.39
27.98
22.74
16.49
9.47
2.26
-4.52
-10.49
-15.65
-20.45
-25.61
-31.83
-39.48
-48.4
-57.94
-67.16
-75.26
-81.87
-87.18
-91.96
-97.24
-104.07
-113.12
-124.4
-136.98
-148.92
-157.48
-159.77
-153.68
-138.62
-115.93
-88.56
-60.02
-33.4
-10.47
8.38
23.78
36.65
47.62
56.83
64.09
69.2
72.25
73.64
74.01
73.93
73.73
73.56
73.41
73.34
73.52
74.15
75.35
76.99
78.72
79.99
80.3
79.3
76.88
73.19
68.59
63.54
58.51
53.79
49.39
45.03
40.24
34.63
28.16
21.26
14.6
8.91
4.5
1.15
-1.79
-5.17
-9.63
-15.34
-22.01
-29.0
-35.63
-41.42
-46.24
-50.39
-54.62
-59.96
-67.54
-78.18
-91.94
-107.73
-123.25
-135.42
-141.09
-138.08
-125.84
-105.78
-80.79
-54.41
-29.77
-8.89
7.61
20.23
30.02
37.97
44.66
50.2
54.43
57.19
58.46
58.47
57.66
56.43
55.17
54.12
53.46
53.31
53.79
54.94
56.62
58.49
59.95
60.32
59.11
56.24
52.08
47.3
42.61
38.32
34.34
30.22
25.48
19.92
13.67
7.13
0.78
-5.08
-10.42
-15.46
-20.55
-26.03
-32.08
-38.62
-45.27
-51.49
-56.8
-61.11
-64.85
-68.99
-74.69
-82.88
-93.76
-106.41
-118.84
-128.31
-132.08
-128.21
-116.22
-97.32
-74.01
-49.34
-26.0
-5.75
10.77
23.78
33.88
41.61
47.22
50.74
52.2
51.81
50.08
47.78
45.69
44.37
44.02
44.47
45.41
46.54
47.75
49.02
50.23
51.05
50.97
49.54
46.62
42.52
37.79
33.04
28.6
24.47
20.37
16.02
11.34
6.43
1.56
-3.08
-7.52
-11.98
-16.78
-22.16
-28.18
-34.65
-41.26
-47.57
-53.3
-58.37
-63.03
-67.89
-73.83
-81.77
-92.34
-105.32
-119.39
-132.07
-140.24
-141.09
-133.06
-116.44
-93.39
-67.14
-41.04
-17.56
2.1
17.94
30.69
41.14
49.81
56.84
62.12
65.58
67.27
67.57
67.01
66.19
65.55
65.3
65.47
65.97
66.81
68.05
69.78
71.9
74.0
75.44
75.52
73.81
70.36
65.66
60.47
55.48
51.0
46.92
42.75
37.98
32.25
25.56
18.28
10.96
4.19
-1.71
-6.72
-11.13
-15.45
-20.18
-25.67
-31.9
-38.55
-45.1
-51.08
-56.35
-61.24
-66.5
-73.08
-81.67
-92.34
-104.23
-115.59
-124.03
-127.09
-122.99
-111.11
-92.37
-68.98
-43.87
-19.86
1.05
18.03
31.28
41.56
49.67
56.1
60.98
64.35
66.3
67.21
67.53
67.67
67.81
67.87
67.72
67.3
66.7
66.23
66.14
66.57
67.35
68.07
68.2
67.21
64.79
60.94
55.99
50.49
45.06
40.18
36.0
32.32
28.73
24.77
20.21
15.17
10.04
5.31
1.33
-1.91
-4.74
-7.74
-11.41
-16.04
-21.55
-27.56
-33.58
-39.18
-44.18
-48.62
-52.81
-57.22
-62.46
-69.12
-77.53
-87.5
-97.95
-106.93
-112.05
-111.14
-103.14
-88.54
-69.31
-48.27
-28.14
-10.77
3.17
13.97
22.35
28.97
34.17
38.05
40.64
42.05
42.54
42.33
41.6
40.45
39.03
37.6
36.58
36.36
37.15
38.87
41.07
43.15
44.45
44.48
42.98
40.02
35.97
31.4
26.91
22.91
19.44
16.25
12.96
9.28
5.15
0.72
-3.84
-8.47
-13.26
-18.29
-23.5
-28.65
-33.32
-37.2
-40.25
-42.71
-45.1
-47.99
-51.87
-57.1
-63.84
-72.02
-81.1
-90.01
-97.06
-100.28
-97.94
-89.26
-74.74
-56.26
-36.41
-17.73
-1.93
10.43
19.74
26.89
32.66
37.34
40.84
42.88
43.32
42.34
40.42
38.21
36.27
34.92
34.27
34.31
34.95
36.15
37.85
39.83
41.67
42.78
42.5
40.43
36.62
31.62
26.29
21.47
17.62
14.65
12.07
9.24
5.7
1.42
-3.27
-7.86
-11.9
-15.29
-18.21
-21.13
-24.55
-28.8
-33.9
-39.57
-45.33
-50.77
-55.77
-60.52
-65.5
-71.3
-78.48
-87.32
-97.66
-108.69
-118.85
-126.03
-128.05
-123.36
-111.7
-94.26
-73.45
-52.13
-32.72
-16.64
-4.13
5.45
13.06
19.52
25.2
30.01
33.64
35.9
36.89
37.07
37.01
37.13
37.53
37.98
38.21
38.13
37.88
37.75
37.86
38.02
37.77
36.67
34.57
31.69
28.61
25.94
24.07
23.05
22.6
22.24
21.37
19.53
16.47
12.25
7.26
2.06
-2.84
-7.23
-11.32
-15.75
-21.25
-28.4
-37.26
-47.28
-57.51
-66.89
-74.7
-80.78
-85.65
-90.29
-95.89
-103.41
-113.23
-124.8
-136.47
-145.71
-149.66
-145.95
-133.59
-113.46
-88.03
-60.65
-34.44
-11.45
7.7
23.44
36.65
48.01
57.73
65.69
71.73
75.97
78.78
80.77
82.43
84.03
85.58
86.95
88.08
89.05
90.06
91.23
92.48
93.46
93.67
92.62
90.16
86.45
81.98
77.29
72.72
68.27
63.6
58.26
52.02
45.02
37.77
30.92
24.95
19.88
15.3
10.57
5.12
-1.3
-8.49
-15.98
-23.2
-29.74
-35.55
-40.93
-46.52
-53.14
-61.51
-71.91
-83.81
-95.7
-105.19
-109.66
-107.02
-96.43
-78.74
-56.21
-31.84
-8.52
11.7
27.87
40.03
48.84
55.1
59.49
62.46
64.25
65.04
65.02
64.51
63.92
63.64
63.89
64.68
65.84
67.12
68.33
69.38
70.19
70.63
70.48
69.5
67.53
64.58
60.81
56.45
51.69
46.67
41.44
36.08
30.72
25.52
20.65
16.15
11.83
7.35
2.27
-3.77
-10.85
-18.75
-27.01
-35.11
-42.77
-49.98
-57.06
-64.6
-73.25
-83.55
-95.63
-108.91
-121.87
-132.15
-137.09
-134.5
-123.58
-105.26
-82.03
-57.09
-33.33
-12.66
4.26
17.72
28.38
36.85
43.49
48.46
51.87
53.9
54.84
55.02
54.8
54.44
54.19
54.21
54.64
55.56
56.96
58.74
60.67
62.38
63.44
63.47
62.24
59.8
56.45
52.66
48.79
44.96
40.98
36.5
31.26
25.27
18.89
12.7
7.2
2.59
-1.36
-5.21
-9.53
-14.68
-20.6
-26.92
-33.11
-38.77
-43.77
-48.34
-53.04
-58.65
-66.03
-75.73
-87.61
-100.5
-112.14
-119.68
-120.49
-113.11
-97.83
-76.66
-52.61
-28.73
-7.29
10.58
24.77
35.78
44.26
50.74
55.59
59.05
61.35
62.7
63.38
63.65
63.75
63.81
63.9
64.06
64.34
64.86
65.78
67.09
68.51
69.5
69.41
67.77
64.51
60.02
54.94
49.9
45.19
40.79
36.42
31.78
26.79
21.58
16.47
11.76
7.57
3.74
-0.14
-4.61
-10.03
-16.52
-23.79
-31.23
-38.16
-44.09
-48.99
-53.42
-58.36
-64.96
-74.08
-85.76
-99.0
-111.72
-121.16
-124.62
-120.32
-107.97
-88.92
-65.76
-41.53
-18.91
0.37
15.7
27.33
35.93
42.17
46.44
48.88
49.62
48.93
47.34
45.51
44.05
43.29
43.23
43.6
44.12
44.67
45.3
46.11
47.14
48.16
48.74
48.39
46.74
43.71
39.44
34.26
28.61
22.9
17.48
12.55
8.09
3.82
-0.77
-6.18
-12.72
-20.22
-28.09
-35.57
-42.04
-47.4
-52.08
-56.94
-62.95
-70.89
-81.11
-93.37
-106.7
-119.3
-128.8
-132.7
-129.14
-117.58
-99.14
-76.33
-52.22
-29.48
-9.77
6.45
19.52
30.02
38.39
44.83
49.42
52.33
53.93
54.67
54.91
54.89
54.69
54.38
54.11
54.17
54.81
56.15
57.98
59.81
61.03
61.13
59.85
57.29
53.79
49.76
45.5
41.15
36.61
31.77
26.53
20.92
15.12
9.37
3.88
-1.31
-6.38
-11.67
-17.5
-24.02
-31.08
-38.27
-45.19
-51.56
-57.51
-63.54
-70.33
-78.62
-88.9
-101.2
-114.88
-128.4
-139.46
-145.34
-143.69
-133.39
-115.05
-90.97
-64.45
-38.7
-15.93
2.98
18.33
30.91
41.46
50.27
57.31
62.49
65.84
67.66
68.4
68.53
68.35
68.04
67.67
67.34
67.22
67.5
68.31
69.57
70.99
72.03
72.15
71.01
68.58
65.17
61.27
57.33
53.59
49.96
46.09
41.58
36.18
29.97
23.31
16.72
10.59
5.02
-0.25
-5.71
-11.82
-18.82
-26.54
-34.52
-42.19
-49.06
-54.99
-60.26
-65.56
-71.85
-80.12
-90.95
-104.13
-118.31
-131.02
-139.24
-140.23
-132.47
-116.26
-93.68
-67.92
-42.27
-19.24
-0.1
15.03
26.74
35.76
42.66
47.72
51.1
52.93
53.46
53.07
52.16
51.12
50.26
49.75
49.65
49.94
50.58
51.48
52.57
53.7
54.64
55.03
54.48
52.69
49.5
45.08
39.78
34.15
28.67
23.71
19.35
15.43
11.57
7.34
2.36
-3.51
-10.06
-16.86
-23.37
-29.16
-34.07
-38.4
-42.7
-47.73
-54.2
-62.68
-73.32
-85.68
-98.46
-109.53
-116.25
-116.15
-107.81
-91.47
-69.1
-43.86
-19.08
2.75
20.5
34.33
45.1
53.65
60.38
65.19
67.84
68.33
67.13
65.03
62.91
61.35
60.5
60.17
60.1
60.16
60.39
60.91
61.61
62.19
62.13
60.97
58.5
54.81
50.25
45.2
39.9
34.48
28.95
23.37
17.81
12.36
7.04
1.78
-3.57
-9.17
-15.13
-21.49
-28.17
-34.95
-41.57
-47.73
-53.31
-58.46
-63.68
-69.79
-77.73
-88.05
-100.58
-114.04
-126.12
-134.03
-135.16
-128.03
-112.76
-91.07
-65.87
-40.27
-16.87
2.84
18.48
30.53
39.76
46.89
52.37
56.38
59.03
60.47
60.98
60.95
60.76
60.63
60.65
60.79
61.0
61.33
61.9
62.87
64.22
65.66
66.65
66.54
64.84
61.46
56.73
51.3
45.82
40.7
35.91
31.13
25.96
20.18
13.92
7.59
1.75
-3.19
-7.17
-10.53
-13.93
-18.06
-23.39
-29.92
-37.19
-44.47
-51.1
-56.81
-61.84
-66.89
-72.89
-80.72
-90.93
-103.47
-117.38
-130.66
-140.57
-144.17
-139.33
-125.49
-104.04
-77.92
-50.66
-25.33
-3.73
13.71
27.54
38.64
47.68
55.04
60.82
65.16
68.24
70.34
71.67
72.3
72.28
71.66
70.67
69.71
69.23
69.58
70.79
72.53
74.2
75.11
74.74
72.81
69.42
64.98
60.03
55.11
50.55
46.35
42.22
37.7
32.42
26.31
19.65
12.97
6.84
1.55
-3.05
-7.49
-12.41
-18.29
-25.18
-32.66
-40.03
-46.67
-52.34
-57.33
-62.31
-68.24
-76.0
-86.16
-98.64
-112.45
-125.6
-135.33
-138.8
-133.96
-120.42
-99.69
-74.7
-48.93
-25.29
-5.41
10.35
22.5
31.83
38.9
43.97
47.07
48.32
48.0
46.65
44.94
43.53
42.91
43.24
44.37
45.87
47.28
48.24
48.65
48.56
48.08
47.24
45.9
43.78
40.62
36.33
31.01
25.05
18.89
12.91
7.29
1.9
-3.61
-9.68
-16.66
-24.61
-33.18
-41.79
-49.8
-56.77
-62.7
-68.07
-73.76
-80.81
-90.14
-102.21
-116.74
-132.45
-147.01
-157.43
-160.74
-154.94
-139.74
-116.73
-88.98
-59.99
-32.8
-9.21
10.23
25.88
38.49
48.74
57.06
63.66
68.66
72.28
74.81
76.61
78.03
79.34
80.66
82.01
83.37
84.69
85.9
86.9
87.5
87.43
86.43
84.33
81.15
77.05
72.26
66.95
61.18
54.95
48.2
40.97
33.39
25.69
18.08
10.61
3.21
-4.41
-12.55
-21.4
-30.94
-40.88
-50.75
-60.12
-68.77
-76.85
-84.89
-93.67
-104.05
-116.55
-131.0
-146.12
-159.67
-168.75
-170.68
-163.91
-148.55
-126.48
-100.63
-74.14
-49.39
-27.61
-8.92
7.23
21.38
33.93
44.88
54.06
61.34
66.8
70.73
73.59
75.82
77.69
79.35
80.77
82.05
83.37
85.03
87.23
89.89
92.49
94.26
94.45
92.67
89.04
84.12
78.62
73.06
67.57
61.98
55.98
49.41
42.37
35.18
28.15
21.41
14.81
8.04
0.78
-7.05
-15.28
-23.54
-31.51
-38.99
-46.02
-52.91
-60.17
-68.45
-78.41
-90.36
-103.89
-117.58
-129.04
-135.47
-134.48
-124.9
-107.26
-83.63
-56.95
-30.18
-5.58
15.64
33.28
47.76
59.69
69.53
77.43
83.28
86.98
88.65
88.78
88.13
87.44
87.19
87.44
88.01
88.69
89.37
90.12
90.94
91.6
91.65
90.59
88.14
84.37
79.68
74.57
69.35
64.04
58.45
52.39
45.86
39.12
32.49
26.27
20.44
14.75
8.78
2.18
-5.22
-13.3
-21.73
-30.11
-38.13
-45.68
-52.87
-60.02
-67.71
-76.61
-87.3
-99.86
-113.45
-126.17
-135.35
-138.26
-133.07
-119.61
-99.5
-75.58
-51.0
-28.24
-8.65
7.58
20.92
31.96
41.08
48.29
53.47
56.54
57.66
57.31
56.15
54.86
53.97
53.8
54.43
55.8
57.74
59.93
61.94
63.24
63.3
61.8
58.69
54.26
49.04
43.57
38.28
33.38
28.76
24.15
19.27
14.0
8.4
2.74
-2.77
-8.03
-13.18
-18.46
-24.03
-29.88
-35.77
-41.44
-46.69
-51.58
-56.33
-61.33
-67.07
-74.14
-83.02
-93.82
-105.85
-117.41
-125.96
-128.83
-124.05
-111.23
-91.71
-68.15
-43.71
-21.02
-1.62
14.12
26.69
36.88
45.3
52.25
57.74
61.64
63.86
64.57
64.08
62.89
61.47
60.18
59.23
58.66
58.46
58.6
59.01
59.58
60.03
59.95
58.87
56.42
52.57
47.66
42.38
37.49
33.54
30.6
28.29
25.94
22.89
18.82
13.86
8.49
3.38
-1.03
-4.65
-7.83
-11.24
-15.57
-21.25
-28.28
-36.12
-43.99
-51.07
-56.91
-61.6
-65.77
-70.37
-76.34
-84.38
-94.52
-105.98
-117.1
-125.58
-128.93
-125.23
-113.79
-95.51
-72.73
-48.53
-25.77
-6.36
9.07
20.98
30.31
37.92
44.23
49.22
52.71
54.65
55.27
55.06
54.54
53.99
53.47
52.84
51.98
50.97
50.06
49.47
49.23
49.07
48.57
47.26
44.95
41.71
37.81
33.57
29.3
25.18
21.37
17.89
14.68
11.53
8.11
4.19
-0.24
-4.94
-9.51
-13.61
-17.21
-20.57
-24.17
-28.47
-33.72
-39.9
-46.71
-53.75
-60.58
-66.9
-72.57
-77.75
-82.87
-88.58
-95.6
-104.43
-115.1
-126.88
-138.13
-146.61
-149.92
-146.31
-135.31
-118.0
-96.72
-74.33
-53.31
-35.1
-19.9
-7.12
4.06
14.13
23.07
30.45
35.87
39.22
40.85
41.43
41.72
42.31
43.49
45.3
47.62
50.37
53.53
57.03
60.64
63.87
66.09
66.71
65.46
62.55
58.55
54.21
50.13
46.54
43.29
39.95
36.05
31.33
25.86
20.03
14.38
9.39
5.24
1.74
-1.67
-5.59
-10.48
-16.39
-22.99
-29.7
-35.93
-41.45
-46.49
-51.72
-58.05
-66.23
-76.51
-88.22
-99.82
-109.03
-113.49
-111.37
-101.96
-85.98
-65.31
-42.52
-20.1
0.09
17.17
31.1
42.38
51.62
59.17
65.1
69.32
71.81
72.72
72.46
71.5
70.23
68.89
67.59
66.48
65.78
65.75
66.57
68.08
69.85
71.23
71.62
70.63
68.24
64.76
60.73
56.73
53.21
50.38
48.12
45.99
43.42
39.96
35.46
30.22
24.86
20.03
16.14
13.17
10.63
7.74
3.81
-1.59
-8.38
-16.11
-24.13
-31.88
-39.04
-45.7
-52.31
-59.58
-68.3
-79.01
-91.59
-104.95
-117.01
-125.1
-126.77
-120.64
-106.99
-87.73
-65.69
-43.74
-24.04
-7.63
5.42
15.56
23.48
29.73
34.72
38.65
41.67
43.84
45.32
46.36
47.22
48.16
49.25
50.44
51.62
52.75
53.9
55.19
56.67
58.11
59.1
59.14
57.89
55.28
51.56
47.16
42.57
38.19
34.25
30.8
27.66
24.51
20.96
16.73
11.76
6.36
1.04
-3.6
-7.27
-10.16
-12.92
-16.43
-21.38
-27.92
-35.6
-43.55
-50.9
-57.18
-62.5
-67.43
-72.77
-79.28
-87.47
-97.46
-108.85
-120.5
-130.41
-136.02
-134.82
-125.33
-107.74
-84.17
-57.97
-32.74
-11.15
5.61
17.8
26.54
33.02
38.08
42.02
44.86
46.62
47.45
47.71
47.75
47.82
47.95
48.1
48.24
48.47
49.03
50.14
51.82
53.77
55.43
56.18
55.62
53.7
50.73
47.22
43.6
40.11
36.66
32.97
28.7
23.75
18.26
12.67
7.42
2.8
-1.25
-5.14
-9.38
-14.31
-19.94
-25.9
-31.64
-36.69
-40.9
-44.51
-48.1
-52.5
-58.57
-66.92
-77.57
-89.61
-101.12
-109.49
-112.11
-107.24
-94.72
-76.08
-54.07
-31.77
-11.67
4.89
17.7
27.35
34.63
40.15
44.15
46.61
47.51
46.96
45.39
43.46
41.92
41.33
41.96
43.71
46.22
49.03
51.75
54.15
56.05
57.28
57.62
56.83
54.76
51.46
47.13
42.17
36.96
31.83
26.98
22.52
18.39
14.43
10.32
5.67
0.16
-6.29
-13.45
-20.69
-27.34
-32.91
-37.4
-41.31
-45.54
-51.13
-58.96
-69.48
-82.47
-96.78
-110.38
-120.49
-124.36
-120.04
-107.25
-87.55
-63.96
-39.97
-18.42
-0.78
12.93
23.6
32.33
39.87
46.46
52.0
56.45
59.93
62.75
65.16
67.17
68.57
69.11
68.73
67.73
66.62
65.89
65.73
65.93
66.0
65.43
63.93
61.44
58.09
54.01
49.29
43.9
37.9
31.38
24.57
17.71
11.03
4.61
-1.61
-7.8
-14.18
-20.9
-28.0
-35.31
-42.51
-49.26
-55.31
-60.77
-65.99
-71.72
-78.84
-88.04
-99.48
-112.35
-124.72
-133.86
-136.92
-131.86
-118.33
-97.87
-73.43
-48.44
-25.71
-6.72
8.39
20.33
30.02
38.05
44.65
49.79
53.44
55.75
57.02
57.56
57.63
57.34
56.75
55.99
55.32
55.09
55.62
56.96
58.78
60.39
60.97
59.93
57.18
53.14
48.49
43.88
39.51
35.22
30.65
25.5
19.79
13.8
7.93
2.45
-2.59
-7.41
-12.36
-17.78
-23.84
-30.43
-37.22
-43.73
-49.5
-54.37
-58.55
-62.68
-67.66
-74.42
-83.5
-94.74
-106.94
-117.94
-124.97
-125.43
-117.75
-102.02
-80.11
-55.08
-30.24
-8.15
9.91
24.0
34.96
43.72
50.82
56.23
59.66
60.93
60.27
58.38
56.23
54.64
53.94
53.94
54.1
53.89
53.1
51.89
50.6
49.51
48.53
47.17
44.84
41.01
35.59
28.95
21.74
14.63
8.06
2.05
-3.72
-9.69
-16.25
-23.45
-31.05
-38.52
-45.26
-50.84
-55.16
-58.55
-61.7
-65.52
-70.91
-78.54
-88.58
-100.48
-112.85
-123.56
-130.11
-130.29
-122.88
-108.09
-87.64
-64.23
-40.71
-19.24
-0.95
14.15
26.63
37.13
45.98
53.12
58.31
61.5
62.93
63.22
63.08
63.08
63.48
64.27
65.34
66.61
68.11
69.89
71.91
73.89
75.36
75.86
75.1
73.08
70.1
66.54
62.71
58.77
54.71
50.44
45.86
40.96
35.71
30.12
24.16
17.8
10.99
3.74
-3.88
-11.73
-19.62
-27.32
-34.65
-41.6
-48.38
-55.45
-63.45
-73.03
-84.53
-97.7
-111.4
-123.62
-131.74
-133.29
-126.7
-111.93
-90.68
-65.83
-40.58
-17.51
2.07
18.06
31.18
42.33
52.06
60.46
67.25
72.21
75.39
77.14
78.0
78.44
78.65
78.57
78.08
77.17
76.12
75.35
75.26
75.85
76.74
77.17
76.4
73.95
69.84
64.55
58.83
53.42
48.75
44.81
41.2
37.27
32.5
26.66
19.95
12.98
6.45
0.93
-3.47
-7.13
-10.81
-15.32
-21.15
-28.25
-36.06
-43.76
-50.67
-56.53
-61.65
-66.76
-72.8
-80.61
-90.66
-102.79
-115.97
-128.24
-136.94
-139.36
-133.57
-119.23
-97.85
-72.34
-46.08
-21.89
-1.31
15.45
28.99
40.14
49.41
56.95
62.69
66.61
68.91
69.97
70.22
70.01
69.54
68.91
68.18
67.45
66.89
66.65
66.81
67.25
67.64
67.54
66.54
64.4
61.21
57.26
52.98
48.59
44.07
39.13
33.46
27.0
20.07
13.33
7.45
2.74
-1.03
-4.62
-8.94
-14.61
-21.69
-29.68
-37.72
-45.04
-51.28
-56.56
-61.49
-66.93
-73.71
-82.43
-93.15
-105.11
-116.69
-125.49
-128.91
-124.89
-112.7
-93.33
-69.24
-43.65
-19.46
1.43
18.41
31.85
42.49
50.87
57.19
61.45
63.68
64.26
63.79
63.01
62.48
62.44
62.78
63.24
63.61
63.78
63.84
63.91
64.03
64.05
63.59
62.18
59.48
55.42
50.36
44.9
39.69
35.07
30.87
26.56
21.5
15.4
8.48
1.41
-5.03
-10.37
-14.76
-18.85
-23.46
-29.15
-35.94
-43.33
-50.58
-57.04
-62.43
-66.96
-71.25
-76.2
-82.83
-91.93
-103.69
-117.3
-130.71
-140.92
-144.78
-140.06
-126.34
-105.24
-79.83
-53.58
-29.28
-8.48
8.52
22.18
33.15
41.92
48.83
54.12
58.08
61.0
63.12
64.61
65.58
66.12
66.38
66.5
66.59
66.75
67.05
67.54
68.27
69.07
69.61
69.34
67.71
64.4
59.59
53.92
48.25
43.29
39.25
35.83
32.36
28.19
23.03
17.0
10.59
4.38
-1.18
-5.96
-10.12
-14.09
-18.44
-23.67
-30.03
-37.37
-45.15
-52.69
-59.42
-65.19
-70.42
-75.92
-82.66
-91.37
-102.34
-115.05
-128.17
-139.58
-146.69
-147.12
-139.38
-123.53
-101.32
-75.7
-49.97
-26.79
-7.48
7.95
20.38
30.82
39.92
47.76
54.06
58.54
61.23
62.49
62.88
62.94
63.0
63.19
63.49
63.91
64.54
65.51
66.88
68.49
69.92
70.56
69.88
67.53
63.59
58.5
52.94
47.61
42.88
38.72
34.67
30.1
24.52
17.92
10.77
3.9
-1.96
-6.5
-10.04
-13.41
-17.55
-23.04
-29.83
-37.37
-44.86
-51.64
-57.49
-62.63
-67.55
-72.97
-79.62
-88.17
-98.9
-111.29
-123.75
-133.7
-138.2
-134.93
-123.08
-103.79
-79.8
-54.44
-30.66
-10.27
6.19
19.07
29.07
36.81
42.65
46.81
49.4
50.68
50.96
50.65
50.17
49.88
50.03
50.72
51.91
53.47
55.2
56.91
58.35
59.25
59.28
58.16
55.71
51.98
47.23
41.82
36.14
30.4
24.67
18.94
13.2
7.53
2.03
-3.27
-8.5
-13.93
-19.8
-26.1
-32.62
-38.97
-44.82
-50.14
-55.19
-60.47
-66.54
-73.83
-82.64
-92.93
-104.24
-115.39
-124.47
-129.13
-127.25
-117.7
-100.96
-79.05
-54.88
-31.27
-10.12
7.9
23.01
35.8
46.65
55.61
62.47
67.18
69.97
71.46
72.33
73.17
74.19
75.35
76.43
77.28
77.89
78.44
79.02
79.61
79.94
79.65
78.38
75.99
72.53
68.26
63.5
58.58
53.71
48.95
44.11
38.87
32.93
26.25
19.17
12.29
6.22
1.18
-3.17
-7.62
-12.97
-19.64
-27.39
-35.5
-43.2
-49.99
-55.94
-61.65
-67.96
-75.75
-85.62
-97.64
-111.14
-124.51
-135.4
-141.12
-139.45
-129.4
-111.62
-88.33
-62.58
-37.4
-14.96
3.8
18.98
31.26
41.35
49.73
56.51
61.68
65.3
67.62
69.04
69.91
70.5
70.89
71.07
71.07
71.04
71.21
71.82
72.89
74.24
75.4
75.77
74.76
72.02
67.59
61.96
55.87
50.09
45.05
40.71
36.57
31.99
26.54
20.28
13.72
7.55
2.26
-2.1
-5.95
-9.98
-14.86
-20.95
-28.18
-36.14
-44.18
-51.68
-58.24
-63.87
-68.99
-74.39
-81.02
-89.7
-100.81
-113.85
-127.27
-138.58
-144.82
-143.43
-133.14
-114.51
-89.89
-62.67
-36.31
-13.34
5.11
19.17
29.83
38.2
45.13
51.01
55.88
59.61
62.11
63.42
63.78
63.47
62.75
61.84
60.94
60.23
59.99
60.38
61.4
62.77
64.0
64.5
63.84
61.79
58.41
53.96
48.83
43.38
37.93
32.67
27.64
22.76
17.9
12.96
7.9
2.67
-2.84
-8.81
-15.41
-22.64
-30.22
-37.71
-44.61
-50.69
-56.11
-61.43
-67.48
-75.09
-84.77
-96.37
-108.82
-120.03
-127.26
-127.79
-119.93
-103.67
-80.93
-54.96
-29.32
-6.8
11.23
24.81
34.87
42.51
48.52
53.25
56.74
58.95
59.99
60.09
59.58
58.79
57.94
57.23
56.77
56.68
57.08
58.03
59.42
60.91
61.95
61.93
60.45
57.46
53.27
48.48
43.56
38.78
34.01
28.97
23.39
17.24
10.74
4.19
-2.21
-8.49
-14.92
-21.81
-29.29
-37.18
-45.06
-52.42
-58.96
-64.69
-69.98
-75.5
-82.04
-90.26
-100.46
-112.25
-124.35
-134.55
-140.21
