0
9.87
10.44
11.14
11.82
12.33
12.54
12.31
11.56
10.19
8.26
5.9
3.28
0.55
-2.18
-4.87
-7.52
-10.15
-12.76
-15.41
-18.07
-20.58
-22.53
-23.38
-22.51
-19.61
-14.76
-8.51
-1.69
4.85
10.48
14.88
17.95
19.69
20.16
19.47
17.89
15.83
13.74
12.05
11.03
10.73
11.03
11.67
12.32
12.62
12.3
11.23
9.53
7.42
5.21
3.1
1.19
-0.61
-2.45
-4.52
-7.0
-10.02
-13.66
-17.81
-22.09
-25.83
-28.18
-28.41
-26.13
-21.47
-15.04
-7.74
-0.42
6.22
11.77
16.02
18.88
20.29
20.32
19.18
17.29
15.16
13.29
11.98
11.32
11.15
11.2
11.24
11.07
10.62
9.83
8.68
7.13
5.23
3.03
0.65
-1.8
-4.25
-6.73
-9.39
-12.47
-16.12
-20.33
-24.79
-28.86
-31.73
-32.65
-31.21
-27.41
-21.72
-14.82
-7.44
-0.16
6.59
12.52
17.38
20.95
23.1
23.8
23.19
21.57
19.34
16.95
14.81
13.2
12.21
11.78
11.75
11.9
12.06
12.04
11.73
10.98
9.71
7.9
5.62
3.05
0.38
-2.23
-4.79
-7.4
-10.18
-13.28
-16.69
-20.24
-23.57
-26.14
-27.37
-26.73
-23.92
-19.05
-12.58
-5.26
2.06
8.73
14.3
18.58
21.48
22.95
22.96
21.6
19.18
16.26
13.52
11.5
10.48
10.34
10.7
11.16
11.45
11.48
11.26
10.74
9.79
8.23
5.97
3.15
0.02
-3.08
-5.89
-8.35
-10.55
-12.72
-15.13
-18.0
-21.48
-25.51
-29.7
-33.37
-35.67
-35.87
-33.59
-29.0
-22.74
-15.56
-8.22
-1.26
4.94
10.04
13.76
15.89
16.45
15.73
14.21
12.45
10.85
9.65
8.89
8.53
8.46
8.64
8.99
9.45
9.87
10.11
9.97
9.29
8.01
6.14
3.86
1.41
-1.0
-3.3
-5.55
-7.9
-10.51
-13.43
-16.52
-19.49
-21.89
-23.25
-23.12
-21.26
-17.66
-12.62
-6.63
-0.28
5.9
11.52
16.29
20.0
22.39
23.26
22.55
20.44
17.4
14.09
11.17
9.1
8.06
7.89
8.26
8.81
9.21
9.26
8.81
7.81
6.25
4.22
1.84
-0.77
-3.49
-6.35
-9.45
-12.92
-16.81
-20.96
-25.0
-28.32
-30.31
-30.43
-28.41
-24.28
-18.4
-11.39
-3.98
3.09
9.24
14.08
17.44
19.27
19.68
18.8
16.88
14.33
11.65
9.37
7.83
7.1
6.98
7.15
7.3
7.29
7.07
6.59
5.72
4.28
2.2
-0.41
-3.3
-6.19
-8.97
-11.8
-15.01
-18.84
-23.17
-27.46
-30.84
-32.42
-31.56
-28.11
-22.42
-15.22
-7.34
0.44
7.55
13.6
18.36
21.66
23.39
23.57
22.4
20.3
17.83
15.54
13.8
12.74
12.21
11.97
11.73
11.34
10.73
9.89
8.78
7.36
5.57
3.41
0.94
-1.72
-4.46
-7.26
-10.17
-13.33
-16.83
-20.62
-24.42
-27.68
-29.76
-30.04
-28.21
-24.3
-18.68
-11.94
-4.73
2.4
8.98
14.6
18.93
21.71
22.82
22.39
20.77
18.44
15.91
13.57
11.67
10.31
9.48
9.13
9.13
9.34
9.54
9.49
8.94
7.72
5.76
3.08
-0.19
-3.83
-7.64
-11.38
-14.97
-18.41
-21.83
-25.36
-28.94
-32.22
-34.58
-35.25
-33.67
-29.63
-23.51
-16.03
-8.1
-0.54
6.09
11.45
15.35
17.64
18.21
17.12
14.71
11.61
8.6
6.39
5.35
5.45
6.3
7.39
8.3
8.79
8.79
8.32
7.4
6.07
4.36
2.39
0.26
-1.93
-4.19
-6.64
-9.48
-12.89
-16.86
-21.13
-25.14
-28.11
-29.25
-27.99
-24.25
-18.45
-11.4
-4.0
2.99
9.08
13.99
17.5
19.41
19.54
17.96
15.06
11.55
8.25
5.81
4.51
4.21
4.5
4.91
5.05
4.7
3.88
2.69
1.34
-0.03
-1.42
-2.99
-4.99
-7.7
-11.22
-15.44
-20.07
-24.58
-28.33
-30.64
-30.87
-28.6
-23.8
-16.82
-8.48
0.22
8.32
15.1
20.19
23.46
24.94
24.71
22.96
20.08
16.66
13.42
10.93
9.51
9.05
9.12
9.17
8.78
7.8
6.36
4.72
3.12
1.59
-0.02
-2.04
-4.76
-8.34
-12.75
-17.79
-23.04
-27.94
-31.76
-33.75
-33.25
-29.91
-23.87
-15.77
-6.56
2.69
11.1
18.07
23.29
26.65
28.17
28.03
26.5
24.05
21.19
18.47
16.31
14.93
14.36
14.4
14.69
14.82
14.49
13.54
12.07
10.26
8.26
6.07
3.51
0.36
-3.51
-8.07
-13.1
-18.35
-23.48
-28.11
-31.72
-33.65
-33.28
-30.21
-24.52
-16.75
-7.82
1.32
9.85
17.21
23.07
27.2
29.48
29.88
28.55
25.88
22.47
19.03
16.18
14.32
13.51
13.51
13.91
14.31
14.36
13.93
12.91
11.27
8.99
6.09
2.68
-1.03
-4.79
-8.45
-12.03
-15.7
-19.69
-24.06
-28.54
-32.51
-35.15
-35.69
-33.66
-29.05
-22.27
-14.05
-5.19
3.52
11.43
17.99
22.73
25.32
25.72
24.2
21.33
17.84
14.45
11.67
9.82
8.95
8.99
9.71
10.75
11.71
12.18
11.9
10.78
8.93
6.53
3.74
0.69
-2.57
-5.95
-9.35
-12.73
-16.16
-19.85
-23.96
-28.4
-32.66
-35.87
-37.01
-35.37
-30.78
-23.69
-15.01
-5.76
3.15
11.13
17.73
22.67
25.68
26.59
25.47
22.67
18.91
15.09
12.04
10.32
10.04
10.9
12.32
13.68
14.53
14.66
14.12
13.07
11.61
9.77
7.52
4.82
1.69
-1.76
-5.46
-9.35
-13.46
-17.77
-22.06
-25.84
-28.42
-29.05
-27.21
-22.79
-16.11
-7.89
0.99
9.62
17.21
23.22
27.3
29.33
29.4
27.74
24.7
20.78
16.59
12.8
10.0
8.56
8.44
9.23
10.29
10.95
10.78
9.7
7.84
5.45
2.75
-0.18
-3.34
-6.8
-10.6
-14.78
-19.34
-24.23
-29.21
-33.86
-37.48
-39.26
-38.48
-34.74
-28.16
-19.38
-9.4
0.69
9.96
17.82
24.01
28.5
31.31
32.45
31.94
29.96
26.91
23.41
20.18
17.77
16.46
16.14
16.41
16.75
16.68
15.96
14.5
12.45
9.96
7.22
4.29
1.18
-2.11
-5.64
-9.4
-13.37
-17.55
-21.93
-26.41
-30.69
-34.27
-36.45
-36.5
-33.89
-28.52
-20.79
-11.46
-1.5
8.13
16.69
23.68
28.77
31.83
32.88
32.13
30.02
27.14
24.15
21.6
19.81
18.83
18.48
18.44
18.43
18.2
17.6
16.49
14.82
12.55
9.73
6.46
2.91
-0.8
-4.55
-8.31
-12.04
-15.75
-19.45
-23.22
-27.11
-31.15
-35.17
-38.77
-41.3
-42.01
-40.3
-35.99
-29.39
-21.2
-12.29
-3.42
4.86
12.14
18.1
22.32
24.47
24.47
22.65
19.78
16.83
14.64
13.6
13.58
14.14
14.77
15.14
15.21
15.07
14.79
14.31
13.43
11.95
9.75
6.9
3.66
0.32
-2.89
-5.87
-8.67
-11.38
-14.13
-16.97
-19.93
-23.0
-26.11
-29.06
-31.5
-32.89
-32.64
-30.34
-25.87
-19.53
-11.97
-3.93
3.88
10.89
16.68
20.94
23.4
23.95
22.77
20.32
17.33
14.55
12.56
11.58
11.49
11.97
12.68
13.29
13.63
13.56
12.99
11.84
10.04
7.59
4.57
1.13
-2.51
-6.06
-9.34
-12.25
-14.9
-17.53
-20.39
-23.55
-26.78
-29.51
-30.96
-30.44
-27.6
-22.55
-15.81
-8.14
-0.3
7.04
13.4
18.42
21.84
23.53
23.54
22.11
19.7
16.83
14.04
11.7
10.03
9.05
8.64
8.61
8.71
8.68
8.29
7.36
5.8
3.58
0.8
-2.43
-5.88
-9.4
-12.86
-16.26
-19.67
-23.25
-27.02
-30.84
-34.28
-36.74
-37.56
-36.24
-32.62
-26.9
-19.6
-11.39
-2.99
4.96
11.91
17.43
21.2
23.13
23.35
22.22
20.27
18.06
16.04
14.49
13.47
12.87
12.5
12.21
11.88
11.47
10.92
10.11
8.86
7.02
4.55
1.59
-1.58
-4.66
-7.53
-10.26
-13.05
-16.18
-19.78
-23.78
-27.9
-31.69
-34.57
-35.98
-35.41
-32.6
-27.6
-20.85
-13.07
-5.08
2.4
8.88
14.09
17.91
20.32
21.3
20.97
19.52
17.31
14.77
12.33
10.29
8.82
7.95
7.55
7.45
7.39
7.13
6.5
5.48
4.1
2.45
0.56
-1.6
-4.1
-6.97
-10.16
-13.49
-16.77
-19.9
-22.94
-26.05
-29.38
-32.86
-36.12
-38.49
-39.23
-37.77
-33.94
-28.03
-20.7
-12.79
-5.0
2.15
8.33
13.34
16.95
18.93
19.22
17.96
15.64
12.93
10.53
8.93
8.3
8.5
9.18
9.99
10.62
10.88
10.67
9.96
8.74
7.0
4.8
2.24
-0.53
-3.28
-5.84
-8.13
-10.23
-12.31
-14.59
-17.24
-20.23
-23.3
-25.93
-27.46
-27.28
-24.99
-20.6
-14.53
-7.49
-0.32
6.33
11.99
16.48
19.72
21.64
22.15
21.26
19.16
16.28
13.22
10.52
8.55
7.41
6.93
6.83
6.79
6.56
5.99
5.03
3.68
1.97
-0.06
-2.38
-4.96
-7.76
-10.75
-13.93
-17.32
-20.93
-24.69
-28.32
-31.33
-33.05
-32.88
-30.49
-25.92
-19.59
-12.18
-4.37
3.26
10.25
16.18
20.69
23.45
24.28
23.31
20.98
17.94
14.91
12.42
10.71
9.73
9.2
8.83
8.4
7.81
7.05
6.13
5.01
3.59
1.77
-0.5
-3.23
-6.39
-9.9
-13.74
-17.85
-22.16
-26.47
-30.5
-33.81
-35.87
-36.14
-34.19
-29.91
-23.54
-15.71
-7.29
0.89
8.21
14.31
19.06
22.39
24.23
24.57
23.57
21.58
19.17
16.88
15.1
13.98
13.37
13.06
12.82
12.51
12.04
11.33
10.31
8.86
6.94
4.56
1.81
-1.17
-4.27
-7.39
-10.58
-13.93
-17.61
-21.64
-25.85
-29.73
-32.55
-33.53
-32.12
-28.17
-22.04
-14.44
-6.27
1.65
8.67
14.39
18.55
21.03
21.81
21.02
19.01
16.31
13.48
11.02
9.23
8.16
7.72
7.79
8.19
8.75
9.25
9.41
8.96
7.77
5.83
3.29
0.37
-2.75
-5.96
-9.2
-12.46
-15.75
-19.11
-22.61
-26.26
-29.87
-32.96
-34.82
-34.69
-32.12
-27.08
-20.11
-12.03
-3.74
4.05
10.86
16.33
20.22
22.29
22.53
21.14
18.65
15.75
13.11
11.17
10.09
9.79
10.05
10.58
11.08
11.3
11.08
10.38
9.29
7.95
6.48
4.91
3.2
1.29
-0.85
-3.24
-5.95
-9.06
-12.59
-16.34
-19.76
-22.01
-22.28
-20.05
-15.38
-8.85
-1.39
6.11
12.98
18.9
23.71
27.31
29.55
30.31
29.54
27.45
24.45
21.12
18.07
15.8
14.57
14.43
15.21
16.55
17.99
18.88
18.53
16.24
11.56
4.44
-4.65
-14.8
-24.97
-34.22
-41.97
-48.0
-52.31
-54.85
-55.38
-53.55
-49.11
-42.13
-33.16
-23.08
-12.91
-3.51
4.63
11.4
16.81
20.89
23.53
24.56
23.95
21.97
19.25
16.54
14.49
13.36
13.03
13.13
13.21
13.01
12.45
11.52
10.26
8.61
6.5
3.89
0.76
-2.87
-6.96
-11.48
-16.35
-21.43
-26.38
-30.73
-33.83
-35.0
-33.71
-29.73
-23.3
-15.08
-5.99
3.04
11.27
18.24
23.77
27.75
30.09
30.75
29.83
27.7
24.94
22.2
20.04
18.71
18.15
18.11
18.25
18.28
18.03
17.39
16.28
14.59
12.19
9.01
5.12
0.74
-3.85
-8.32
-12.52
-16.48
-20.36
-24.36
-28.47
-32.41
-35.56
-37.21
-36.65
-33.45
-27.58
-19.42
-9.72
0.57
10.43
18.99
25.63
30.04
32.2
32.32
30.85
28.35
25.48
22.84
20.9
19.87
19.71
20.16
20.81
21.3
21.31
20.65
19.23
17.01
14.04
10.43
6.39
2.19
-1.87
-5.55
-8.78
-11.59
-14.28
-17.19
-20.65
-24.81
-29.5
-34.23
-38.24
-40.69
-40.89
-38.42
-33.3
-25.91
-16.94
-7.27
2.22
10.73
17.63
22.54
25.32
26.12
25.28
23.32
20.82
18.33
16.25
14.82
14.12
14.08
14.6
15.45
16.39
17.16
17.45
17.01
15.7
13.5
10.54
7.06
3.31
-0.44
-4.01
-7.28
-10.24
-12.96
-15.62
-18.46
-21.66
-25.27
-29.05
-32.47
-34.77
-35.16
-33.09
-28.41
-21.47
-13.03
-4.01
4.65
12.19
18.08
21.98
23.8
23.62
21.81
18.9
15.61
12.62
10.44
9.35
9.33
10.15
11.41
12.64
13.42
13.41
12.48
10.66
8.16
5.28
2.23
-0.82
-3.87
-6.95
-10.13
-13.5
-17.16
-21.21
-25.69
-30.46
-35.06
-38.69
-40.38
-39.26
-34.87
-27.36
-17.46
-6.29
4.95
15.21
23.78
30.2
34.25
35.9
35.3
32.84
29.14
24.96
21.04
17.95
15.96
14.99
14.8
15.01
15.22
15.12
14.46
13.08
10.93
8.02
4.49
0.53
-3.6
-7.68
-11.51
-15.08
-18.54
-22.13
-26.08
-30.34
-34.51
-37.71
-38.96
-37.38
-32.67
-25.12
-15.59
-5.18
5.07
14.39
22.26
28.33
32.37
34.24
34.0
31.95
28.71
25.0
21.52
18.78
17.0
16.13
15.92
16.01
16.03
15.66
14.69
13.03
10.72
7.9
4.73
1.35
-2.13
-5.64
-9.13
-12.6
-16.02
-19.47
-23.05
-26.86
-30.86
-34.7
-37.72
-39.02
-37.79
-33.56
-26.44
-17.14
-6.8
3.42
12.53
19.93
25.37
28.84
30.43
30.33
28.82
26.31
23.35
20.54
18.41
17.23
16.92
17.12
17.33
17.2
16.61
15.62
14.41
13.01
11.3
8.99
5.91
2.07
-2.28
-6.77
-11.1
-15.18
-19.11
-23.11
-27.28
-31.53
-35.46
-38.47
-39.83
-38.91
-35.32
-29.17
-20.97
-11.61
-2.06
6.87
14.6
20.82
25.35
28.03
28.8
27.76
25.29
22.04
18.77
16.13
14.5
13.86
13.97
14.45
14.93
15.14
14.93
14.2
12.89
10.98
8.49
5.46
2.04
-1.61
-5.27
-8.77
-12.07
-15.24
-18.51
-22.15
-26.27
-30.69
-34.84
-37.8
-38.59
-36.54
-31.49
-23.93
-14.83
-5.24
3.91
11.98
18.59
23.44
26.25
26.85
25.37
22.26
18.39
14.67
11.87
10.34
10.0
10.49
11.33
12.05
12.32
11.93
10.83
9.05
6.74
4.07
1.18
-1.83
-4.94
-8.18
-11.64
-15.45
-19.74
-24.51
-29.47
-33.98
-37.11
-37.88
-35.65
-30.42
-22.79
-13.84
-4.68
3.78
11.01
16.78
20.99
23.52
24.27
23.3
20.89
17.68
14.41
11.77
10.19
9.66
9.79
10.06
10.03
9.49
8.47
7.12
5.59
3.86
1.87
-0.51
-3.31
-6.51
-10.09
-14.03
-18.39
-23.19
-28.25
-33.08
-36.91
-38.84
-38.11
-34.44
-28.08
-19.79
-10.61
-1.5
6.78
13.83
19.42
23.4
25.64
26.07
24.86
22.43
19.47
16.62
14.37
12.88
12.04
11.63
11.42
11.23
10.95
10.44
9.54
8.12
6.1
3.46
0.28
-3.3
-7.08
-10.81
-14.3
-17.44
-20.37
-23.37
-26.68
-30.35
-33.97
-36.78
-37.92
-36.63
-32.67
-26.28
-18.13
-9.11
-0.08
8.26
15.33
20.73
24.2
25.65
25.25
23.39
20.71
17.84
15.36
13.61
12.67
12.49
12.82
13.43
14.05
14.4
14.23
13.31
11.54
8.99
5.86
2.48
-0.83
-3.85
-6.52
-8.95
-11.38
-14.11
-17.43
-21.42
-25.88
-30.2
-33.48
-34.75
-33.31
-29.04
-22.45
-14.48
-6.17
1.64
8.48
14.12
18.44
21.28
22.51
22.12
20.4
17.93
15.44
13.54
12.58
12.48
12.89
13.36
13.52
13.16
12.31
11.08
9.61
8.0
6.25
4.3
2.05
-0.6
-3.69
-7.19
-11.01
-15.06
-19.23
-23.42
-27.46
-31.01
-33.52
-34.34
-32.88
-28.91
-22.68
-14.86
-6.38
1.91
9.4
15.74
20.76
24.31
26.2
26.34
24.85
22.12
18.77
15.5
12.9
11.29
10.68
10.82
11.31
11.76
11.81
11.23
9.9
7.87
5.25
2.25
-0.92
-4.08
-7.13
-10.04
-12.89
-15.82
-19.03
-22.64
-26.59
-30.56
-33.91
-35.82
-35.52
-32.55
-26.98
-19.37
-10.64
-1.76
6.43
13.38
18.76
22.41
24.29
24.55
23.48
21.6
19.45
17.51
16.05
15.13
14.62
14.41
14.34
14.29
14.09
13.54
12.45
10.68
8.31
5.5
2.51
-0.47
-3.4
-6.36
-9.5
-12.98
-16.84
-21.0
-25.29
-29.48
-33.32
-36.52
-38.75
-39.65
-38.84
-36.08
-31.34
-24.9
-17.29
-9.2
-1.31
5.79
11.68
16.08
18.84
19.94
19.53
18.01
15.93
13.95
12.57
12.06
12.33
13.06
13.86
14.4
14.5
14.15
13.34
12.08
10.27
7.86
4.87
1.47
-2.06
-5.44
-8.48
-11.13
-13.49
-15.74
-18.14
-20.92
-24.21
-27.98
-31.9
-35.35
-37.51
-37.64
-35.31
-30.54
-23.84
-15.99
-7.86
-0.14
6.64
12.12
16.09
18.44
19.23
18.74
17.43
15.81
14.35
13.32
12.84
12.83
13.17
13.68
14.19
14.57
14.68
14.42
13.74
12.62
11.09
9.2
7.02
4.54
1.8
-1.26
-4.62
-8.25
-12.05
-15.88
-19.63
-23.1
-26.06
-28.11
-28.79
-27.67
-24.49
-19.35
-12.69
-5.19
2.37
9.28
15.03
19.28
21.83
22.64
21.84
19.7
16.71
13.42
10.43
8.2
6.92
6.58
6.9
7.5
7.99
8.02
7.4
6.03
3.95
1.3
-1.69
-4.79
-7.78
-10.59
-13.29
-16.1
-19.29
-23.06
-27.35
-31.81
-35.77
-38.39
-38.83
-36.55
-31.44
-23.94
-14.89
-5.34
3.76
11.69
18.03
22.65
25.53
26.73
26.4
24.8
22.4
19.74
17.38
15.68
14.8
14.64
14.95
15.4
15.72
15.66
14.99
13.57
11.34
8.39
4.98
1.43
-2.0
-5.13
-8.0
-10.81
-13.85
-17.4
-21.58
-26.27
-30.97
-34.92
-37.19
-37.01
-33.97
-28.15
-20.13
-10.74
-0.95
8.35
16.42
22.69
26.84
28.82
28.93
27.68
25.75
23.72
21.98
20.65
19.66
18.86
18.16
17.54
17.03
16.63
16.24
15.68
14.74
13.22
11.0
8.1
4.65
0.83
-3.17
-7.19
-11.16
-15.09
-19.05
-23.1
-27.21
-31.12
-34.37
-36.28
-36.21
-33.71
-28.77
-21.73
-13.32
-4.4
4.2
11.76
17.77
21.94
24.17
24.57
23.47
21.32
18.67
16.05
13.91
12.49
11.84
11.77
12.02
12.29
12.36
12.12
11.56
10.62
9.25
7.43
5.18
2.63
-0.05
-2.73
-5.39
-8.11
-11.02
-14.22
-17.71
-21.31
-24.69
-27.42
-28.99
-28.91
-26.85
-22.75
-16.88
-9.79
-2.22
5.12
11.6
16.8
20.43
22.37
22.63
21.4
19.05
16.13
13.24
10.92
9.48
9.01
9.3
10.05
10.89
11.52
11.7
11.33
10.37
8.87
7.01
4.97
2.91
0.87
-1.26
-3.68
-6.6
-10.1
-14.09
-18.28
-22.2
-25.23
-26.77
-26.33
-23.67
-18.93
-12.57
-5.34
1.94
8.57
14.05
18.1
20.58
21.46
20.81
18.93
16.3
13.55
11.19
9.51
8.48
7.83
7.28
6.65
5.97
5.33
4.72
4.02
2.98
1.39
-0.78
-3.42
-6.36
-9.55
-12.98
-16.74
-20.79
-24.88
-28.56
-31.23
-32.32
-31.44
-28.42
-23.41
-16.76
-9.05
-0.95
6.89
13.9
19.67
23.91
26.46
27.27
26.46
24.31
21.34
18.17
15.37
13.34
12.18
11.78
11.82
11.97
11.93
11.52
10.62
9.15
7.08
4.41
1.24
-2.27
-5.9
-9.47
-12.92
-16.34
-19.92
-23.74
-27.65
-31.12
-33.38
-33.61
-31.26
-26.27
-19.15
-10.78
-2.15
5.93
12.97
18.78
23.35
26.67
28.65
29.18
28.31
26.32
23.78
21.36
19.6
18.73
18.62
18.86
19.05
18.93
18.46
17.71
16.67
15.2
12.99
9.85
5.81
1.19
-3.51
-7.78
-11.4
-14.38
-17.03
-19.72
-22.76
-26.29
-30.16
-33.97
-37.08
-38.81
-38.55
-36.03
-31.31
-24.85
-17.32
-9.39
-1.61
5.59
11.84
16.82
20.24
21.91
21.94
20.68
18.72
16.68
15.09
14.26
14.2
14.75
15.57
16.32
16.76
16.74
16.25
15.36
14.14
12.59
10.65
8.2
5.21
1.79
-1.84
-5.4
-8.7
-11.68
-14.41
-16.99
-19.54
-22.12
-24.8
-27.57
-30.37
-32.94
-34.8
-35.35
-34.04
-30.56
-25.04
-18.0
-10.13
-2.18
5.28
11.82
17.09
20.81
22.77
23.02
21.88
19.94
17.91
16.33
15.52
15.46
15.94
16.65
17.31
17.72
17.79
17.48
16.84
15.89
14.64
13.01
10.9
8.27
5.19
1.9
-1.31
-4.25
-6.9
-9.43
-12.06
-14.97
-18.13
-21.32
-24.18
-26.26
-27.11
-26.36
-23.78
-19.36
-13.4
-6.46
0.78
7.6
13.42
17.87
20.72
21.98
21.78
20.43
18.39
16.16
14.15
12.64
11.69
11.17
10.88
10.64
10.35
9.94
9.39
8.62
7.5
5.92
3.78
1.13
-1.89
-5.08
-8.26
-11.33
-14.26
-17.08
-19.85
-22.66
-25.61
-28.72
-31.87
-34.69
-36.58
-36.85
-34.98
-30.77
-24.49
-16.76
-8.34
0.01
7.68
14.26
19.51
23.27
25.54
26.42
26.12
24.95
23.26
21.44
19.82
18.62
17.92
17.68
17.64
17.6
17.33
16.71
15.68
14.25
12.41
10.14
7.46
4.39
1.0
-2.55
-6.11
-9.52
-12.65
-15.49
-18.1
-20.67
-23.41
-26.48
-29.79
-33.01
-35.52
-36.63
-35.76
-32.64
-27.4
-20.53
-12.73
-4.69
2.96
9.78
15.37
19.46
21.87
22.6
21.93
20.37
18.55
17.03
16.16
16.01
16.39
17.0
17.48
17.53
16.98
15.87
14.36
12.71
11.14
9.67
8.13
6.23
3.73
0.59
-2.99
-6.68
-10.12
-13.13
-15.66
-17.76
-19.57
-21.26
-23.04
-25.16
-27.75
-30.71
-33.67
-35.95
-36.81
-35.66
-32.29
-26.87
-19.88
-11.99
-3.89
3.76
10.42
15.63
19.13
20.84
20.92
19.74
17.78
15.62
13.74
12.51
12.08
12.38
13.13
13.98
14.6
14.83
14.66
14.14
13.29
12.03
10.21
7.77
4.78
1.47
-1.85
-4.97
-7.79
-10.34
-12.76
-15.17
-17.68
-20.38
-23.31
-26.4
-29.42
-31.93
-33.41
-33.37
-31.54
-27.92
-22.74
-16.44
-9.47
-2.36
4.42
10.38
15.11
18.32
19.93
20.05
18.96
17.05
14.76
12.55
10.76
9.65
9.26
9.45
9.93
10.37
10.49
10.12
9.2
7.7
5.62
2.99
-0.09
-3.39
-6.63
-9.5
-11.91
-13.96
-15.95
-18.21
-20.94
-23.99
-26.9
-28.96
-29.4
-27.65
-23.52
-17.28
-9.6
-1.38
6.53
13.43
18.94
22.92
25.4
26.47
26.29
25.11
23.23
21.05
18.92
17.1
15.7
14.7
14.04
13.59
13.24
12.83
12.18
11.16
9.73
7.95
5.88
3.58
1.04
-1.82
-5.06
-8.63
-12.45
-16.37
-20.3
-24.19
-27.9
-31.19
-33.62
-34.59
-33.58
-30.33
-24.95
-17.93
-10.02
-1.98
5.56
12.12
17.46
21.39
23.83
24.78
24.38
22.93
20.87
18.62
16.57
14.95
13.84
13.24
13.07
13.16
13.31
13.26
12.75
11.63
9.85
7.47
4.61
1.41
-2.01
-5.51
-8.99
-12.38
-15.69
-19.05
-22.58
-26.32
-30.02
-33.17
-35.08
-35.15
-33.0
-28.66
-22.43
-14.88
-6.66
1.5
8.9
14.95
19.28
21.76
22.52
21.92
20.39
18.41
16.43
14.81
13.79
13.42
13.56
13.91
14.13
13.95
13.31
12.26
10.92
9.39
7.7
5.82
3.7
1.28
-1.45
-4.48
-7.73
-11.15
-14.66
-18.21
-21.78
-25.23
-28.26
-30.4
-31.08
-29.79
-26.33
-20.92
-14.13
-6.77
0.37
6.7
11.83
15.59
17.94
18.89
18.54
17.1
14.89
12.35
9.95
8.06
6.93
6.6
6.91
7.57
8.24
8.6
8.41
7.56
6.08
4.12
1.84
-0.66
-3.36
-6.31
-9.57
-13.09
-16.73
-20.19
-23.09
-25.04
-25.68
-24.7
-21.93
-17.44
-11.56
-4.85
2.0
8.42
13.97
18.39
21.5
23.17
23.32
22.06
19.69
16.7
13.63
10.91
8.8
7.41
6.79
6.88
7.55
8.43
9.03
8.89
7.76
5.7
3.06
0.21
-2.63
-5.46
-8.46
-11.79
-15.46
-19.33
-23.08
-26.28
-28.48
-29.19
-27.99
-24.65
-19.26
-12.27
-4.4
3.49
10.63
16.44
20.56
22.83
23.28
22.17
19.92
17.06
14.13
11.56
9.59
8.3
7.65
7.54
7.81
8.19
8.35
7.99
6.95
5.27
3.16
0.92
-1.31
-3.58
-6.08
-9.03
-12.53
-16.46
-20.54
-24.43
-27.74
-30.1
-31.1
-30.4
-27.72
-23.09
-16.84
-9.63
-2.28
4.48
10.07
14.26
16.98
18.26
18.21
16.99
14.91
12.4
9.97
8.05
6.95
6.68
7.05
7.72
8.32
8.56
8.25
7.4
6.08
4.41
2.46
0.21
-2.42
-5.48
-8.96
-12.73
-16.64
-20.53
-24.23
-27.45
-29.77
-30.65
-29.62
-26.45
-21.32
-14.81
-7.69
-0.68
5.71
11.19
15.54
18.6
20.21
20.33
19.15
17.07
14.63
12.32
10.49
9.29
8.67
8.45
8.41
8.3
7.88
7.05
5.73
4.01
1.97
-0.27
-2.67
-5.28
-8.16
-11.4
-15.03
-18.92
-22.81
-26.26
-28.72
-29.63
-28.58
-25.4
-20.27
-13.66
-6.23
1.28
8.22
14.07
18.52
21.39
22.65
22.38
20.82
18.39
15.62
13.09
11.26
10.36
10.23
10.47
10.59
10.18
9.12
7.52
5.63
3.64
1.62
-0.57
-3.06
-6.02
-9.46
-13.34
-17.51
-21.81
-26.0
-29.74
-32.54
-33.78
-32.86
-29.47
-23.68
-16.01
-7.28
1.57
9.78
16.83
22.44
26.47
28.87
29.7
29.18
27.72
25.85
24.07
22.71
21.91
21.6
21.66
21.98
22.46
23.03
23.55
23.81
23.53
22.38
20.06
16.34
11.16
4.71
-2.59
-10.18
-17.55
-24.4
-30.69
-36.52
-41.95
-46.84
-50.73
-52.97
-52.96
-50.32
-45.11
-37.75
-28.94
-19.44
-9.97
-1.13
6.63
12.98
17.64
20.56
21.81
21.77
20.95
19.94
19.19
18.94
19.13
19.56
19.95
20.11
19.97
19.59
19.06
18.4
17.52
16.23
14.33
11.71
8.46
4.79
1.01
-2.59
-5.84
-8.68
-11.18
-13.47
-15.71
-18.08
-20.74
-23.83
-27.34
-30.99
-34.25
-36.41
-36.75
-34.81
-30.52
-24.19
-16.45
-8.01
0.39
8.11
14.61
19.54
22.76
24.3
24.42
23.48
21.94
20.22
18.72
17.71
17.37
17.64
18.35
19.22
19.98
20.41
20.37
19.77
18.52
16.55
13.86
10.61
7.09
3.66
0.63
-1.89
-3.96
-5.74
-7.42
-9.17
-11.08
-13.26
-15.74
-18.53
-21.39
-23.91
-25.51
-25.6
-23.76
-19.92
-14.29
-7.38
0.21
7.84
14.89
20.81
25.16
27.71
28.48
27.74
25.97
23.69
21.36
19.33
17.75
16.67
16.04
15.72
15.52
15.22
14.65
13.69
12.28
10.45
8.21
5.63
2.79
-0.2
-3.28
-6.36
-9.39
-12.35
-15.24
-18.06
-20.88
-23.77
-26.77
-29.78
-32.5
-34.42
-34.92
-33.48
-29.88
-24.3
-17.22
-9.32
-1.26
6.4
13.23
18.93
23.27
26.14
27.54
27.67
26.82
25.36
23.68
22.1
20.86
20.1
19.79
19.75
19.73
19.48
18.84
17.83
16.56
15.13
13.51
11.51
8.93
5.68
1.91
-2.04
-5.77
-9.02
-11.77
-14.15
-16.38
-18.59
-20.86
-23.24
-25.84
-28.8
-32.1
-35.42
-38.09
-39.23
-38.11
-34.42
-28.41
-20.78
-12.36
-3.87
4.2
11.59
18.02
23.21
26.85
28.82
29.21
28.38
26.85
25.11
23.54
22.33
21.54
21.13
20.95
20.78
20.38
19.61
18.43
16.92
15.18
13.22
10.92
8.16
4.86
1.14
-2.73
-6.41
-9.64
-12.31
-14.47
-16.29
-17.99
-19.82
-21.98
-24.58
-27.63
-30.96
-34.29
-37.27
-39.48
-40.54
-40.07
-37.77
-33.53
-27.46
-19.99
-11.75
-3.5
4.1
10.56
15.57
19.01
20.89
21.37
20.77
19.54
18.17
17.02
16.28
15.92
15.85
15.94
16.13
16.38
16.58
16.53
16.05
15.0
13.38
11.29
8.86
6.16
3.22
0.11
-3.06
-6.05
-8.69
-10.88
-12.74
-14.48
-16.35
-18.48
-20.89
-23.47
-26.02
-28.24
-29.78
-30.18
-29.0
-26.0
-21.16
-14.81
-7.46
0.26
7.8
14.69
20.51
24.93
27.68
28.74
28.39
27.17
25.78
24.81
24.53
24.91
25.63
26.33
26.74
26.76
26.44
25.93
25.39
25.01
24.93
25.14
25.33
24.87
22.8
18.21
10.57
0.05
-12.46
-25.6
-37.97
-48.52
-56.8
-62.77
-66.54
-68.1
-67.22
-63.63
-57.3
-48.62
-38.42
-27.7
-17.41
-8.11
0.01
6.99
12.9
17.63
20.9
22.49
22.42
21.08
19.1
17.22
15.97
15.56
15.83
16.45
17.04
17.34
17.23
16.67
15.67
14.22
12.29
9.89
7.09
4.02
0.8
-2.47
-5.71
-8.89
-12.01
-15.05
-18.02
-20.95
-23.84
-26.61
-28.97
-30.42
-30.34
-28.19
-23.77
-17.33
-9.49
-1.1
7.05
14.37
20.48
25.19
28.36
30.0
30.19
29.21
27.48
25.42
23.4
21.65
20.28
19.33
18.81
18.68
18.79
18.82
18.39
17.14
14.94
11.89
8.27
4.39
0.46
-3.44
-7.35
-11.27
-15.16
-18.93
-22.53
-25.95
-29.22
-32.37
-35.31
-37.83
-39.61
-40.22
-39.26
-36.45
-31.75
-25.38
-17.82
-9.71
-1.68
5.76
12.21
17.41
21.17
23.42
24.2
23.73
22.39
20.64
18.92
17.52
16.58
16.11
15.99
16.08
16.21
16.17
15.79
14.89
13.38
11.25
8.62
5.64
2.45
-0.82
-4.09
-7.34
-10.56
-13.79
-17.08
-20.46
-23.87
-27.06
-29.58
-30.82
-30.25
-27.6
-22.97
-16.84
-9.93
-2.95
3.51
9.06
13.45
16.57
18.34
18.84
18.24
16.82
14.93
12.93
11.15
9.81
9.05
8.86
9.08
9.4
9.51
9.17
8.33
7.1
5.63
4.01
2.17
0.03
-2.53
-5.44
-8.55
-11.69
-14.8
-17.93
-21.13
-24.36
-27.26
-29.34
-30.02
-28.88
-25.87
-21.2
-15.36
-8.87
-2.26
4.05
9.67
14.28
17.62
19.55
20.12
19.52
18.07
16.15
14.13
12.29
10.84
9.86
9.41
9.44
9.8
10.27
10.55
10.36
9.46
7.73
5.24
2.15
-1.25
-4.71
-7.99
-11.03
-13.83
-16.5
-19.17
-21.97
-24.88
-27.71
-30.07
-31.4
-31.18
-29.05
-24.96
-19.19
-12.35
-5.2
1.57
7.39
11.93
15.03
16.67
16.92
16.01
14.35
12.46
10.85
9.86
9.56
9.76
10.14
10.45
10.58
10.54
10.36
9.99
9.28
8.09
6.34
4.11
1.57
-1.09
-3.76
-6.41
-9.13
-12.06
-15.23
-18.6
-21.91
-24.78
-26.69
-27.1
-25.64
-22.22
-17.15
-11.01
-4.55
1.54
6.78
10.96
14.02
15.96
16.76
16.45
15.18
13.29
11.26
9.61
8.68
8.55
9.05
9.86
10.64
11.14
11.18
10.69
9.65
8.12
6.2
4.02
1.67
-0.84
-3.54
-6.47
-9.66
-13.03
-16.41
-19.5
-21.9
-23.14
-22.85
-20.83
-17.15
-12.18
-6.48
-0.61
4.95
9.83
13.83
16.76
18.47
18.91
18.17
16.57
14.57
12.69
11.34
10.69
10.65
10.96
11.27
11.29
10.87
10.01
8.8
7.34
5.67
3.74
1.49
-1.1
-3.98
-7.03
-10.15
-13.31
-16.48
-19.6
-22.41
-24.41
-25.05
-23.86
-20.66
-15.75
-9.72
-3.32
2.82
8.27
12.84
16.46
19.08
20.64
21.07
20.45
19.01
17.16
15.32
13.83
12.84
12.34
12.19
12.23
12.33
12.32
12.04
11.29
9.9
7.83
5.18
2.2
-0.85
-3.75
-6.44
-8.91
-11.22
-13.46
-15.8
-18.42
-21.45
-24.84
-28.27
-31.18
-32.9
-32.84
-30.74
-26.67
-21.02
-14.35
-7.28
-0.39
5.86
11.14
15.31
18.35
20.36
21.49
21.83
21.54
20.77
19.8
18.87
18.16
17.73
17.52
17.44
17.37
17.23
16.89
16.25
15.17
13.6
11.58
9.19
6.61
3.92
1.23
-1.4
-3.9
-6.2
-8.29
-10.21
-12.04
-13.83
-15.61
-17.42
-19.34
-21.53
-24.14
-27.17
-30.33
-33.07
-34.7
-34.67
-32.72
-29.0
-23.9
-17.92
-11.55
-5.18
0.86
6.23
10.58
13.67
15.45
16.11
16.03
15.61
15.19
14.92
14.79
14.74
14.69
14.64
14.6
14.58
14.51
14.27
13.68
12.6
10.93
8.73
6.16
3.48
0.94
-1.33
-3.3
-5.08
-6.84
-8.66
-10.52
-12.3
-13.86
-15.17
-16.32
-17.51
-18.98
-20.92
-23.38
-26.26
-29.33
-32.21
-34.49
-35.69
-35.46
-33.57
-30.09
-25.24
-19.41
-13.03
-6.52
-0.29
5.25
9.73
12.84
14.52
14.96
14.58
13.82
13.08
12.61
12.54
12.94
13.83
15.07
16.41
17.5
18.0
17.76
16.85
15.46
13.83
12.05
