0
54.68
43.43
36.12
34.03
37.29
44.82
54.72
64.96
73.83
80.39
84.4
86.03
85.55
83.05
78.38
71.3
61.76
50.17
37.44
24.83
13.55
4.38
-2.62
-8.15
-13.27
-19.04
-26.05
-34.18
-42.69
-50.52
-56.78
-61.1
-63.86
-66.12
-69.35
-75.07
-84.54
-98.37
-116.02
-135.47
-153.12
-164.34
-164.61
-151.02
-123.48
-85.05
-41.06
2.43
40.41
69.96
90.35
102.4
107.5
106.98
101.95
93.48
82.92
72.0
62.69
56.71
55.11
57.89
64.06
72.0
79.93
86.55
91.14
93.59
94.02
92.54
89.12
83.65
76.27
67.36
57.55
47.49
37.66
28.32
19.58
11.51
4.19
-2.36
-8.34
-14.11
-20.18
-26.92
-34.42
-42.3
-49.91
-56.57
-61.86
-65.99
-69.74
-74.39
-81.42
-92.12
-107.06
-125.44
-144.77
-160.9
-168.93
-164.6
-145.84
-113.79
-72.63
-28.45
12.62
46.06
69.74
83.75
89.51
88.75
82.92
73.07
60.3
46.09
32.4
21.41
14.91
13.77
17.62
25.06
34.12
43.01
50.48
56.0
59.57
61.33
61.28
59.24
54.99
48.43
39.84
29.87
19.47
9.66
1.25
-5.43
-10.71
-15.38
-20.44
-26.61
-34.01
-42.02
-49.52
-55.47
-59.29
-61.25
-62.39
-64.24
-68.36
-76.0
-87.74
-103.17
-120.57
-136.83
-147.78
-149.17
-137.94
-113.5
-78.19
-36.79
4.91
41.76
70.45
89.83
100.49
103.81
101.24
93.98
83.11
69.92
56.14
43.87
35.16
31.51
33.42
40.19
50.1
60.99
70.85
78.32
82.85
84.54
83.76
80.76
75.67
68.51
59.48
49.06
38.01
27.14
17.1
8.21
0.5
-6.29
-12.61
-19.01
-26.04
-34.06
-43.03
-52.41
-61.32
-68.81
-74.34
-78.09
-80.98
-84.45
-90.04
-99.09
-112.36
-129.58
-148.99
-167.12
-179.18
-180.17
-166.54
-137.75
-96.79
-49.43
-2.46
38.35
69.64
90.69
102.65
107.37
106.5
101.28
92.75
82.12
71.04
61.33
54.7
52.23
54.12
59.69
67.62
76.35
84.5
91.1
95.67
98.08
98.29
96.28
92.04
85.65
77.45
67.92
57.71
47.3
37.01
27.04
17.51
8.64
0.67
-6.29
-12.47
-18.42
-24.82
-32.1
-40.21
-48.59
-56.41
-63.02
-68.33
-72.88
-77.8
-84.56
-94.61
-108.96
-127.57
-148.76
-168.84
-182.65
-184.81
-171.62
-142.56
-100.89
-52.69
-5.0
36.31
67.9
88.95
100.45
103.92
100.67
91.71
78.12
61.55
44.34
29.14
18.36
13.39
14.37
20.18
28.91
38.55
47.58
55.15
61.03
65.15
67.23
66.62
62.59
54.7
43.3
29.62
15.44
2.49
-8.17
-16.52
-23.47
-30.4
-38.43
-47.91
-58.26
-68.19
-76.31
-81.68
-84.32
-85.17
-85.91
-88.51
-94.64
-105.24
-119.98
-136.96
-152.71
-162.69
-162.44
-148.89
-121.61
-83.14
-38.41
6.65
46.78
78.55
100.63
113.37
117.81
115.14
106.37
92.73
75.99
58.56
43.26
32.59
28.0
29.55
35.95
45.13
54.99
63.98
71.32
76.79
80.32
81.58
80.02
74.95
66.17
54.26
40.62
27.06
15.11
5.38
-2.67
-10.42
-19.37
-30.33
-43.0
-56.09
-67.87
-76.97
-82.94
-86.46
-89.16
-93.17
-100.59
-112.84
-130.16
-151.07
-172.11
-188.26
-194.06
-185.2
-160.19
-121.07
-73.05
-22.98
22.73
59.73
86.23
102.63
110.44
111.25
106.36
96.93
84.36
70.54
57.74
48.15
43.36
43.85
48.95
57.11
66.45
75.36
82.9
88.8
93.14
95.85
96.45
94.14
88.24
78.68
66.27
52.58
39.36
27.87
18.41
10.27
2.2
-6.96
-17.72
-29.64
-41.52
-51.95
-59.9
-65.16
-68.52
-71.51
-75.99
-83.73
-95.83
-112.31
-131.7
-150.8
-165.02
-169.32
-159.69
-134.66
-96.11
-48.96
0.25
45.24
81.63
107.59
123.43
130.57
130.57
124.7
114.08
100.11
84.83
70.77
60.35
55.23
55.78
60.98
68.96
77.58
85.19
90.99
94.89
97.22
98.15
97.46
94.52
88.67
79.61
67.83
54.51
41.23
29.4
19.66
11.65
4.2
-4.13
-14.34
-26.49
-39.6
-52.17
-62.83
-70.87
-76.65
-81.32
-86.44
-93.57
-103.95
-118.21
-135.95
-155.29
-172.75
-183.69
-183.5
-169.21
-140.74
-101.23
-56.14
-11.64
27.12
57.02
77.09
87.88
90.68
86.86
77.83
65.18
50.85
37.19
26.51
20.69
20.62
26.02
35.56
47.33
59.43
70.32
78.99
84.79
87.25
85.94
80.71
71.83
60.23
47.38
34.86
23.9
14.82
7.02
-0.7
-9.56
-20.14
-32.09
-44.24
-55.17
-63.87
-70.19
-75.04
-80.09
-87.32
-98.27
-113.35
-131.18
-148.45
-160.43
-162.15
-150.1
-123.57
-85.2
-40.26
4.97
44.99
76.34
97.87
110.13
114.43
112.07
104.16
91.84
76.75
61.11
47.49
38.21
34.69
36.9
43.52
52.44
61.54
69.43
75.62
80.23
83.36
84.69
83.36
78.44
69.6
57.53
43.87
30.7
19.67
11.39
5.26
-0.18
-6.5
-14.71
-24.85
-36.0
-46.73
-55.68
-62.14
-66.37
-69.55
-73.5
-80.16
-91.05
-106.68
-126.15
-146.8
-164.47
-174.24
-171.7
-154.49
-123.2
-81.55
-35.3
9.38
47.63
76.81
96.57
107.96
112.52
111.53
105.93
96.71
85.28
73.64
64.09
58.63
58.41
63.23
71.78
82.04
91.96
100.12
105.87
109.24
110.54
109.86
107.0
101.54
93.19
82.15
69.16
55.35
41.89
29.58
18.7
8.99
-0.09
-9.16
-18.56
-28.26
-37.85
-46.57
-53.69
-58.76
-61.99
-64.27
-67.05
-71.99
-80.58
-93.58
-110.71
-130.21
-148.78
-162.04
-165.41
-155.56
-131.64
-95.87
-53.12
-9.52
29.29
59.52
79.79
90.57
93.4
89.91
81.46
69.33
55.02
40.45
27.86
19.3
16.03
18.14
24.54
33.43
42.91
51.48
58.35
63.21
65.95
66.31
63.86
58.14
49.11
37.4
24.35
11.58
0.52
-8.2
-14.88
-20.66
-26.85
-34.3
-43.02
-52.12
-60.23
-66.15
-69.39
-70.47
-70.73
-71.98
-76.02
-84.09
-96.39
-111.75
-127.46
-139.56
-143.71
-136.42
-116.35
-84.98
-46.37
-5.94
31.06
60.93
82.06
94.56
99.51
98.07
91.31
80.27
66.45
51.97
39.29
30.74
27.67
30.13
36.86
45.79
54.86
62.6
68.39
72.25
74.27
74.24
71.59
65.68
56.42
44.52
31.51
19.13
8.65
0.37
-6.55
-13.54
-21.96
-32.47
-44.61
-57.1
-68.31
-77.02
-82.92
-86.78
-90.3
-95.59
-104.61
-118.37
-136.33
-156.0
-173.13
-182.54
-179.61
-161.83
-129.83
-87.45
-40.56
4.63
43.3
72.85
92.89
104.32
108.48
106.57
99.66
89.0
76.26
63.59
53.29
47.13
45.98
49.53
56.47
65.0
73.36
80.33
85.39
88.49
89.73
89.02
86.03
80.33
71.79
60.82
48.47
36.09
25.04
16.09
9.25
3.67
-1.94
-8.88
-17.87
-28.69
-40.21
-50.89
-59.39
-65.17
-68.8
-71.75
-75.97
-83.35
-95.2
-111.67
-131.38
-151.23
-166.72
-172.94
-165.99
-144.36
-109.73
-66.59
-20.94
21.45
56.46
82.14
98.44
106.34
107.14
102.02
92.18
79.1
64.75
51.46
41.47
36.35
36.57
41.33
48.98
57.61
65.67
72.29
77.26
80.58
82.07
81.17
77.13
69.42
58.21
44.52
29.99
16.39
4.98
-3.94
-11.06
-17.7
-25.15
-34.04
-44.04
-53.96
-62.29
-67.95
-70.78
-71.68
-72.34
-74.77
-80.72
-91.12
-105.7
-122.67
-138.74
-149.58
-150.8
-139.4
-114.85
-79.58
-38.35
3.13
39.9
68.8
88.76
100.2
104.17
101.69
93.67
81.27
66.25
51.06
38.47
30.8
29.27
33.63
42.31
53.02
63.52
72.21
78.38
82.04
83.49
82.86
80.01
74.55
66.26
55.43
43.04
30.53
19.28
10.12
2.87
-3.52
-10.51
-19.25
-30.03
-42.02
-53.68
-63.39
-70.17
-74.13
-76.46
-79.1
-84.13
-93.25
-107.21
-125.37
-145.4
-163.37
-174.47
-174.16
-159.67
-131.09
-91.61
-46.73
-2.7
35.23
63.91
82.67
92.65
95.78
93.95
88.48
80.4
70.76
61.03
53.03
48.48
48.41
52.7
60.13
68.91
77.3
84.19
89.2
92.46
94.15
94.26
92.5
88.41
81.71
72.54
61.45
49.39
37.49
26.76
17.79
10.63
4.77
-0.7
-6.67
-13.71
-21.81
-30.44
-38.77
-46.03
-51.84
-56.41
-60.45
-65.1
-71.65
-81.43
-95.33
-113.37
-134.08
-154.21
-169.04
-173.51
-163.87
-139.15
-101.82
-57.17
-11.67
28.91
60.92
83.12
96.13
101.41
100.42
94.24
83.9
70.77
56.76
44.19
35.22
31.28
32.54
37.93
45.59
53.55
60.36
65.32
68.41
69.81
69.5
67.11
62.09
54.12
43.4
30.77
17.55
5.12
-5.43
-13.72
-20.02
-25.21
-30.26
-35.87
-42.13
-48.47
-53.94
-57.78
-59.8
-60.63
-61.53
-64.04
-69.58
-79.09
-92.64
-109.19
-126.25
-140.08
-146.3
-141.24
-123.12
-93.02
-54.67
-13.4
25.5
58.15
82.63
98.76
107.21
108.78
104.22
94.21
80.05
63.79
48.2
36.14
29.8
29.99
35.93
45.56
56.34
66.06
73.44
78.07
80.11
79.76
76.92
71.32
62.89
52.02
39.7
27.26
15.94
6.47
-1.16
-7.64
-14.01
-21.27
-29.98
-39.98
-50.44
-60.15
-67.94
-73.31
-76.65
-79.21
-82.78
-89.22
-99.91
-115.21
-133.93
-153.16
-168.48
-174.87
-168.17
-146.61
-111.74
-68.1
-22.01
20.41
54.89
79.66
95.1
102.68
103.96
100.08
91.91
80.51
67.6
55.39
46.13
41.42
41.73
46.34
53.71
62.13
70.19
76.97
82.03
85.22
86.43
85.55
82.49
77.24
69.9
60.71
50.13
38.81
27.52
17.1
8.16
0.83
-5.19
-10.6
-16.18
-22.53
-29.76
-37.5
-45.0
-51.49
-56.48
-60.08
-63.07
-66.75
-72.65
-82.18
-96.22
-114.56
-135.47
-155.44
-169.55
-172.69
-161.07
-133.89
-93.94
-47.02
-0.12
40.68
71.75
92.26
103.35
106.83
104.31
96.83
85.32
71.17
56.45
43.62
34.92
31.61
33.67
39.82
48.08
56.43
63.44
68.48
71.58
73.07
73.09
71.41
67.55
61.04
51.86
40.52
28.07
15.78
4.77
-4.42
-11.88
-18.29
-24.6
-31.53
-39.38
-47.82
-56.02
-63.1
-68.39
-71.75
-73.67
-75.14
-77.51
-82.27
-90.65
-103.21
-119.23
-136.35
-150.67
-157.57
-152.98
-134.81
-103.85
-63.68
-19.71
22.39
58.07
84.72
101.7
109.66
109.82
103.41
91.67
76.08
58.64
41.99
28.86
21.49
20.82
26.3
36.03
47.52
58.45
67.36
73.68
77.42
78.69
77.38
73.12
65.59
55.0
42.2
28.67
15.99
5.32
-3.04
-9.78
-16.21
-23.72
-33.09
-44.17
-55.79
-66.39
-74.59
-79.87
-82.83
-84.97
-88.29
-94.7
-105.53
-120.99
-139.71
-158.49
-172.6
-176.85
-167.17
-142.17
-103.98
-57.79
-10.27
32.4
66.17
89.55
103.17
108.58
107.39
100.85
90.06
76.39
61.76
48.5
38.88
34.53
35.93
42.34
52.05
62.9
72.98
81.04
86.64
89.89
91.1
90.27
87.01
80.76
71.19
58.73
44.55
30.35
17.72
7.57
-0.12
-6.21
-11.95
-18.43
-26.14
-34.84
-43.68
-51.6
-57.72
-61.84
-64.47
-66.89
-70.78
-77.89
-89.42
-105.61
-125.2
-145.18
-161.11
-167.89
-161.24
-139.22
-103.1
-57.35
-8.36
37.43
75.18
102.58
119.56
127.38
127.67
121.77
110.9
96.43
80.34
65.08
53.11
46.25
45.08
48.86
55.87
64.01
71.51
77.36
81.26
83.4
84.0
83.0
79.99
74.4
65.91
54.77
41.95
28.93
17.25
7.91
1.03
-4.18
-9.06
-14.89
-22.32
-31.09
-40.21
-48.49
-55.02
-59.54
-62.6
-65.31
-69.11
-75.48
-85.64
-100.24
-118.76
-139.08
-157.41
-168.83
-168.69
-154.1
-125.25
-85.57
-40.83
2.64
39.7
67.41
85.07
93.45
93.83
87.43
75.44
59.3
41.13
23.64
9.58
1.14
-0.73
3.55
12.37
23.59
35.21
45.78
54.43
60.68
64.08
64.17
60.66
53.71
44.18
33.45
23.01
13.84
6.1
-0.84
-7.98
-16.15
-25.52
-35.56
-45.22
-53.43
-59.58
-63.82
-67.12
-71.06
-77.41
-87.5
-101.5
-117.89
-133.32
-143.13
-142.65
-128.67
-100.78
-61.82
-17.15
26.99
65.15
94.07
112.79
122.11
123.5
118.36
107.81
93.02
75.66
58.13
43.13
33.02
29.09
31.1
37.58
46.48
55.87
64.39
71.38
76.43
79.03
78.51
74.17
65.78
53.97
40.19
26.27
13.79
3.45
-5.12
-13.09
-21.73
-31.74
-42.89
-54.06
-63.84
-71.19
-76.07
-79.44
-83.09
-89.09
-99.13
-113.92
-132.68
-152.79
-169.95
-178.99
-175.27
-156.27
-122.76
-78.78
-30.54
15.44
54.18
83.22
102.38
112.91
116.32
113.83
106.37
95.14
81.92
69.16
59.33
54.26
54.51
59.29
66.94
75.53
83.6
90.37
95.64
99.36
101.29
100.86
97.31
90.11
79.29
65.67
50.74
36.22
23.56
13.27
4.83
-3.08
-11.85
-22.3
-34.12
-46.05
-56.46
-64.12
-68.8
-71.43
-73.82
-78.02
-85.9
-98.54
-115.81
-136.01
-155.73
-170.18
-174.29
-164.29
-139.11
-101.09
-55.43
-8.65
33.32
66.53
89.47
102.53
107.02
104.38
95.87
82.84
66.99
50.6
36.17
25.91
21.13
21.9
27.16
35.1
43.86
52.02
58.79
63.85
66.95
67.66
65.37
59.6
50.53
39.11
27.0
15.84
6.62
-0.74
-7.24
-14.21
-22.54
-32.22
-42.35
-51.65
-59.09
-64.4
-68.24
-72.0
-77.45
-86.21
-99.19
-116.03
-134.63
-151.24
-161.11
-159.71
-144.36
-115.23
-75.55
-30.74
13.12
50.98
79.8
98.71
108.37
110.1
105.29
95.17
81.13
65.08
49.49
37.1
30.15
29.7
35.22
44.84
56.06
66.65
75.26
81.5
85.49
87.37
86.83
83.23
76.02
65.23
51.78
37.31
23.61
11.91
2.43
-5.62
-13.65
-22.89
-33.82
-45.85
-57.6
-67.48
-74.45
-78.53
-80.87
-83.43
-88.45
-97.75
-112.12
-130.78
-151.07
-168.65
-178.32
-175.42
-157.39
-124.86
-81.78
-34.26
11.17
49.42
77.87
96.27
105.9
108.48
105.38
97.64
86.32
73.02
59.92
49.45
43.55
43.08
47.54
55.31
64.35
72.81
79.58
84.3
87.13
88.36
88.06
85.97
81.64
74.73
65.33
54.12
42.27
31.1
21.59
14.06
8.04
2.54
-3.44
-10.54
-18.72
-27.42
-35.71
-42.79
-48.27
-52.28
-55.57
-59.29
-64.87
-73.74
-86.85
-104.13
-123.88
-142.57
-155.36
-157.26
-144.85
-117.67
-78.69
-33.53
11.25
50.04
79.52
98.9
109.16
112.01
109.07
101.56
90.62
77.65
64.49
53.17
45.47
42.42
44.08
49.59
57.52
66.3
74.6
81.45
86.28
88.76
88.73
86.18
81.27
74.3
65.71
56.0
45.6
34.95
24.53
14.76
6.02
-1.56
-8.18
-14.34
-20.65
-27.57
-35.21
-43.24
-51.1
-58.25
-64.39
-69.68
-74.62
-79.99
-86.75
-95.96
-108.52
-124.77
-143.79
-163.0
-178.12
-184.07
-176.6
-153.91
-117.65
-72.62
-25.33
18.03
53.14
78.24
93.62
100.66
100.78
95.06
84.45
70.24
54.46
39.74
28.79
23.65
25.01
32.05
42.76
54.65
65.54
74.08
79.84
83.01
83.9
82.56
78.79
72.32
63.08
51.47
38.39
25.05
12.59
1.84
-6.94
-14.1
-20.44
-26.9
-34.27
-42.8
-52.09
-61.26
-69.22
-75.15
-78.85
-80.99
-82.89
-86.29
-92.89
-103.94
-119.73
-139.07
-159.01
-175.07
-182.11
-175.79
-154.17
-118.64
-73.69
-25.72
18.96
55.73
82.5
99.38
107.84
109.59
106.15
98.67
88.31
76.53
65.1
55.86
50.26
49.0
51.84
57.75
65.35
73.22
80.27
85.81
89.5
91.14
90.58
87.73
82.63
75.53
66.89
57.35
47.45
37.56
27.91
18.56
9.57
1.09
-6.77
-13.96
-20.65
-27.26
-34.23
-41.79
-49.77
-57.54
-64.31
-69.46
-73.04
-75.85
-79.35
-85.3
-95.18
-109.62
-127.77
-146.98
-162.94
-170.54
-165.22
-144.66
-109.8
-64.88
-16.36
29.08
66.32
92.86
108.73
115.53
115.27
109.66
99.99
87.47
73.7
60.62
50.23
44.03
42.64
45.62
51.86
59.95
68.68
77.13
84.75
91.03
95.44
97.39
96.4
92.32
85.54
76.91
67.54
58.35
49.77
41.69
33.62
25.07
15.91
6.52
-2.36
-10.06
-16.35
-21.65
-26.88
-32.98
-40.47
-49.13
-58.08
-66.22
-72.69
-77.44
-81.24
-85.63
-92.44
-103.35
-119.1
-138.89
-159.88
-177.35
-185.64
-179.84
-157.67
-120.56
-73.54
-23.71
21.91
58.39
83.75
98.52
104.58
103.92
97.98
87.67
73.94
58.23
42.62
29.44
20.7
17.46
19.63
26.03
34.91
44.46
53.3
60.58
65.87
69.01
69.81
68.08
63.65
56.55
47.12
36.04
24.2
12.65
2.22
-6.55
-13.66
-19.61
-25.25
-31.42
-38.61
-46.72
-55.15
-62.94
-69.28
-73.86
-76.96
-79.46
-82.55
-87.54
-95.63
-107.52
-123.13
-140.94
-157.83
-169.28
-170.47
-157.84
-130.48
-90.82
-44.03
3.4
45.6
78.64
101.03
113.24
116.72
113.08
103.67
89.79
73.08
55.62
39.88
28.2
22.2
22.35
27.92
37.3
48.42
59.38
68.74
75.66
79.84
81.33
80.32
77.02
71.59
64.22
55.17
44.86
33.82
22.66
11.99
2.22
-6.41
-13.99
-20.95
-27.89
-35.44
-43.99
-53.44
-63.23
-72.42
-80.16
-86.06
-90.52
-94.65
-100.14
-108.74
-121.7
-139.15
-159.55
-179.41
-193.72
-197.1
-185.41
-157.32
-115.16
-64.42
-12.21
34.77
71.94
97.57
112.24
117.83
116.34
109.35
98.05
83.73
68.12
53.49
42.12
35.76
35.07
39.51
47.65
57.71
68.08
77.66
85.76
92.03
96.1
97.68
96.46
92.38
85.67
76.86
66.69
55.91
45.19
35.07
25.83
17.58
10.15
3.14
-4.01
-11.89
-20.85
-30.8
-41.15
-50.94
-59.24
-65.63
-70.5
-75.09
-81.17
-90.53
-104.38
-122.68
-143.72
-163.9
-178.27
-181.52
-169.69
-141.58
-99.63
-49.37
2.05
48.03
84.09
108.59
122.14
126.49
123.45
114.46
100.69
83.58
65.14
47.82
34.07
25.86
24.02
28.15
36.83
47.98
59.51
69.8
77.94
83.66
86.99
87.93
86.24
81.54
73.62
62.76
49.84
36.13
22.86
10.95
0.65
-8.39
-16.99
-26.01
-36.0
-46.94
-58.11
-68.37
-76.61
-82.21
-85.43
-87.37
-89.71
-94.18
-102.22
-114.6
-131.0
-149.61
-167.01
-178.45
-179.04
-165.23
-136.41
-95.39
-47.74
-0.11
41.77
74.45
96.87
109.74
114.32
111.74
102.9
88.87
71.39
52.96
36.51
24.71
19.29
20.62
27.67
38.49
50.76
62.44
72.16
79.41
84.18
86.57
86.44
83.34
76.77
66.69
53.81
39.63
25.91
14.07
4.67
-2.81
-9.64
-17.2
-26.39
-37.29
-49.09
-60.54
-70.32
-77.67
-82.57
-85.87
-89.05
-93.91
-102.18
-114.99
-132.35
-152.66
-172.45
-186.78
-190.32
-178.93
-151.23
-109.44
-58.92
-6.69
40.67
78.57
105.18
120.92
127.4
126.35
119.16
107.07
91.53
74.63
58.96
47.08
40.77
40.58
45.74
54.49
64.77
74.82
83.52
90.47
95.66
99.07
100.42
99.1
94.47
86.21
74.73
61.17
47.14
34.15
23.09
13.91
5.71
-2.73
-12.34
-23.32
-35.02
-46.28
-55.93
-63.23
-68.22
-71.67
-74.91
-79.5
-86.92
-98.23
-113.62
-131.87
-150.1
-163.88
-168.2
-158.95
-134.52
-96.59
-49.98
-1.18
43.55
79.82
105.77
121.73
129.08
129.38
123.76
113.22
99.04
83.17
68.18
56.61
50.31
49.82
54.27
61.87
70.48
78.4
84.74
89.28
92.25
93.76
93.57
91.06
85.57
76.8
65.07
51.45
37.46
24.58
13.79
5.21
-1.9
-8.74
-16.48
-25.71
-36.2
-47.06
-57.08
-65.25
-71.18
-75.23
-78.48
-82.44
-88.75
-98.79
-113.2
-131.34
-150.9
-167.96
-177.64
-175.49
-159.02
-128.72
-88.19
-43.09
0.5
37.77
66.04
84.72
94.58
96.78
92.34
82.24
67.76
50.88
34.27
20.74
12.54
10.7
14.84
23.4
34.36
45.87
56.67
66.07
73.61
78.75
80.76
78.86
72.7
62.61
49.79
36.01
23.02
12.01
3.1
-4.55
-12.36
-21.59
-32.68
-44.97
-56.94
-66.9
-73.77
-77.62
-79.65
-81.86
-86.42
-95.01
-108.32
-125.47
-143.83
-159.15
-166.43
-161.27
-141.42
-107.81
-64.46
-17.37
27.29
64.79
92.74
110.83
120.03
121.68
116.99
107.06
93.27
77.59
62.44
50.3
43.02
41.35
44.7
51.46
59.56
67.11
73.01
76.96
79.27
80.37
80.32
78.65
74.57
67.43
57.25
44.88
31.82
19.7
9.59
1.68
-4.8
-11.1
-18.35
-27.03
-36.78
-46.48
-54.86
-61.0
-64.77
-66.96
-69.03
-72.77
-79.79
-91.25
-107.36
-127.03
-147.52
-164.52
-172.91
-168.18
-148.11
-113.86
-69.91
-22.72
21.25
57.4
83.78
100.67
109.59
112.11
109.47
102.64
92.75
81.36
70.45
61.9
57.07
56.5
59.83
66.01
73.65
81.34
87.99
92.94
95.93
96.89
95.78
92.46
86.8
78.86
68.99
57.89
46.44
35.49
25.62
17.09
9.7
2.9
-4.03
-11.82
-20.85
-31.0
-41.57
-51.59
-60.14
-66.78
-71.82
-76.2
-81.32
-88.68
-99.6
-114.68
-133.37
-153.49
-171.17
-181.41
-179.54
-162.82
-131.72
-90.07
-43.97
0.1
37.11
64.56
82.28
91.56
93.97
90.67
82.47
70.29
55.62
40.74
28.22
20.27
18.1
21.52
29.16
38.99
49.1
58.13
65.53
71.23
75.15
76.95
75.96
71.5
63.35
52.06
38.94
25.72
13.87
4.18
-3.5
-10.09
-16.83
-24.67
-33.87
-43.87
-53.51
-61.46
-66.9
-69.76
-71.01
-72.31
-75.69
-82.95
-95.13
-111.91
-131.27
-149.48
-161.67
-163.06
-150.45
-123.44
-84.86
-40.01
4.87
44.37
75.11
96.1
108.1
112.67
111.35
105.3
95.57
83.48
70.84
59.76
52.16
49.2
50.83
55.97
62.85
69.75
75.34
79.05
80.86
81.03
79.74
76.9
72.14
65.04
55.47
43.83
31.12
18.77
8.11
-0.17
-6.23
-11.04
-15.94
-22.08
-29.86
-38.9
-48.19
-56.58
-63.28
-68.14
-71.79
-75.42
-80.51
-88.52
-100.52
-116.7
-135.95
-155.44
-170.88
-177.39
-170.85
-149.44
-114.56
-70.66
-23.95
19.42
54.97
80.69
96.83
104.96
106.9
104.18
97.88
88.97
78.69
68.65
60.62
56.06
55.68
59.21
65.55
73.16
80.53
86.62
90.84
92.99
93.1
91.17
87.25
81.42
73.92
65.11
55.4
45.3
35.29
25.84
17.34
9.98
3.61
-2.28
-8.42
-15.5
-23.82
-33.12
-42.64
-51.46
-58.85
-64.56
-69.0
-73.15
-78.32
-85.93
-97.13
-112.39
-130.95
-150.32
-166.42
-174.21
-169.25
-149.25
-115.2
-71.4
-24.2
19.91
56.01
81.82
97.46
104.5
104.82
99.88
90.69
78.23
63.89
49.7
37.92
30.54
28.58
31.78
38.74
47.43
55.95
62.97
67.96
70.98
72.3
71.97
69.75
65.22
58.04
48.33
36.82
24.74
13.46
4.03
-3.22
-8.79
-13.84
-19.66
-27.14
-36.28
-46.24
-55.67
-63.33
-68.68
-72.11
-74.75
-78.16
-83.8
-92.74
-105.45
-121.54
-139.38
-155.89
-166.82
-167.68
-155.14
-128.53
-90.38
-45.88
-1.29
37.91
68.34
89.07
100.89
105.18
103.1
95.46
83.07
67.31
50.43
35.23
24.36
19.5
20.87
27.24
36.49
46.41
55.32
62.44
67.6
70.82
71.92
70.41
65.7
57.61
46.68
34.2
21.81
10.99
2.42
-4.21
-10.05
-16.52
-24.7
-34.76
-45.9
-56.64
-65.52
-71.67
-75.34
-77.78
-80.92
-86.76
-96.77
-111.4
-129.53
-148.36
-163.56
-170.19
-164.02
-143.13
-108.78
-65.36
-19.12
23.72
58.63
83.61
98.89
105.94
106.39
101.6
92.63
80.69
67.48
55.08
45.52
40.28
39.81
43.5
49.97
57.55
64.79
70.76
75.11
77.92
79.37
79.42
77.73
73.76
67.07
57.71
46.38
34.38
23.18
13.89
6.83
1.44
-3.49
-9.31
-16.94
-26.52
-37.35
-48.15
-57.56
-64.69
-69.43
-72.6
-75.65
-80.33
-88.23
-100.41
-117.0
-136.61
-156.07
-170.64
-174.97
-164.82
-138.65
-98.62
-50.23
-0.65
43.47
77.84
101.06
114.14
119.13
117.92
111.82
101.67
88.52
73.99
60.29
49.61
43.56
42.6
45.98
52.17
59.45
66.5
72.62
77.69
81.66
84.26
84.82
82.44
76.42
66.72
54.19
40.32
26.89
15.29
6.09
-1.12
-7.51
-14.49
-23.1
-33.52
-45.01
-56.2
-65.73
-72.77
-77.41
-80.61
-83.89
-88.92
-97.19
-109.62
-126.16
-145.29
-163.77
-176.92
-179.75
-168.54
-142.4
-103.82
-58.16
-11.87
29.3
61.68
84.01
96.78
101.25
98.72
90.35
77.42
61.76
45.76
32.13
23.21
20.37
23.57
31.48
42.01
53.02
62.98
71.14
77.34
81.48
83.15
81.61
76.13
66.58
53.77
39.39
25.44
13.4
3.79
-4.1
-11.62
-20.14
-30.27
-41.56
-52.72
-62.17
-68.83
-72.64
-74.65
-76.76
-81.12
-89.56
-102.89
-120.37
-139.48
-156.04
-165.04
-161.92
-144.14
-112.22
-69.83
-22.84
22.42
60.85
89.65
108.3
117.82
119.83
115.79
106.92
94.46
80.02
65.73
53.92
46.56
44.66
47.92
54.9
63.58
72.01
78.94
83.86
86.88
88.25
87.98
85.77
81.16
73.81
63.77
51.63
38.47
25.57
14.04
4.49
-3.28
-10.14
-17.3
-25.72
-35.64
-46.4
-56.75
-65.38
-71.56
-75.48
-78.16
-81.14
-86.08
-94.42
-107.02
-123.73
-142.91
-161.17
-173.65
-175.25
-162.21
-133.72
-92.48
-44.12
4.49
47.26
80.4
102.75
115.2
119.59
117.74
111.12
100.92
88.53
75.72
64.55
56.89
53.95
55.87
61.72
69.9
78.65
86.52
92.58
96.45
98.02
97.25
94.13
88.65
80.91
71.27
60.27
48.61
36.96
25.89
15.83
7.07
-0.34
-6.58
-12.11
-17.52
-23.37
-29.89
-36.86
-43.71
-49.76
-54.63
-58.46
-61.96
-66.29
-72.79
-82.73
-96.91
-115.23
-136.1
-156.12
-170.48
-174.11
-163.32
-137.25
-98.51
-52.51
-5.75
35.96
68.92
91.85
105.3
110.65
109.26
102.21
90.58
75.82
60.02
45.7
35.27
30.36
31.29
37.07
45.75
55.16
63.51
69.85
73.96
76.07
76.41
74.88
71.11
64.65
55.41
43.87
31.12
18.59
7.58
-1.3
-8.32
-14.52
-21.19
-29.32
-39.07
-49.68
-59.79
-68.08
-73.85
-77.25
-79.33
-81.66
-85.87
-93.31
-104.78
-120.1
-137.83
-155.02
-167.48
-170.62
-160.83
-136.92
-100.79
-57.14
-12.1
28.56
60.88
83.27
96.08
100.59
98.17
89.93
76.95
60.78
43.71
28.46
17.61
12.78
14.15
20.51
29.8
39.88
49.18
56.93
63.02
67.46
69.96
69.8
66.19
58.77
48.0
35.28
22.48
11.21
2.22
-4.94
-11.57
-19.2
-28.74
-40.06
-52.0
-62.94
-71.48
-77.16
-80.65
-83.53
-87.87
-95.58
-107.78
-124.29
-143.21
-160.93
-172.64
-173.47
-160.08
-131.93
-91.78
-45.1
1.53
42.34
73.74
94.69
106.11
109.74
107.26
99.88
88.67
74.99
60.82
48.61
40.67
38.45
42.05
50.18
60.68
71.3
80.26
86.73
90.6
92.17
91.69
89.09
84.04
76.19
65.55
52.66
38.63
24.82
12.4
1.98
-6.54
-13.96
-21.37
-29.65
-39.11
-49.3
-59.15
-67.49
-73.51
-77.23
-79.57
-82.11
-86.62
-94.7
-107.2
-123.91
-143.16
-161.64
-174.77
-177.59
-166.33
-139.86
-100.41
-53.17
-4.78
38.66
73.16
97.3
111.82
118.41
118.77
114.14
105.47
93.88
80.99
68.94
59.97
55.73
56.77
62.37
70.8
79.97
88.14
94.29
98.24
100.21
100.41
98.72
94.8
88.27
79.11
67.78
55.16
42.38
30.46
20.02
11.16
3.33
-4.4
-13.01
-23.02
-34.24
-45.67
-55.95
-63.91
-69.12
-72.14
-74.33
-77.49
-83.35
-93.23
-107.69
-126.1
-146.31
-164.55
-175.98
-175.88
-161.16
-131.71
-90.66
-43.66
2.78
43.09
73.86
94.13
104.67
107.1
102.96
93.51
79.93
63.81
47.38
33.25
23.81
20.46
23.11
30.3
39.83
49.59
58.22
65.13
70.25
73.47
74.3
72.0
66.01
56.43
44.24
31.14
18.95
8.94
1.31
-4.8
-10.9
-18.34
-27.66
-38.28
-48.83
-57.7
-63.87
-67.31
-69.15
-71.26
-75.67
-83.99
-96.86
-113.4
-131.06
-145.79
-152.88
-148.2
-129.65
-98.08
-57.27
-12.91
29.09
64.16
89.94
106.2
113.99
114.68
109.37
99.01
84.83
68.76
53.43
41.59
35.34
35.4
40.96
50.03
60.16
69.3
76.24
80.67
82.92
83.35
81.94
78.31
71.9
62.46
50.51
37.31
24.56
13.7
5.26
-1.31
-7.35
-14.33
-23.14
-33.64
-44.79
-55.15
-63.52
-69.47
-73.5
-76.89
-81.37
-88.68
-100.08
-115.91
-135.0
-154.43
-169.78
-176.03
-168.98
-146.84
-111.01
-65.92
-17.79
27.23
64.51
91.85
109.12
117.55
118.77
114.29
105.47
93.84
81.23
69.74
61.35
57.37
58.1
62.7
69.61
77.04
83.56
88.41
91.44
92.86
92.84
91.24
87.62
81.45
72.45
60.88
47.59
33.92
21.19
10.35
1.59
-5.69
-12.58
-20.18
-29.03
-38.88
-48.81
-57.66
-64.58
-69.37
-72.63
-75.59
-79.78
-86.7
-97.48
-112.38
-130.39
-148.84
-163.56
-169.71
-163.22
-142.22
-108.08
-65.12
-19.46
22.84
57.34
81.95
96.65
102.64
101.42
94.31
82.54
67.61
51.59
36.93
25.96
20.31
20.3
24.95
32.44
40.8
48.59
55.12
60.29
64.07
66.1
65.62
61.83
54.4
43.82
31.43
18.94
7.78
-1.37
-8.76
-15.31
-22.21
-30.33
-39.79
-49.95
-59.61
-67.52
-73.0
-76.33
-78.78
-82.21
-88.51
-98.89
-113.26
-129.83
-145.19
-154.9
-154.65
-141.5
-115.12
-78.14
-35.55
6.8
43.82
72.45
91.86
102.83
106.75
104.84
97.98
87.09
73.6
59.67
47.83
40.35
38.41
41.78
48.92
57.66
65.95
72.51
76.94
79.48
80.47
79.88
77.23
71.85
63.33
52.04
39.14
26.26
14.88
5.71
-1.59
-8.19
-15.55
-24.68
-35.64
-47.52
-58.83
-68.11
-74.65
-78.71
-81.5
-84.85
-90.68
-100.52
-114.97
-133.18
-152.61
-169.03
-177.4
-173.25
-154.25
-121.27
-78.36
-31.66
12.49
49.29
76.38
93.78
102.95
105.73
103.63
97.79
89.21
79.29
69.76
62.55
59.17
60.27
65.39
73.12
81.61
89.15
94.67
97.86
99.0
98.53
96.65
93.23
87.87
80.17
70.08
58.02
44.93
31.97
20.26
10.51
2.83
-3.31
-8.85
-14.76
-21.62
-29.4
-37.5
-45.03
-51.31
-56.11
-59.89
-63.68
-68.8
-76.74
-88.61
-104.82
-124.45
-144.88
-161.9
-170.55
-166.52
-147.76
-115.41
-73.68
-28.67
13.45
48.1
73.06
88.28
95.03
94.85
89.04
78.72
65.17
50.28
36.38
25.94
20.71
21.28
26.84
35.55
45.26
54.18
61.25
66.19
69.11
70.18
69.24
65.89
59.75
50.75
39.44
26.97
14.81
4.26
-4.02
-10.26
-15.45
-20.88
-27.5
-35.45
-43.95
-51.71
-57.55
-60.95
-62.36
-63.06
-64.75
-69.14
-77.5
-90.25
-106.65
-124.39
-139.74
-148.14
-145.42
-129.27
-100.23
-61.8
-19.45
20.97
54.87
79.82
95.52
103.02
103.83
99.26
90.37
78.28
64.58
51.4
41.14
35.82
36.36
42.27
51.79
62.54
72.26
79.55
84.0
85.9
85.72
83.62
79.32
72.3
62.34
49.82
35.91
22.22
10.32
1.11
-5.51
-10.59
-15.71
-22.23
-30.78
-40.91
-51.4
-60.76
-67.94
-72.75
-75.91
-78.83
-83.16
-90.42
-101.66
-117.07
-135.49
-154.17
-168.8
-174.5
-167.18
-145.14
-109.93
-66.21
-20.29
21.68
55.44
79.27
93.66
100.3
101.03
97.29
90.14
80.65
70.27
60.77
53.97
51.14
52.62
57.69
64.89
72.49
79.04
83.7
86.2
86.73
85.52
82.73
78.34
72.35
64.84
56.15
46.84
37.5
28.67
20.72
13.79
7.85
2.62
-2.36
-7.7
-13.91
-21.2
-29.22
-37.24
-44.39
-50.12
-54.43
-58.03
-62.08
-67.93
-76.82
-89.66
-106.53
-126.26
-146.02
-161.49
-167.69
-160.56
-138.54
-103.44
-60.1
-14.93
25.99
58.55
81.17
94.38
99.75
98.94
93.23
83.6
71.2
57.66
45.11
35.7
31.02
31.48
36.25
43.52
51.22
57.75
62.34
64.99
66.11
65.95
64.34
60.77
54.7
46.03
35.26
23.47
11.99
1.94
-6.24
-12.93
-19.11
-25.96
-34.18
-43.67
-53.45
-62.22
-68.84
-72.94
-75.1
-76.55
-78.82
-83.28
-90.93
-102.19
-116.68
-132.82
-147.65
