0
6.24
3.53
0.88
-1.74
-4.45
-7.36
-10.47
-13.71
-16.99
-20.31
-23.64
-26.82
-29.42
-30.84
-30.47
-27.93
-23.29
-17.02
-9.84
-2.46
4.59
10.92
16.27
20.39
23.1
24.36
24.31
23.3
21.75
20.07
18.53
17.25
16.26
15.53
15.03
14.67
14.36
13.94
13.33
12.45
11.33
10.0
8.45
6.57
4.26
1.47
-1.7
-5.0
-8.17
-11.02
-13.56
-16.0
-18.59
-21.54
-24.79
-28.11
-30.98
-32.85
-33.19
-31.7
-28.34
-23.4
-17.37
-10.83
-4.27
1.93
7.47
12.13
15.69
17.95
18.86
18.58
17.43
15.88
14.37
13.2
12.5
12.24
12.3
12.49
12.66
12.68
12.48
12.05
11.39
10.5
9.29
7.66
5.56
3.07
0.38
-2.29
-4.77
-7.06
-9.24
-11.49
-13.89
-16.51
-19.33
-22.33
-25.44
-28.45
-31.02
-32.63
-32.8
-31.19
-27.79
-22.9
-17.04
-10.8
-4.64
1.12
6.29
10.69
14.18
16.56
17.74
17.76
16.85
15.45
13.99
12.84
12.16
11.89
11.87
11.92
11.97
11.98
11.95
11.78
11.32
10.39
8.85
6.72
4.12
1.28
-1.57
-4.26
-6.74
-9.09
-11.48
-14.14
-17.22
-20.72
-24.43
-27.96
-30.71
-32.14
-31.72
-29.24
-24.75
-18.67
-11.68
-4.58
1.94
7.46
11.76
14.82
16.67
17.38
17.02
15.85
14.26
12.72
11.6
11.04
10.89
10.89
10.81
10.57
10.24
9.87
9.42
8.76
7.69
6.1
4.0
1.46
-1.37
-4.38
-7.45
-10.5
-13.47
-16.31
-19.07
-21.82
-24.67
-27.66
-30.65
-33.33
-35.22
-35.8
-34.65
-31.6
-26.74
-20.49
-13.39
-6.04
1.01
7.33
12.54
16.33
18.53
19.14
18.41
16.81
14.9
13.19
12.0
11.4
11.31
11.56
11.98
12.48
12.95
13.23
13.1
12.33
10.75
8.39
5.49
2.42
-0.46
-2.94
-5.08
-7.15
-9.52
-12.42
-15.91
-19.81
-23.86
-27.72
-31.07
-33.53
-34.63
-33.98
-31.26
-26.5
-20.11
-12.78
-5.33
1.55
7.45
12.21
15.85
18.43
19.94
20.36
19.74
18.28
16.32
14.35
12.75
11.77
11.45
11.62
12.07
12.55
12.86
12.81
12.31
11.26
9.66
7.61
5.25
2.69
0.06
-2.61
-5.32
-8.1
-11.05
-14.27
-17.85
-21.72
-25.51
-28.58
-30.17
-29.64
-26.75
-21.71
-15.08
-7.59
0.09
7.38
13.83
19.07
22.76
24.76
25.08
23.97
21.81
19.04
16.11
13.44
11.35
10.07
9.59
9.7
10.08
10.37
10.31
9.79
8.74
7.09
4.8
1.87
-1.58
-5.25
-8.88
-12.25
-15.42
-18.65
-22.24
-26.31
-30.66
-34.72
-37.66
-38.69
-37.27
-33.28
-27.01
-19.13
-10.48
-1.86
6.06
12.84
18.22
22.08
24.33
24.97
24.13
22.1
19.38
16.54
14.12
12.4
11.4
10.94
10.77
10.73
10.74
10.72
10.54
10.0
8.89
7.08
4.6
1.65
-1.57
-4.93
-8.38
-11.96
-15.68
-19.56
-23.61
-27.78
-31.99
-35.96
-39.15
-40.84
-40.31
-37.15
-31.43
-23.77
-15.06
-6.26
1.91
9.02
14.85
19.25
22.09
23.28
22.93
21.35
19.1
16.74
14.74
13.32
12.52
12.25
12.37
12.75
13.2
13.44
13.18
12.16
10.31
7.74
4.74
1.64
-1.33
-4.12
-6.83
-9.68
-12.85
-16.49
-20.56
-24.93
-29.22
-32.9
-35.23
-35.48
-33.11
-27.99
-20.46
-11.25
-1.37
8.21
16.67
23.46
28.3
31.12
32.01
31.23
29.16
26.28
23.11
20.15
17.79
16.27
15.66
15.82
16.44
17.16
17.63
17.57
16.83
15.33
13.08
10.15
6.7
2.98
-0.78
-4.44
-8.03
-11.67
-15.61
-20.01
-24.87
-29.95
-34.77
-38.64
-40.73
-40.28
-36.77
-30.17
-21.06
-10.49
0.24
10.01
18.09
24.21
28.43
30.88
31.67
30.91
28.84
25.88
22.61
19.63
17.32
15.82
15.03
14.72
14.68
14.73
14.67
14.27
13.31
11.64
9.26
6.3
2.98
-0.54
-4.2
-8.04
-12.07
-16.33
-20.82
-25.53
-30.41
-35.21
-39.38
-42.07
-42.34
-39.54
-33.56
-25.03
-15.01
-4.7
4.95
13.35
20.24
25.46
28.87
30.3
29.76
27.52
24.19
20.45
16.98
14.27
12.54
11.83
11.99
12.74
13.71
14.45
14.57
13.84
12.23
9.84
6.88
3.51
-0.15
-4.07
-8.25
-12.75
-17.66
-23.05
-28.79
-34.44
-39.18
-41.94
-41.73
-38.03
-30.98
-21.37
-10.45
0.57
10.67
19.22
25.92
30.65
33.41
34.24
33.3
30.86
27.35
23.31
19.32
15.88
13.35
11.81
11.11
10.88
10.7
10.2
9.17
7.6
5.56
3.12
0.31
-2.9
-6.56
-10.71
-15.31
-20.32
-25.66
-31.23
-36.73
-41.53
-44.75
-45.37
-42.58
-36.1
-26.39
-14.48
-1.69
10.72
21.82
31.01
37.97
42.54
44.69
44.57
42.56
39.27
35.37
31.57
28.37
26.07
24.76
24.26
24.27
24.37
24.19
23.45
22.03
19.92
17.13
13.69
9.64
5.04
0.06
-5.12
-10.34
-15.52
-20.71
-26.06
-31.71
-37.58
-43.29
-48.03
-50.76
-50.41
-46.33
-38.55
-27.79
-15.3
-2.48
9.48
19.79
28.06
34.12
37.86
39.25
38.36
35.57
31.57
27.25
23.51
20.91
19.61
19.29
19.48
19.7
19.74
19.6
19.39
19.11
18.56
17.41
15.34
12.23
8.25
3.73
-0.96
-5.56
-9.99
-14.29
-18.57
-22.89
-27.25
-31.69
-36.2
-40.66
-44.71
-47.67
-48.66
-46.84
-41.77
-33.54
-22.79
-10.55
2.0
13.83
24.09
32.17
37.69
40.52
40.79
38.91
35.51
31.38
27.28
23.85
21.43
20.1
19.64
19.71
19.93
20.03
19.87
19.38
18.49
17.05
14.93
12.04
8.44
4.34
0.03
-4.22
-8.33
-12.36
-16.49
-20.92
-25.76
-30.92
-36.04
-40.51
-43.5
-44.16
-41.82
-36.21
-27.64
-16.94
-5.27
6.21
16.54
25.09
31.51
35.63
37.41
36.94
34.56
30.89
26.68
22.73
19.61
17.54
16.44
16.0
15.9
15.91
15.87
15.7
15.27
14.4
12.9
10.64
7.62
3.95
-0.1
-4.26
-8.26
-11.96
-15.37
-18.69
-22.24
-26.32
-31.12
-36.52
-41.99
-46.72
-49.74
-50.14
-47.42
-41.51
-32.88
-22.39
-11.11
-0.04
9.98
18.44
25.02
29.55
31.96
32.25
30.61
27.47
23.53
19.62
16.45
14.44
13.62
13.67
14.11
14.55
14.79
14.8
14.6
14.12
13.18
11.56
9.12
5.89
2.14
-1.75
-5.45
-8.8
-11.83
-14.73
-17.73
-21.02
-24.66
-28.67
-32.94
-37.25
-41.22
-44.25
-45.64
-44.78
-41.34
-35.36
-27.3
-17.88
-7.9
1.92
10.94
18.65
24.65
28.69
30.64
30.66
29.07
26.36
23.11
19.83
16.94
14.7
13.23
12.49
12.35
12.64
13.1
13.48
13.47
12.83
11.42
9.24
6.48
3.39
0.21
-2.91
-5.92
-8.93
-12.04
-15.4
-19.11
-23.23
-27.7
-32.28
-36.46
-39.5
-40.57
-39.0
-34.52
-27.4
-18.39
-8.53
1.17
9.91
17.21
22.81
26.6
28.55
28.71
27.33
24.86
21.86
18.87
16.26
14.19
12.61
11.44
10.61
10.13
9.97
10.03
10.08
9.85
9.11
7.71
5.62
2.9
-0.37
-4.04
-7.93
-11.82
-15.58
-19.15
-22.69
-26.4
-30.45
-34.8
-39.1
-42.74
-44.94
-45.0
-42.48
-37.31
-29.87
-20.86
-11.14
-1.58
7.12
14.5
20.26
24.17
26.08
25.9
23.81
20.36
16.39
12.81
10.36
9.27
9.3
9.93
10.6
10.97
10.94
10.58
9.91
8.9
7.44
5.48
3.07
0.42
-2.24
-4.77
-7.18
-9.62
-12.29
-15.38
-18.94
-22.94
-27.22
-31.52
-35.46
-38.55
-40.22
-39.94
-37.38
-32.52
-25.7
-17.5
-8.68
0.02
7.98
14.69
19.81
23.14
24.66
24.58
23.23
21.03
18.42
15.73
13.28
11.32
10.03
9.5
9.64
10.25
10.96
11.41
11.29
10.47
8.95
6.86
4.34
1.57
-1.34
-4.25
-7.15
-10.09
-13.22
-16.75
-20.76
-25.15
-29.5
-33.18
-35.4
-35.51
-33.12
-28.23
-21.23
-12.83
-3.88
4.79
12.4
18.41
22.5
24.64
24.99
23.9
21.78
19.11
16.26
13.55
11.19
9.3
7.9
6.94
6.37
6.08
5.91
5.68
5.12
4.04
2.32
-0.01
-2.81
-5.83
-8.87
-11.82
-14.7
-17.64
-20.85
-24.54
-28.79
-33.39
-37.86
-41.37
-43.02
-42.1
-38.36
-32.06
-23.96
-14.94
-5.81
2.88
10.77
17.59
23.04
26.8
28.66
28.63
27.06
24.47
21.43
18.4
15.65
13.37
11.65
10.6
10.26
10.54
11.18
11.79
11.94
11.33
9.81
7.44
4.39
0.94
-2.66
-6.15
-9.37
-12.27
-14.95
-17.72
-20.92
-24.76
-29.15
-33.6
-37.34
-39.48
-39.29
-36.43
-30.98
-23.41
-14.51
-5.13
3.9
11.94
18.57
23.55
26.82
28.38
28.32
26.84
24.31
21.24
18.27
15.96
14.66
14.36
14.82
15.61
16.33
16.69
16.59
15.98
14.85
13.18
10.99
8.38
5.48
2.48
-0.48
-3.39
-6.28
-9.25
-12.4
-15.8
-19.43
-23.16
-26.67
-29.5
-31.05
-30.74
-28.23
-23.52
-16.94
-9.14
-0.84
7.3
14.73
21.03
25.85
28.94
30.19
29.69
27.77
24.89
21.63
18.54
16.05
14.37
13.54
13.35
13.53
13.74
13.76
13.46
12.76
11.65
10.06
7.92
5.26
2.19
-1.06
-4.24
-7.24
-10.11
-13.03
-16.18
-19.67
-23.49
-27.5
-31.5
-35.18
-38.03
-39.45
-38.8
-35.67
-30.11
-22.64
-14.11
-5.38
2.86
10.27
16.67
21.91
25.78
28.04
28.56
27.51
25.39
22.86
20.59
18.99
18.14
17.87
17.87
17.88
17.79
17.58
17.28
16.87
16.22
15.14
13.45
11.05
7.97
4.38
0.53
-3.34
-7.0
-10.33
-13.36
-16.17
-18.93
-21.85
-25.08
-28.72
-32.72
-36.8
-40.41
-42.82
-43.28
-41.29
-36.82
-30.28
-22.4
-13.91
-5.44
2.55
9.7
15.61
19.92
22.37
23.02
22.29
20.84
19.34
18.27
17.77
17.76
17.95
18.08
18.02
17.78
17.49
17.3
17.24
17.15
16.76
15.74
13.9
11.23
7.92
4.25
0.48
-3.18
-6.64
-9.82
-12.72
-15.41
-18.04
-20.85
-23.99
-27.41
-30.73
-33.31
-34.41
-33.47
-30.31
-25.15
-18.53
-11.05
-3.32
4.16
10.96
16.65
20.82
23.18
23.73
22.75
20.74
18.34
16.08
14.3
13.12
12.52
12.41
12.66
13.11
13.6
13.93
13.93
13.45
12.39
10.7
8.42
5.65
2.57
-0.65
-3.9
-7.15
-10.47
-14.01
-17.85
-21.89
-25.89
-29.37
-31.78
-32.65
-31.68
-28.82
-24.25
-18.3
-11.44
-4.18
2.99
9.6
15.23
19.6
22.48
23.8
23.6
22.06
19.52
16.43
13.26
10.46
8.35
7.07
6.63
6.87
7.51
8.26
8.74
8.64
7.71
5.86
3.18
-0.04
-3.43
-6.66
-9.53
-12.03
-14.37
-16.84
-19.78
-23.38
-27.63
-32.23
-36.6
-39.99
-41.64
-40.93
-37.57
-31.71
-23.87
-14.82
-5.38
3.71
11.87
18.66
23.71
26.8
27.9
27.25
25.34
22.83
20.35
18.38
17.17
16.73
16.89
17.4
17.94
18.28
18.23
17.76
16.9
15.67
14.03
11.88
9.18
5.96
2.46
-1.05
-4.33
-7.35
-10.24
-13.2
-16.42
-19.95
-23.74
-27.67
-31.53
-34.94
-37.37
-38.26
-37.14
-33.83
-28.53
-21.71
-13.95
-5.84
2.17
9.65
16.15
21.26
24.62
26.11
25.92
24.48
22.38
20.21
18.42
17.26
16.81
16.95
17.48
18.13
18.65
18.82
18.51
17.66
16.24
14.27
11.77
8.82
5.56
2.16
-1.2
-4.39
-7.36
-10.17
-12.88
-15.6
-18.39
-21.33
-24.43
-27.62
-30.67
-33.12
-34.34
-33.73
-30.91
-25.96
-19.33
-11.72
-3.84
3.74
10.63
16.53
21.11
24.07
25.23
24.65
22.76
20.19
17.57
15.35
13.72
12.69
12.24
12.36
13.05
14.18
15.45
16.36
16.44
15.38
13.23
10.36
7.29
4.46
2.06
-0.02
-2.08
-4.42
-7.23
-10.49
-14.07
-17.82
-21.54
-25.04
-27.96
-29.85
-30.17
-28.48
-24.64
-18.86
-11.76
-4.08
3.43
10.17
15.79
20.12
23.09
24.65
24.87
23.9
22.0
19.58
17.05
14.78
13.01
11.81
11.08
10.65
10.29
9.89
9.36
8.68
7.77
6.55
4.89
2.74
0.14
-2.81
-5.96
-9.21
-12.53
-15.97
-19.64
-23.57
-27.71
-31.83
-35.55
-38.27
-39.36
-38.28
-34.83
-29.2
-22.01
-14.0
-5.89
1.84
8.93
15.22
20.46
24.35
26.6
27.09
26.03
23.94
21.47
19.27
17.77
17.09
17.1
17.48
17.89
18.08
17.95
17.51
16.79
15.76
14.32
12.31
9.67
6.48
2.99
-0.46
-3.65
-6.53
-9.26
-12.09
-15.19
-18.64
-22.38
-26.3
-30.24
-33.97
-37.14
-39.22
-39.63
-37.92
-33.94
-27.9
-20.33
-11.89
-3.25
5.04
12.51
18.8
23.63
26.82
28.35
28.35
27.17
25.26
23.11
21.2
19.88
19.26
19.28
19.65
20.01
20.08
19.73
18.98
17.93
16.62
14.95
12.8
10.08
6.86
3.39
-0.03
-3.21
-6.09
-8.76
-11.36
-13.94
-16.53
-19.11
-21.7
-24.4
-27.34
-30.54
-33.82
-36.84
-39.1
-40.09
-39.41
-36.83
-32.37
-26.3
-19.07
-11.25
-3.44
3.88
10.35
15.73
19.85
22.57
23.86
23.74
22.53
20.68
18.79
17.35
16.59
16.48
16.74
17.09
17.3
17.28
17.03
16.52
15.69
14.51
12.93
11.01
8.84
6.5
4.06
1.52
-1.13
-3.85
-6.58
-9.28
-11.92
-14.49
-17.06
-19.7
-22.48
-25.38
-28.21
-30.64
-32.17
-32.31
-30.73
-27.37
-22.45
-16.4
-9.72
-2.85
3.84
10.04
15.44
19.73
22.63
23.99
23.88
22.58
20.54
18.28
16.25
14.76
13.93
13.68
13.81
14.07
14.2
14.02
13.44
12.49
11.21
9.68
7.87
5.75
3.28
0.49
-2.53
-5.65
-8.75
-11.8
-14.86
-18.01
-21.33
-24.81
-28.35
-31.78
-34.84
-37.14
-38.24
-37.64
-35.02
-30.31
-23.79
-16.05
-7.85
0.12
7.3
13.35
18.1
21.45
23.4
23.97
23.36
21.92
20.1
18.36
17.01
16.17
15.75
15.55
15.37
15.14
14.86
14.6
14.34
13.96
13.27
12.06
10.21
7.68
4.56
1.04
-2.64
-6.23
-9.54
-12.47
-15.11
-17.66
-20.39
-23.55
-27.19
-31.13
-34.97
-38.12
-39.91
-39.8
-37.46
-32.93
-26.59
-19.08
-11.09
-3.24
4.03
10.39
15.54
19.2
21.21
21.61
20.74
19.15
17.42
15.95
14.86
14.09
13.5
13.05
12.75
12.67
12.81
13.07
13.28
13.2
12.59
11.3
9.25
6.49
3.29
-0.02
-3.09
-5.73
-8.06
-10.32
-12.87
-15.93
-19.5
-23.36
-27.13
-30.37
-32.63
-33.5
-32.69
-30.05
-25.6
-19.6
-12.47
-4.76
2.94
10.05
16.04
20.47
23.09
23.92
23.25
21.59
19.49
17.41
15.66
14.32
13.37
12.76
12.42
12.32
12.36
12.36
12.1
11.33
9.91
7.87
5.34
2.57
-0.23
-2.93
-5.55
-8.19
-11.03
-14.25
-17.96
-22.16
-26.66
-31.04
-34.71
-37.0
-37.34
-35.46
-31.4
-25.54
-18.41
-10.62
-2.74
4.74
11.32
16.59
20.27
22.26
22.68
21.9
20.36
18.5
16.67
15.08
13.88
13.08
12.67
12.56
12.64
12.77
12.78
12.54
11.88
10.67
8.8
6.29
3.25
-0.1
-3.5
-6.79
-9.91
-12.96
-16.08
-19.46
-23.25
-27.46
-31.94
-36.27
-39.82
-41.85
-41.69
-38.97
-33.73
-26.4
-17.68
-8.35
0.86
9.36
16.66
22.39
26.28
28.24
28.41
27.21
25.25
23.16
21.45
20.39
19.95
19.87
19.84
19.59
19.05
18.3
17.47
16.62
15.65
14.34
12.43
9.83
6.61
3.01
-0.68
-4.28
-7.74
-11.15
-14.64
-18.29
-22.14
-26.17
-30.26
-34.16
-37.41
-39.42
-39.56
-37.4
-32.87
-26.29
-18.26
-9.49
-0.66
7.61
14.79
20.41
24.09
25.68
25.39
23.72
21.38
19.06
17.27
16.21
15.84
15.96
16.36
16.82
17.21
17.4
17.3
16.8
15.78
14.15
11.89
9.08
5.91
2.61
-0.56
-3.44
-6.05
-8.57
-11.28
-14.41
-18.01
-21.9
-25.66
-28.72
-30.47
-30.43
-28.28
-24.03
-17.94
-10.51
-2.4
5.69
13.11
19.33
24.05
27.13
28.61
28.62
27.42
25.32
22.69
19.93
17.4
15.37
13.98
13.21
12.93
12.9
12.85
12.48
11.57
10.02
7.82
5.09
1.97
-1.38
-4.86
-8.38
-11.84
-15.2
-18.46
-21.75
-25.24
-29.04
-33.02
-36.68
-39.2
-39.67
-37.46
-32.42
-24.97
-15.95
-6.33
2.99
11.38
18.38
23.67
27.09
28.63
28.53
27.22
25.28
23.24
21.48
20.13
19.15
18.39
17.74
17.12
16.5
15.87
15.19
14.34
13.16
11.45
9.12
6.18
2.81
-0.73
-4.15
-7.33
-10.27
-13.19
-16.35
-19.97
-24.08
-28.44
-32.56
-35.77
-37.41
-36.95
-34.14
-29.05
-22.08
-13.85
-5.09
3.45
11.16
17.59
22.51
25.86
27.65
28.01
27.14
25.39
23.2
21.07
19.4
18.37
17.89
17.74
17.66
17.53
17.34
17.04
16.52
15.57
13.96
11.58
8.52
5.01
1.35
-2.21
-5.5
-8.47
-11.11
-13.49
-15.78
-18.25
-21.22
-24.83
-28.98
-33.13
-36.49
-38.22
-37.72
-34.8
-29.73
-23.04
-15.34
-7.16
1.09
8.98
16.06
21.82
25.79
27.74
27.78
26.37
24.15
21.82
19.89
18.6
17.96
17.78
17.87
18.03
18.19
18.26
18.17
17.78
16.95
15.56
13.59
11.12
8.31
5.32
2.26
-0.81
-3.85
-6.85
-9.76
-12.64
-15.59
-18.77
-22.23
-25.82
-29.12
-31.5
-32.32
-31.11
-27.73
-22.35
-15.39
-7.46
0.73
8.53
15.29
20.53
23.98
25.57
25.47
24.01
21.64
18.89
16.32
14.42
13.47
13.44
14.02
14.74
15.19
15.15
14.64
13.78
12.65
11.24
9.37
6.93
3.88
0.39
-3.28
-6.84
-10.15
-13.21
-16.14
-19.14
-22.37
-25.93
-29.76
-33.62
-37.12
-39.77
-41.04
-40.49
-37.87
-33.16
-26.56
-18.51
-9.63
-0.61
7.8
15.01
20.63
24.47
26.57
27.12
26.44
24.9
22.97
21.09
19.66
18.9
18.85
19.31
19.99
20.6
20.88
20.7
19.98
18.68
16.8
14.37
11.45
8.15
4.65
1.13
-2.29
-5.56
-8.67
-11.7
-14.71
-17.75
-20.91
-24.26
-27.85
-31.68
-35.48
-38.75
-40.79
-40.91
-38.67
-34.06
-27.48
-19.61
-11.22
-2.92
4.86
11.8
17.69
22.36
25.62
27.43
27.89
27.22
25.77
23.92
22.02
20.35
19.12
18.38
18.1
18.14
18.3
18.38
18.24
17.69
16.59
14.76
12.14
8.76
4.84
0.75
-3.06
-6.28
-8.87
-11.02
-13.09
-15.42
-18.21
-21.46
-25.09
-28.92
-32.69
-36.04
-38.44
-39.28
-38.09
-34.67
-29.22
-22.29
-14.52
-6.6
0.96
7.75
13.43
17.7
20.38
21.48
21.25
20.12
18.58
17.07
15.86
15.06
14.68
14.63
14.77
14.97
15.14
15.25
15.26
15.06
14.44
13.17
11.07
8.17
4.7
1.01
-2.59
-5.93
-9.03
-11.97
-14.86
-17.71
-20.55
-23.38
-26.21
-28.85
-30.92
-31.86
-31.02
-28.05
-22.99
-16.3
-8.72
-1.03
6.14
12.32
17.18
20.49
22.11
22.11
20.81
18.71
16.38
14.3
12.74
11.74
11.21
11.02
11.02
11.09
11.06
10.7
9.77
8.13
5.81
2.94
-0.26
-3.57
-6.84
-10.01
-13.07
-16.03
-19.0
-22.11
-25.5
-29.12
-32.67
-35.52
-36.93
-36.26
-33.21
-28.0
-21.19
-13.53
-5.72
1.74
8.48
14.25
18.79
21.89
23.45
23.5
22.31
20.23
17.72
15.2
13.02
11.42
10.5
10.21
10.38
10.8
11.21
11.33
10.89
9.66
7.55
4.6
1.07
-2.64
-6.2
-9.39
-12.25
-14.99
-17.9
-21.21
-24.95
-28.95
-32.82
-36.03
-37.95
-38.02
-35.84
-31.32
-24.68
-16.46
-7.42
1.63
9.97
17.03
22.48
26.17
28.14
28.58
27.79
26.18
24.17
22.14
20.41
19.11
18.24
17.69
17.31
16.95
16.49
15.83
14.92
13.65
11.95
9.78
7.1
3.97
0.51
-3.11
-6.7
-10.07
-13.15
-15.98
-18.7
-21.55
-24.68
-28.13
-31.69
-34.95
-37.31
-38.15
-36.96
-33.48
-27.84
-20.52
-12.29
-3.99
3.68
10.2
15.35
19.04
21.3
22.19
21.84
20.51
18.56
16.47
14.67
13.42
12.79
12.67
12.86
13.15
13.41
13.52
13.37
12.78
11.62
9.81
7.38
4.53
1.47
-1.6
-4.6
-7.57
-10.6
-13.78
-17.17
-20.73
-24.31
-27.63
-30.19
-31.42
-30.76
-27.89
-22.86
-16.11
-8.37
-0.4
7.09
13.6
18.78
22.37
24.24
24.38
23.03
20.61
17.72
14.91
12.61
11.03
10.18
9.91
10.01
10.23
10.34
10.1
9.37
8.11
6.33
4.14
1.57
-1.32
-4.52
-8.01
-11.74
-15.65
-19.71
-23.9
-28.09
-31.97
-34.98
-36.39
-35.58
-32.22
-26.46
-18.89
-10.32
-1.62
6.48
13.46
18.95
22.74
24.79
25.23
24.33
22.46
20.04
17.41
14.88
12.69
11.05
10.08
9.75
9.91
10.23
10.37
10.05
9.09
7.51
5.36
2.74
-0.25
-3.51
-6.93
-10.4
-13.9
-17.49
-21.27
-25.22
-29.09
-32.29
-34.08
-33.76
-30.94
-25.64
-18.33
-9.76
-0.78
7.82
15.36
21.39
25.67
28.16
29.04
28.63
27.27
25.33
23.11
20.87
18.85
17.22
16.06
15.32
14.87
14.47
13.92
13.05
11.75
10.01
7.87
5.39
2.59
-0.48
-3.8
-7.32
-10.98
-14.74
-18.57
-22.53
-26.61
-30.74
-34.67
-37.97
-40.08
-40.4
-38.51
-34.28
-27.92
-20.02
-11.33
-2.67
5.29
12.01
17.16
20.59
22.31
22.5
21.48
19.69
17.62
15.69
14.19
13.25
12.85
12.86
13.11
13.43
13.64
13.64
13.32
12.62
11.44
9.76
7.53
4.82
1.73
-1.55
-4.83
-8.01
-11.12
-14.32
-17.79
-21.53
-25.25
-28.34
-30.02
-29.64
-26.9
-21.91
-15.21
-7.52
0.45
8.13
15.0
20.63
24.61
26.66
26.7
25.0
22.07
18.61
15.25
12.49
10.57
9.49
9.07
9.0
8.96
8.63
7.88
6.68
5.09
3.24
1.22
-1.03
-3.61
-6.64
-10.22
-14.28
-18.68
-23.13
-27.26
-30.55
-32.45
-32.44
-30.16
-25.59
-19.04
-11.2
-2.89
5.08
12.1
17.75
21.83
24.25
25.01
24.24
22.24
19.5
16.57
13.94
11.84
10.28
9.08
8.05
7.02
5.96
4.82
3.52
1.96
0.06
-2.14
-4.54
-7.02
-9.6
-12.46
-15.83
-19.84
-24.37
-28.93
-32.78
-35.17
-35.44
-33.29
-28.81
-22.35
-14.51
-5.94
2.69
10.73
17.58
22.76
25.96
27.15
26.57
24.73
22.22
19.56
17.15
15.19
13.71
12.7
12.06
11.66
11.34
10.95
10.33
9.36
7.97
6.15
3.9
1.3
-1.55
-4.55
-7.65
-10.94
-14.56
-18.56
-22.85
-27.05
-30.61
-32.88
-33.38
-31.84
-28.25
-22.8
-15.82
-7.78
0.73
9.03
16.41
22.29
26.32
28.4
28.71
27.58
25.48
22.88
20.22
17.85
15.99
14.74
14.08
13.88
13.98
14.15
14.12
13.67
12.6
10.86
8.5
5.7
2.66
-0.44
-3.45
-6.3
-8.97
-11.54
-14.14
-16.91
-20.0
-23.48
-27.2
-30.84
-33.84
-35.54
-35.37
-32.99
-28.45
-22.12
-14.6
-6.57
1.33
8.56
14.64
19.14
21.77
22.47
21.53
19.51
17.1
14.88
13.2
12.15
11.62
11.46
11.56
11.81
12.09
12.27
12.23
11.86
11.08
9.83
8.08
5.79
3.02
-0.08
-3.3
-6.42
-9.32
-12.04
-14.73
-17.55
-20.57
-23.59
-26.19
-27.81
-27.88
-26.04
-22.22
-16.71
-10.04
-2.86
4.19
10.61
16.03
20.2
22.93
24.11
23.77
22.1
19.47
16.37
13.32
10.74
8.88
7.84
7.51
7.65
7.99
8.22
8.06
7.36
6.03
4.11
1.71
-1.06
-4.1
-7.37
-10.89
-14.7
-18.79
-23.06
-27.26
-30.95
-33.64
-34.81
-34.07
-31.24
-26.37
-19.77
-11.98
-3.69
4.35
11.44
17.03
20.82
22.73
22.93
21.72
19.53
16.83
14.09
11.7
9.9
8.72
8.07
7.73
7.48
7.15
6.61
5.77
4.52
2.81
0.64
-1.91
-4.7
-7.66
-10.8
-14.19
-17.97
-22.17
-26.62
-30.92
-34.48
-36.6
-36.69
-34.4
-29.76
-23.18
-15.34
-7.02
1.06
8.37
14.56
19.46
22.95
24.99
25.58
24.82
23.0
20.55
17.98
15.74
14.12
13.17
12.78
12.74
12.83
12.89
12.76
12.29
11.35
9.81
7.61
4.83
1.6
-1.95
-5.72
-9.68
-13.85
-18.26
-22.89
-27.59
-32.04
-35.76
-38.13
-38.53
-36.58
-32.23
-25.84
-18.13
-9.89
-1.87
5.36
11.44
16.15
19.34
20.99
21.17
20.14
18.27
16.06
13.96
12.3
11.22
10.69
10.55
10.65
10.83
10.99
11.05
10.88
10.34
9.27
7.57
5.25
2.42
-0.74
-4.03
-7.35
-10.67
-14.08
-17.66
-21.37
-25.01
-28.13
-30.14
-30.46
-28.71
-24.86
-19.18
-12.2
-4.53
3.24
10.57
16.95
21.89
25.02
26.14
25.36
23.06
19.82
16.27
12.94
10.27
8.47
7.58
7.52
8.0
8.71
9.26
9.38
8.91
7.83
6.2
4.14
1.75
-0.92
-3.82
-6.94
-10.32
-14.01
-17.98
-22.04
-25.74
-28.44
-29.39
-28.03
-24.15
-18.04
-10.4
-2.14
5.83
12.8
18.3
22.05
23.94
23.98
22.32
19.4
15.8
12.18
9.08
6.76
5.2
4.17
3.41
2.74
2.09
1.48
0.86
0.15
-0.82
-2.27
-4.35
-7.16
-10.67
-14.82
-19.46
-24.35
-29.16
-33.37
-36.33
-37.35
-35.91
-31.81
-25.34
-17.2
-8.25
0.62
8.78
15.8
21.41
25.38
27.54
27.84
26.51
24.03
21.09
18.36
16.26
14.97
14.32
14.03
13.79
13.37
12.63
11.52
9.99
8.04
5.68
3.01
0.12
-2.85
-5.89
-9.11
-12.72
-16.86
-21.41
-25.87
-29.41
-31.14
-30.4
-27.03
-21.3
-13.87
-5.48
3.14
11.3
18.38
23.82
27.24
28.57
28.06
26.24
23.69
20.92
18.3
16.04
14.33
13.26
12.81
12.85
13.05
13.02
12.44
11.16
9.22
6.83
4.18
1.44
-1.33
-4.16
-7.06
-10.09
-13.27
-16.66
-20.33
-24.3
-28.34
-32.0
-34.55
-35.22
-33.44
-29.05
-22.41
-14.26
-5.49
3.03
10.67
16.96
21.64
24.56
25.7
25.23
23.5
20.99
18.26
15.8
13.99
12.97
12.68
12.9
13.34
13.7
13.78
13.44
12.6
11.2
9.17
6.53
3.42
0.14
-3.03
-5.91
-8.58
-11.34
-14.5
-18.11
-21.82
-24.95
-26.65
-26.27
-23.58
-18.81
-12.53
-5.42
1.87
8.81
14.96
19.94
23.43
25.16
25.08
23.34
20.37
16.8
13.29
10.4
8.42
7.35
6.92
6.8
6.65
6.27
5.54
4.46
3.01
1.19
-0.97
-3.47
-6.3
-9.46
-13.02
-17.04
-21.45
-26.05
-30.37
-33.74
-35.46
-34.92
-31.91
-26.58
-19.45
-11.24
-2.71
5.48
12.73
18.57
22.66
24.8
25.07
23.77
21.37
18.43
15.42
12.76
10.74
9.52
9.03
9.03
9.08
8.74
7.77
6.14
4.09
1.86
-0.43
-2.81
-5.44
-8.46
-11.9
-15.71
-19.84
-24.21
-28.66
-32.75
-35.77
-36.89
-35.45
-31.22
-24.56
-16.27
-7.32
1.42
9.32
15.99
21.19
24.74
26.54
26.69
25.49
23.48
21.23
19.24
17.74
16.7
15.96
15.33
14.73
14.15
13.62
13.09
12.41
11.4
9.91
7.86
5.27
2.16
-1.42
-5.39
-9.6
-13.87
-18.0
-21.95
-25.75
-29.47
-32.95
-35.78
-37.28
-36.81
-33.99
-28.87
-21.89
-13.72
-5.07
3.41
11.14
17.55
22.17
24.76
25.36
24.28
22.04
19.16
16.18
13.55
11.65
10.69
10.65
11.27
12.16
12.9
13.19
12.87
11.89
10.2
7.8
4.79
1.42
-1.95
-4.99
-7.58
-9.88
-12.22
-14.96
-18.31
-22.25
-26.49
-30.51
-33.65
-35.15
-34.35
-30.91
-24.93
-16.98
-7.98
1.07
9.31
16.15
21.24
24.46
25.8
25.4
23.6
20.88
17.88
15.18
13.26
12.32
12.24
12.71
13.31
13.67
13.58
12.98
11.95
10.61
9.02
7.18
5.01
2.46
-0.54
-3.95
-7.71
-11.75
-15.96
-20.26
-24.44
-28.15
-30.82
-31.79
-30.52
-26.76
-20.78
-13.3
-5.23
2.61
9.64
15.57
20.24
23.54
25.33
25.56
24.37
22.14
19.35
16.5
13.94
11.87
10.39
9.51
9.14
9.08
9.03
8.6
7.56
5.82
3.45
0.57
-2.67
-6.2
-9.95
-13.82
-17.68
-21.42
-25.03
-28.5
-31.77
-34.5
-36.15
-36.05
-33.63
-28.66
-21.34
-12.29
-2.39
7.38
16.08
23.0
27.68
30.07
30.4
29.13
26.82
23.99
21.03
18.29
16.03
14.49
13.77
13.77
14.21
14.63
14.53
13.57
11.64
8.87
5.6
2.19
-1.09
-4.14
-6.97
-9.72
-12.49
-15.42
-18.69
-22.44
-26.69
-31.16
-35.25
-38.07
-38.75
-36.72
-31.87
-24.58
-15.61
-5.83
3.89
12.73
20.09
25.52
28.83
30.11
29.69
28.08
25.79
23.3
20.97
19.06
17.67
16.82
16.36
16.13
15.92
15.53
14.85
13.74
12.11
9.92
7.19
4.03
0.6
-2.98
-6.6
-10.2
-13.69
-16.97
-19.99
-22.81
-25.65
-28.74
-32.09
-35.34
-37.77
-38.51
-36.92
-32.83
-26.6
-18.95
-10.63
-2.29
5.61
12.69
18.5
22.63
24.74
24.83
23.28
20.77
18.02
15.65
13.92
12.87
12.35
12.21
12.34
12.65
12.95
13.0
12.54
11.37
9.49
7.07
4.34
1.53
-1.25
-3.93
-6.51
-8.99
-11.45
-14.06
-17.0
-20.28
-23.72
-26.81
-28.87
-29.26
-27.6
-23.86
-18.33
-11.51
-3.97
3.72
11.01
17.38
22.34
25.55
26.87
26.41
24.52
21.7
18.5
15.43
12.85
10.99
9.83
9.24
8.96
8.7
8.26
7.48
6.31
4.72
2.68
0.22
-2.66
-5.85
-9.18
-12.47
-15.67
-18.8
-22.03
-25.51
-29.21
-32.77
-35.59
-36.92
-36.11
-32.84
-27.24
-19.82
-11.34
-2.6
5.73
13.08
19.07
23.42
25.99
26.83
26.15
24.3
21.71
18.79
15.91
13.41
11.5
10.29
9.76
9.75
9.96
10.04
9.65
8.58
6.71
4.14
1.03
-2.35
-5.75
-8.99
-12.05
-15.06
-18.22
-21.71
-25.54
-29.45
-32.9
-35.18
-35.56
-33.56
-29.08
-22.51
-14.65
-6.38
1.44
8.25
13.72
17.75
20.32
21.45
21.21
19.81
17.63
15.15
12.83
10.99
9.72
8.93
8.41
8.01
7.62
7.19
6.64
5.86
4.7
3.06
0.93
-1.59
-4.31
-7.07
-9.81
-12.59
-15.54
-18.81
-22.45
-26.32
-30.08
-33.19
-34.98
-34.81
-32.3
-27.46
-20.74
-12.86
-4.64
3.21
10.22
16.08
20.55
23.46
24.68
24.26
22.48
19.89
17.1
14.65
12.86
11.78
11.29
11.22
11.36
11.54
11.6
11.35
10.7
9.61
8.13
6.3
4.14
1.57
-1.53
-5.2
-9.33
-13.63
-17.73
-21.23
-23.75
-24.98
-24.67
-22.66
-18.93
-13.68
-7.32
-0.39
6.51
12.8
17.94
21.47
23.08
22.69
20.54
17.2
13.37
9.77
6.87
4.85
3.61
2.92
2.53
2.2
1.74
0.99
-0.19
-1.86
-3.98
-6.43
-9.06
-11.84
-14.84
-18.25
-22.2
-26.64
-31.18
-35.19
-37.88
-38.54
-36.73
-32.41
-25.87
-17.72
-8.67
0.5
9.06
16.42
22.1
25.85
27.58
27.46
25.82
23.17
20.1
17.2
14.94
13.51
12.84
12.64
12.53
12.19
11.49
10.42
9.06
7.43
5.48
3.13
0.33
-2.85
-6.31
-9.94
-13.7
-17.6
-21.58
-25.38
-28.42
-29.97
-29.34
-26.2
-20.67
-13.29
-4.87
3.77
11.89
18.89
24.29
27.76
29.18
28.71
26.78
23.99
20.94
18.04
15.52
13.42
11.74
10.47
9.56
8.92
8.35
7.7
6.82
5.68
4.32
2.74
0.91
-1.28
-3.92
-7.0
-10.43
-14.11
-17.96
-21.99
-26.18
-30.33
-33.92
-36.24
-36.52
-34.27
-29.44
-22.44
-14.07
-5.19
3.41
11.13
17.58
22.48
25.64
26.96
26.54
24.65
21.75
18.43
15.29
12.81
11.25
