0
-38.54
-42.37
-45.77
-47.93
-48.11
-45.87
-41.15
-34.29
-25.92
-16.78
-7.53
1.24
9.1
15.74
20.96
24.65
26.88
27.9
28.08
27.85
27.56
27.4
27.4
27.43
27.39
27.22
26.92
26.51
26.01
25.39
24.64
23.78
22.89
21.97
20.96
19.65
17.84
15.47
12.63
9.56
6.53
3.68
0.99
-1.65
-4.37
-7.21
-10.06
-12.79
-15.29
-17.52
-19.55
-21.49
-23.56
-25.98
-28.99
-32.68
-36.88
-41.11
-44.64
-46.64
-46.45
-43.75
-38.68
-31.74
-23.66
-15.19
-6.97
0.55
7.01
12.23
16.08
18.55
19.74
19.91
19.39
18.55
17.73
17.17
16.98
17.16
17.65
18.3
18.97
19.48
19.67
19.45
18.78
17.69
16.27
14.6
12.68
10.49
7.99
5.19
2.16
-0.93
-3.93
-6.68
-9.15
-11.39
-13.55
-15.82
-18.37
-21.31
-24.67
-28.29
-31.77
-34.52
-35.84
-35.12
-32.09
-26.89
-20.06
-12.38
-4.61
2.66
9.05
14.36
18.52
21.47
23.19
23.73
23.22
21.89
20.08
18.16
16.51
15.41
14.99
15.22
15.92
16.79
17.56
17.99
17.94
17.37
16.26
14.68
12.72
10.46
8.01
5.43
2.79
0.08
-2.68
-5.49
-8.31
-11.11
-13.87
-16.6
-19.43
-22.5
-25.99
-29.97
-34.29
-38.59
-42.23
-44.51
-44.83
-42.8
-38.4
-31.96
-24.11
-15.6
-7.15
0.64
7.4
12.97
17.34
20.59
22.76
23.96
24.32
24.07
23.53
23.05
22.89
23.1
23.56
24.03
24.33
24.39
24.24
23.96
23.54
22.91
21.88
20.37
18.35
16.01
13.59
11.26
9.05
6.82
4.35
1.46
-1.84
-5.38
-8.82
-11.84
-14.26
-16.08
-17.49
-18.82
-20.44
-22.67
-25.79
-29.93
-34.97
-40.44
-45.54
-49.27
-50.68
-49.12
-44.52
-37.45
-28.91
-20.05
-11.93
-5.19
-0.08
3.49
5.76
7.0
7.44
7.31
6.84
6.28
5.8
5.41
5.04
4.57
3.94
3.25
2.6
2.09
1.69
1.19
0.31
-1.22
-3.58
-6.78
-10.7
-15.02
-19.33
-23.12
-25.83
-27.04
-26.51
-24.23
-20.37
-15.26
-9.31
-2.95
3.36
9.21
14.34
18.55
21.72
23.75
24.44
23.53
20.84
16.45
10.8
4.78
-0.55
-4.18
-5.42
-4.11
-0.56
4.56
10.44
16.32
21.58
25.87
29.02
30.96
31.72
31.31
29.86
27.64
25.09
22.69
20.91
19.98
19.87
20.24
20.66
20.75
20.34
19.43
18.21
16.89
15.62
14.46
13.34
12.15
10.76
9.08
7.08
4.84
2.47
0.11
-2.12
-4.17
-6.09
-7.96
-9.89
-12.02
-14.5
-17.46
-20.95
-24.88
-28.88
-32.32
-34.39
-34.36
-31.84
-26.93
-20.2
-12.48
-4.61
2.76
9.21
14.48
18.41
20.9
21.98
21.88
21.01
19.86
18.82
18.11
17.82
17.89
18.25
18.82
19.47
20.05
20.34
20.13
19.28
17.75
15.67
13.23
10.62
7.99
5.32
2.47
-0.69
-4.22
-7.94
-11.57
-14.78
-17.42
-19.57
-21.52
-23.67
-26.35
-29.71
-33.69
-37.98
-42.02
-45.08
-46.41
-45.4
-41.78
-35.72
-27.84
-18.97
-9.99
-1.64
5.61
11.5
15.99
19.17
21.19
22.29
22.71
22.71
22.54
22.37
22.3
22.36
22.52
22.73
23.0
23.39
23.9
24.48
24.93
24.98
24.37
22.97
20.83
18.19
15.34
12.57
10.02
7.73
5.59
3.45
1.16
-1.35
-4.04
-6.8
-9.49
-12.08
-14.58
-17.14
-19.91
-23.07
-26.78
-31.12
-35.99
-41.0
-45.45
-48.41
-48.99
-46.66
-41.46
-34.0
-25.26
-16.28
-7.87
-0.47
5.82
11.06
15.37
18.78
21.24
22.72
23.26
23.05
22.47
21.92
21.73
22.04
22.74
23.55
24.15
24.37
24.2
23.78
23.23
22.59
21.74
20.49
18.73
16.52
14.11
11.82
9.86
8.27
6.89
5.47
3.77
1.71
-0.67
-3.28
-5.99
-8.74
-11.49
-14.17
-16.78
-19.32
-21.86
-24.64
-27.9
-31.84
-36.39
-41.15
-45.36
-48.09
-48.52
-46.22
-41.25
-34.18
-25.88
-17.28
-9.1
-1.84
4.3
9.21
12.91
15.48
17.08
17.96
18.46
18.9
19.44
20.16
20.98
21.84
22.66
23.46
24.25
24.95
25.5
25.72
25.54
24.9
23.84
22.37
20.45
17.96
14.83
11.07
6.83
2.43
-1.83
-5.68
-9.02
-11.88
-14.34
-16.58
-18.8
-21.17
-23.83
-26.82
-29.97
-32.87
-34.92
-35.46
-34.01
-30.4
-24.84
-17.98
-10.59
-3.42
2.98
8.37
12.68
15.92
18.05
19.03
18.84
17.67
15.93
14.16
12.86
12.33
12.59
13.44
14.54
15.55
16.26
16.59
16.54
16.17
15.53
14.65
13.46
11.86
9.78
7.17
4.12
0.83
-2.47
-5.53
-8.2
-10.44
-12.35
-14.18
-16.23
-18.83
-22.13
-26.09
-30.31
-34.09
-36.6
-37.07
-35.06
-30.56
-24.02
-16.22
-8.03
-0.24
6.57
12.12
16.3
19.13
20.76
21.33
21.06
20.23
19.14
18.09
17.26
16.79
16.68
16.84
17.15
17.51
17.86
18.16
18.4
18.52
18.41
17.91
16.89
15.28
13.16
10.68
8.07
5.49
2.99
0.52
-2.09
-4.95
-8.05
-11.28
-14.41
-17.22
-19.59
-21.56
-23.39
-25.5
-28.26
-31.89
-36.27
-40.92
-45.02
-47.63
-47.91
-45.38
-40.03
-32.34
-23.2
-13.58
-4.4
3.68
10.36
15.59
19.51
22.29
24.05
24.86
24.83
24.12
23.04
21.93
21.08
20.7
20.84
21.44
22.36
23.41
24.47
25.37
26.04
26.4
26.41
26.03
25.18
23.83
21.97
19.7
17.18
14.61
12.11
9.68
7.17
4.42
1.3
-2.16
-5.84
-9.5
-12.94
-16.03
-18.73
-21.13
-23.35
-25.58
-28.05
-30.97
-34.46
-38.42
-42.45
-45.88
-47.86
-47.64
-44.75
-39.2
-31.52
-22.6
-13.44
-4.89
2.51
8.57
13.33
16.89
19.35
20.76
21.23
20.96
20.35
19.87
19.92
20.67
21.97
23.48
24.81
25.71
26.17
26.33
26.39
26.42
26.3
25.8
24.67
22.75
20.13
17.07
13.93
11.03
8.57
6.55
4.77
3.01
1.05
-1.19
-3.72
-6.41
-9.1
-11.71
-14.17
-16.54
-18.93
-21.53
-24.57
-28.25
-32.61
-37.44
-42.2
-46.1
-48.23
-47.85
-44.62
-38.71
-30.78
-21.78
-12.69
-4.31
2.85
8.57
12.84
15.75
17.44
18.1
18.04
17.62
17.2
17.07
17.32
17.9
18.61
19.29
19.75
19.95
19.89
19.6
19.1
18.41
17.49
16.25
14.59
12.42
9.76
6.76
3.66
0.71
-1.94
-4.27
-6.37
-8.28
-10.07
-11.77
-13.46
-15.34
-17.69
-20.77
-24.64
-28.98
-33.1
-36.06
-36.92
-35.07
-30.46
-23.57
-15.26
-6.55
1.76
9.13
15.26
20.06
23.5
25.63
26.58
26.57
25.88
24.8
23.55
22.34
21.29
20.51
20.08
20.01
20.25
20.69
21.2
21.66
21.94
21.89
21.28
19.93
17.74
14.77
11.26
7.59
4.17
1.23
-1.16
-3.17
-5.04
-6.99
-9.09
-11.26
-13.35
-15.24
-16.9
-18.37
-19.79
-21.27
-22.95
-25.02
-27.66
-31.07
-35.23
-39.82
-44.1
-47.13
-48.04
-46.25
-41.76
-35.06
-26.99
-18.47
-10.24
-2.8
3.6
8.91
13.21
16.63
19.29
21.32
22.81
23.88
24.68
25.41
26.28
27.34
28.55
29.65
30.43
30.73
30.56
30.04
29.29
28.34
27.1
25.4
23.07
20.11
16.66
12.99
9.41
6.16
3.28
0.65
-1.96
-4.68
-7.5
-10.17
-12.45
-14.13
-15.32
-16.32
-17.5
-19.12
-21.24
-23.8
-26.76
-30.18
-34.08
-38.32
-42.34
-45.24
-46.03
-43.96
-38.88
-31.32
-22.3
-12.96
-4.23
3.38
9.78
15.1
19.43
22.77
24.99
26.0
25.9
25.0
23.72
22.45
21.38
20.52
19.77
19.09
18.45
17.93
17.59
17.42
17.29
17.05
16.54
15.62
14.28
12.57
10.66
8.71
6.89
5.25
3.73
2.17
0.39
-1.71
-4.09
-6.55
-8.86
-10.83
-12.48
-13.99
-15.7
-17.94
-20.91
-24.59
-28.73
-32.87
-36.44
-38.81
-39.38
-37.77
-33.86
-27.99
-20.8
-13.16
-5.87
0.49
5.7
9.75
12.75
14.79
15.97
16.41
16.35
16.07
15.8
15.71
15.86
16.27
16.95
17.9
19.05
20.2
21.11
21.52
21.36
20.63
19.49
18.03
16.22
14.02
11.38
8.33
5.02
1.67
-1.53
-4.45
-7.06
-9.38
-11.46
-13.41
-15.41
-17.71
-20.62
-24.36
-28.97
-34.22
-39.5
-43.94
-46.61
-46.71
-43.94
-38.47
-30.98
-22.4
-13.67
-5.5
1.64
7.56
12.22
15.68
18.06
19.51
20.25
20.53
20.61
20.69
20.88
21.21
21.58
21.91
22.13
22.25
22.33
22.45
22.61
22.69
22.45
21.68
20.25
18.2
15.73
13.11
10.52
8.09
5.82
3.66
1.52
-0.65
-2.87
-5.13
-7.4
-9.69
-12.04
-14.51
-17.24
-20.32
-23.84
-27.82
-32.11
-36.39
-40.15
-42.74
-43.46
-41.82
-37.66
-31.28
-23.33
-14.62
-5.92
2.17
9.26
15.1
19.53
22.52
24.13
24.59
24.2
23.27
22.11
20.95
19.99
19.41
19.31
19.63
20.22
20.82
21.22
21.26
20.92
20.18
19.02
17.39
15.32
12.91
10.4
7.97
5.74
3.6
1.36
-1.16
-4.02
-7.12
-10.25
-13.22
-15.93
-18.47
-21.04
-23.9
-27.29
-31.26
-35.56
-39.59
-42.55
-43.64
-42.31
-38.45
-32.39
-24.79
-16.39
-7.94
-0.04
6.84
12.34
16.21
18.4
18.98
18.25
16.65
14.68
12.86
11.5
10.75
10.56
10.77
11.23
11.82
12.49
13.17
13.74
14.1
14.11
13.69
12.81
11.45
9.6
7.29
4.64
1.82
-0.95
-3.5
-5.77
-7.84
-9.87
-12.07
-14.62
-17.65
-21.19
-25.03
-28.71
-31.52
-32.72
-31.77
-28.56
-23.41
-16.94
-9.83
-2.67
4.12
10.23
15.37
19.32
21.93
23.19
23.27
22.48
21.2
19.84
18.76
18.2
18.25
18.8
19.63
20.49
21.18
21.6
21.73
21.52
20.92
19.86
18.32
16.33
13.96
11.25
8.19
4.74
0.92
-3.19
-7.42
-11.57
-15.42
-18.85
-21.81
-24.34
-26.56
-28.63
-30.79
-33.23
-36.09
-39.39
-42.88
-46.04
-48.16
-48.43
-46.22
-41.25
-33.79
-24.54
-14.54
-4.85
3.71
10.72
16.09
20.01
22.74
24.54
25.64
26.26
26.55
26.66
26.73
26.8
26.87
26.88
26.78
26.51
26.1
25.58
25.02
24.43
23.69
22.63
21.05
18.88
16.23
13.41
10.76
8.57
6.85
5.41
3.92
2.05
-0.36
-3.23
-6.34
-9.37
-12.1
-14.5
-16.7
-19.03
-21.83
-25.36
-29.7
-34.59
-39.47
-43.49
-45.71
-45.34
-42.0
-35.88
-27.68
-18.43
-9.23
-0.9
6.08
11.6
15.76
18.71
20.56
21.4
21.37
20.67
19.61
18.53
17.68
17.22
17.21
17.62
18.34
19.26
20.24
21.05
21.45
21.23
20.27
18.59
16.36
13.86
11.4
9.15
7.11
5.16
3.11
0.83
-1.67
-4.25
-6.67
-8.75
-10.47
-11.9
-13.26
-14.84
-16.92
-19.7
-23.28
-27.53
-31.99
-35.98
-38.61
-39.08
-36.92
-32.15
-25.3
-17.26
-9.05
-1.51
4.85
9.84
13.49
15.89
17.13
17.26
16.44
14.97
13.36
12.13
11.69
12.14
13.26
14.67
16.02
17.09
17.87
18.46
18.89
19.1
18.9
18.07
16.43
13.96
10.74
7.0
3.01
-0.95
-4.69
-8.07
-11.12
-13.92
-16.66
-19.52
-22.69
-26.25
-30.14
-34.02
-37.37
-39.49
-39.68
-37.52
-32.92
-26.21
-18.08
-9.35
-0.86
6.75
13.08
17.99
21.53
23.82
25.01
25.27
24.83
23.96
23.02
22.37
22.22
22.61
23.36
24.28
25.2
26.1
27.0
27.91
28.61
28.77
28.02
26.13
23.15
19.38
15.27
11.27
7.64
4.43
1.5
-1.38
-4.34
-7.45
-10.62
-13.72
-16.63
-19.26
-21.64
-23.84
-25.99
-28.26
-30.88
-34.05
-37.81
-41.95
-45.91
-48.87
-49.94
-48.44
-44.14
-37.27
-28.5
-18.7
-8.75
0.64
8.92
15.75
20.89
24.23
25.81
25.85
24.72
22.94
21.06
19.54
18.69
18.54
18.97
19.79
20.8
21.91
23.06
24.19
25.17
25.76
25.71
24.83
23.06
20.51
17.46
14.28
11.27
8.6
6.22
3.91
1.42
-1.43
-4.65
-8.08
-11.48
-14.6
-17.32
-19.65
-21.73
-23.81
-26.23
-29.33
-33.23
-37.73
-42.18
-45.63
-47.05
-45.71
-41.43
-34.62
-26.08
-16.81
-7.66
0.74
8.0
13.88
18.24
21.01
22.3
22.34
21.55
20.39
19.31
18.58
18.33
18.49
18.84
19.18
19.3
19.08
18.49
17.55
16.33
14.89
13.28
11.47
9.4
6.97
4.13
0.94
-2.41
-5.66
-8.54
-10.86
-12.63
-13.96
-15.08
-16.18
-17.46
-19.04
-20.98
-23.25
-25.67
-27.86
-29.24
-29.2
-27.21
-23.04
-16.85
-9.22
-0.98
7.01
13.99
19.5
23.36
25.59
26.34
25.77
24.14
21.77
19.09
16.53
14.43
12.98
12.23
12.08
12.42
13.13
14.1
15.17
16.11
16.68
16.7
16.07
14.75
12.82
10.34
7.42
4.16
0.71
-2.79
-6.2
-9.43
-12.4
-15.04
-17.33
-19.31
-21.14
-23.11
-25.54
-28.65
-32.41
-36.48
-40.2
-42.76
-43.4
-41.6
-37.26
-30.68
-22.53
-13.68
-4.98
2.94
9.66
15.03
19.02
21.69
23.18
23.7
23.58
23.15
22.66
22.27
21.99
21.8
21.73
21.9
22.39
23.2
24.14
24.9
25.17
24.72
23.49
21.55
19.02
16.05
12.78
9.37
5.95
2.66
-0.47
-3.46
-6.4
-9.35
-12.26
-15.02
-17.5
-19.68
-21.69
-23.78
-26.33
-29.63
-33.74
-38.43
-43.08
-46.83
-48.74
-48.08
-44.54
-38.28
-29.94
-20.38
-10.52
-1.11
7.29
14.34
19.86
23.75
26.06
26.98
26.78
25.86
24.59
23.35
22.39
21.8
21.58
21.65
21.88
22.14
22.3
22.27
21.94
21.3
20.4
19.29
18.08
16.78
15.34
13.61
11.43
8.71
5.48
1.91
-1.77
-5.36
-8.78
-12.05
-15.27
-18.59
-22.16
-26.06
-30.27
-34.63
-38.77
-42.09
-43.87
-43.46
-40.48
-34.99
-27.5
-18.86
-9.97
-1.56
5.85
11.97
16.63
19.7
21.12
21.01
19.7
17.74
15.75
14.23
13.46
13.45
14.05
15.05
16.28
17.58
18.83
19.89
20.57
20.7
20.16
18.88
16.89
14.28
11.15
7.59
3.68
-0.49
-4.8
-9.04
-13.05
-16.81
-20.48
-24.36
-28.74
-33.55
-38.36
-42.33
-44.52
-44.22
-41.24
-35.86
-28.73
-20.57
-12.05
-3.65
4.25
11.33
17.3
21.95
25.13
26.85
27.33
26.94
26.13
25.31
24.69
24.31
24.02
23.65
23.15
22.56
22.05
21.7
21.51
21.28
20.72
19.58
17.74
15.28
12.39
9.33
6.26
3.27
0.35
-2.53
-5.36
-8.1
-10.62
-12.8
-14.58
-15.97
-17.05
-18.01
-19.11
-20.71
-23.22
-26.86
-31.58
-36.83
-41.66
-44.92
-45.65
-43.36
-38.22
-30.94
-22.5
-13.84
-5.71
1.48
7.51
12.33
15.91
18.31
19.68
20.29
20.5
20.66
21.0
21.6
22.37
23.17
23.88
24.53
25.18
25.94
26.78
27.51
27.85
27.54
26.39
24.44
21.88
19.08
16.36
13.94
11.84
9.85
7.71
5.17
2.18
-1.1
-4.4
-7.51
-10.37
-13.08
-15.91
-19.12
-22.91
-27.39
-32.49
-37.9
-43.05
-47.14
-49.27
-48.78
-45.38
-39.39
-31.51
-22.69
-13.77
-5.36
2.16
8.59
13.8
17.65
20.09
21.21
21.21
20.45
19.31
18.17
17.29
16.81
16.79
17.11
17.56
17.96
18.19
18.22
18.11
17.89
17.48
16.72
15.45
13.56
11.08
8.19
5.08
1.99
-0.97
-3.75
-6.42
-9.1
-11.99
-15.25
-19.02
-23.31
-27.96
-32.59
-36.6
-39.26
-39.9
-38.07
-33.72
-27.24
-19.37
-11.0
-2.94
4.23
10.18
14.77
17.99
19.93
20.73
20.59
19.85
18.88
18.04
17.65
17.84
18.58
19.66
20.78
21.67
22.15
22.17
21.72
20.84
19.52
17.78
15.63
13.17
10.51
7.72
4.79
1.69
-1.63
-5.1
-8.56
-11.81
-14.68
-17.17
-19.47
-21.93
-24.95
-28.74
-33.24
-37.96
-42.04
-44.5
-44.48
-41.6
-35.99
-28.32
-19.52
-10.57
-2.22
5.04
10.94
15.44
18.58
20.52
21.53
21.9
22.0
22.12
22.49
23.18
24.12
25.15
25.99
26.45
26.42
25.98
25.34
24.71
24.18
23.67
22.96
21.82
20.17
18.07
15.68
13.12
10.44
7.52
4.27
0.67
-3.16
-7.0
-10.68
-14.09
-17.25
-20.22
-23.08
-25.92
-28.86
-32.13
-35.87
-40.06
-44.34
-47.91
-49.79
-49.1
-45.37
-38.79
-30.08
-20.3
-10.46
-1.35
6.58
13.17
18.38
22.28
24.94
26.46
27.07
26.99
26.48
25.79
25.12
24.63
24.42
24.5
24.79
25.11
25.26
25.11
24.61
23.82
22.79
21.52
19.95
17.98
15.58
12.81
9.87
6.97
4.28
1.77
-0.7
-3.32
-6.2
-9.31
-12.43
-15.34
-17.89
-20.1
-22.13
-24.25
-26.69
-29.63
-33.09
-37.03
-41.16
-45.01
-47.87
-48.94
-47.52
-43.25
-36.25
-27.16
-16.93
-6.59
3.04
11.33
17.96
22.77
25.74
26.99
26.75
25.41
23.44
21.32
19.45
18.11
17.37
17.17
17.32
17.58
17.74
17.69
17.4
16.92
16.28
15.45
14.36
12.91
11.05
8.8
6.28
3.58
0.77
-2.1
-5.01
-7.92
-10.75
-13.45
-16.08
-18.89
-22.22
-26.34
-31.23
-36.39
-40.92
-43.71
-43.8
-40.77
-34.82
-26.72
-17.52
-8.24
0.38
7.91
14.19
19.18
22.88
25.32
26.5
26.58
25.79
24.47
23.02
21.79
21.03
20.76
20.89
21.2
21.49
21.64
21.65
21.56
21.4
21.15
20.68
19.83
18.51
16.76
14.71
12.62
10.76
9.21
7.89
6.49
4.66
2.14
-1.1
-4.8
-8.6
-12.12
-15.2
-17.87
-20.32
-22.78
-25.44
-28.43
-31.88
-35.85
-40.26
-44.68
-48.41
-50.48
-50.01
-46.55
-40.2
-31.69
-22.06
-12.35
-3.4
4.34
10.7
15.68
19.34
21.74
22.98
23.23
22.78
22.01
21.31
20.95
20.96
21.18
21.36
21.3
21.0
20.65
20.44
20.47
20.64
20.67
20.26
19.2
17.5
15.35
13.02
10.77
8.73
6.85
4.99
2.95
0.62
-2.02
-4.85
-7.64
-10.2
-12.43
-14.4
-16.28
-18.32
-20.79
-23.88
-27.68
-32.11
-36.81
-41.19
-44.48
-45.89
-44.85
-41.17
-35.08
-27.23
-18.48
-9.71
-1.65
5.26
10.83
15.08
18.06
19.84
20.49
20.18
19.18
17.9
16.81
16.16
16.02
16.23
16.55
16.81
16.94
17.0
17.04
17.05
16.95
16.57
15.76
14.4
12.36
9.67
6.4
2.74
-1.03
-4.59
-7.69
-10.22
-12.16
-13.71
-15.16
-16.87
-19.18
-22.21
-25.79
-29.45
-32.42
-33.92
-33.35
-30.48
-25.55
-19.1
-11.84
-4.48
2.38
8.35
13.22
16.94
19.56
21.17
21.93
22.01
21.62
20.99
20.35
19.87
19.66
19.75
20.12
20.7
21.39
22.01
22.38
22.31
21.67
20.38
18.51
16.18
13.52
10.61
7.48
4.12
0.54
-3.21
-7.0
-10.7
-14.16
-17.3
-20.11
-22.64
-24.98
-27.35
-29.99
-33.21
-37.19
-41.79
-46.49
-50.37
-52.36
-51.56
-47.59
-40.69
-31.65
-21.57
-11.49
-2.21
5.83
12.48
17.72
21.59
24.16
25.51
25.86
25.51
24.86
24.27
24.01
24.16
24.6
25.11
25.54
25.84
26.12
26.49
26.92
27.16
26.83
25.6
23.36
20.34
16.95
13.63
10.62
7.93
5.42
2.92
0.32
-2.38
-5.17
-8.02
-10.9
-13.76
-16.48
-18.96
-21.15
-23.2
-25.4
-28.12
-31.63
-35.88
-40.43
-44.46
-46.98
-47.07
-44.24
-38.5
-30.4
-20.88
-10.94
-1.51
6.77
13.51
18.54
21.83
23.53
23.9
23.33
22.26
21.07
20.08
19.47
19.3
19.44
19.75
20.02
20.06
19.79
19.24
18.51
17.68
16.78
15.74
14.46
12.87
10.94
8.72
6.27
3.62
0.83
-2.01
-4.79
-7.4
-9.73
-11.81
-13.78
-15.85
-18.33
-21.43
-25.31
-29.83
-34.53
-38.62
-41.15
-41.21
-38.34
-32.64
-24.73
-15.57
-6.18
2.68
10.53
17.15
22.38
26.13
28.3
28.95
28.35
27.03
25.58
24.49
23.97
23.96
24.18
24.37
24.38
24.28
24.18
24.17
24.19
23.99
23.3
21.93
19.84
17.17
14.12
10.93
7.76
4.7
1.75
-1.12
-3.91
-6.62
-9.23
-11.73
-14.18
-16.62
-19.09
-21.6
-24.11
-26.68
-29.51
-32.9
-37.1
-42.06
-47.24
-51.68
-54.24
-53.99
-50.58
-44.3
-35.95
-26.53
-16.94
-7.84
0.36
7.4
13.16
17.59
20.74
22.8
23.96
24.45
24.49
24.33
24.21
24.34
24.84
25.71
26.84
28.08
29.25
30.15
30.63
30.52
29.72
28.24
26.19
23.82
21.37
19.03
16.86
14.86
12.93
10.97
8.85
6.49
3.84
0.93
-2.12
-5.11
-7.88
-10.32
-12.45
-14.35
-16.18
-18.12
-20.39
-23.21
-26.75
-31.08
-36.1
-41.4
-46.28
-49.9
-51.41
-50.27
-46.33
-39.92
-31.71
-22.52
-13.11
-4.06
4.2
11.37
17.23
21.65
24.57
26.13
26.57
26.23
25.41
24.39
23.35
22.41
21.65
21.1
20.75
20.58
20.52
20.46
20.29
19.87
19.12
18.0
16.55
14.85
13.03
11.16
9.28
7.33
5.23
2.88
0.26
-2.56
-5.47
-8.33
-11.1
-13.8
-16.5
-19.33
-22.42
-25.87
-29.77
-34.05
-38.42
-42.3
-44.89
-45.36
-43.11
-38.0
-30.4
-21.15
-11.2
-1.46
7.41
14.98
21.01
25.3
27.73
28.34
27.41
25.49
23.27
21.38
20.22
19.88
20.18
20.79
21.37
21.68
21.54
20.9
19.8
18.3
16.51
14.52
12.4
10.17
7.78
5.23
2.46
-0.5
-3.58
-6.64
-9.56
-12.25
-14.66
-16.84
-18.9
-21.03
-23.42
-26.25
-29.69
-33.73
-38.1
-42.19
-45.16
-46.11
-44.4
-39.88
-32.99
-24.56
-15.59
-6.96
0.77
7.32
12.61
16.63
19.44
21.13
21.92
22.11
22.08
22.17
22.56
23.29
24.22
25.13
25.84
26.28
26.5
26.63
26.75
26.78
26.48
25.52
23.67
20.88
17.39
13.65
10.11
7.12
4.79
2.96
1.31
-0.47
-2.6
-5.12
-7.9
-10.71
-13.4
-15.94
-18.48
-21.28
-24.66
-28.85
-33.82
-39.28
-44.56
-48.74
-50.83
-50.03
-46.02
-39.1
-30.09
-20.11
-10.25
-1.3
6.34
12.59
17.5
21.18
23.74
25.23
25.8
25.66
25.08
24.35
23.74
23.45
23.5
23.83
24.26
24.67
24.92
24.97
24.76
24.21
23.16
21.52
19.25
16.51
13.51
10.54
7.77
5.24
2.88
0.54
-1.85
-4.32
-6.77
-9.06
-11.15
-13.07
-15.0
-17.19
-19.89
-23.24
-27.26
-31.78
-36.43
-40.63
-43.59
-44.55
-42.88
-38.37
-31.34
-22.59
-13.16
-4.11
3.83
10.29
15.21
18.65
20.69
21.41
20.87
19.3
17.06
14.65
12.57
11.22
10.78
11.17
12.12
13.26
14.23
14.81
14.92
14.63
14.08
13.34
12.39
11.12
9.34
7.01
4.19
1.14
-1.84
-4.51
-6.78
-8.71
-10.54
-12.5
-14.82
-17.66
-21.07
-24.88
-28.73
-31.97
-33.84
-33.64
-31.02
-26.05
-19.29
-11.53
-3.62
3.82
10.37
15.81
20.07
23.13
25.02
25.85
25.83
25.24
24.36
23.44
22.68
22.15
21.85
21.75
21.78
21.87
21.93
21.91
21.72
21.22
20.27
18.76
16.59
13.84
10.65
7.21
3.68
0.16
-3.32
-6.8
-10.27
-13.72
-17.07
-20.25
-23.17
-25.74
-27.93
-29.8
-31.59
-33.59
-36.18
-39.56
-43.6
-47.7
-50.92
-52.18
-50.62
-45.94
-38.49
-29.13
-18.97
-8.99
0.18
8.31
15.36
21.3
26.06
29.53
31.72
32.84
33.26
33.38
33.48
33.62
33.71
33.53
32.95
31.92
30.56
29.1
27.78
26.8
26.14
25.6
24.85
23.53
21.48
18.81
15.86
13.01
10.49
8.32
6.28
4.06
1.41
-1.73
-5.3
-9.11
-12.95
-16.65
-20.08
-23.22
-26.11
-28.95
-31.99
-35.46
-39.46
-43.8
-47.96
-51.18
-52.62
-51.62
-47.9
-41.61
-33.34
-23.93
-14.23
-5.02
3.15
10.0
15.46
19.63
22.68
24.83
26.24
27.01
27.24
27.0
26.48
25.89
25.44
25.24
25.33
25.62
26.02
26.39
26.63
26.56
25.93
24.55
22.31
19.3
15.8
12.16
8.6
5.26
2.1
-0.96
-3.93
-6.74
-9.29
-11.5
-13.37
-14.98
-16.49
-18.11
-20.09
-22.64
-25.92
-29.89
-34.25
-38.4
-41.53
-42.78
-41.51
-37.49
-30.98
-22.67
-13.49
-4.38
3.92
10.93
16.43
20.35
22.71
23.64
23.34
22.18
20.57
18.93
17.58
16.7
16.31
16.33
16.64
17.1
17.63
18.12
18.48
18.55
18.19
17.26
15.69
13.5
10.82
7.84
4.75
1.7
-1.29
-4.19
-6.94
-9.45
-11.64
-13.44
-14.95
-16.39
-18.09
-20.37
-23.46
-27.37
-31.82
-36.24
-39.78
-41.57
-40.94
-37.63
-31.92
-24.49
-16.19
-7.79
0.19
7.45
13.8
19.11
23.21
26.02
27.6
28.18
28.09
27.69
27.25
26.9
26.69
26.57
26.48
26.38
26.31
26.29
26.35
26.44
26.37
25.93
24.88
23.05
20.44
17.22
13.66
10.1
6.82
3.98
1.62
-0.34
-2.08
-3.8
-5.71
-7.94
-10.49
-13.27
-16.06
-18.58
-20.62
-22.13
-23.27
-24.45
-26.15
-28.82
-32.63
-37.33
-42.27
-46.49
-49.0
-49.01
-46.15
-40.53
-32.69
-23.43
-13.67
-4.28
4.05
10.86
15.99
19.47
21.49
22.37
22.43
22.0
21.36
20.78
20.41
20.29
20.36
20.51
20.7
20.9
21.22
21.74
22.45
23.24
23.85
24.01
23.51
22.3
20.41
18.0
15.23
12.31
9.41
6.67
4.16
1.83
-0.5
-3.07
-6.01
-9.27
-12.6
-15.66
-18.21
-20.21
-21.91
-23.72
-26.03
-29.1
-32.88
-37.05
-41.04
-44.11
-45.52
-44.65
-41.23
-35.41
-27.77
-19.17
-10.55
-2.66
4.01
9.33
13.35
16.28
18.29
19.52
20.05
19.96
19.33
18.36
17.33
16.54
16.24
16.54
17.34
18.44
19.54
20.42
20.97
21.11
20.83
20.07
18.82
17.07
14.96
12.6
10.05
7.3
4.22
0.72
-3.13
-7.14
-11.04
-14.62
-17.91
-21.13
-24.68
-28.87
-33.76
-39.04
-43.98
-47.65
-49.08
-47.61
-43.1
-35.97
-27.14
-17.7
-8.57
-0.33
6.78
12.77
17.66
21.46
24.13
25.68
26.3
26.27
25.95
25.66
25.59
25.81
26.23
26.72
27.1
27.25
27.09
26.67
26.14
25.69
25.37
25.08
24.52
23.36
21.35
18.49
14.98
11.14
7.3
3.67
0.29
-2.91
-5.99
-9.0
-11.88
-14.53
-16.86
-18.82
-20.48
-21.95
-23.43
-25.13
-27.26
-30.02
-33.48
-37.49
-41.61
-45.07
-46.97
-46.48
-43.2
-37.28
-29.4
-20.48
-11.44
-2.95
4.61
11.01
16.11
19.77
21.91
22.61
22.18
21.12
19.98
19.19
19.01
19.43
20.26
21.29
22.3
23.18
23.88
24.39
24.69
24.74
24.53
24.02
23.19
21.99
20.37
18.32
15.84
13.04
10.05
6.98
3.89
0.78
-2.42
-5.73
-9.1
-12.38
-15.4
-18.05
-20.33
-22.36
-24.33
-26.45
-28.93
-31.92
-35.48
-39.45
-43.43
-46.71
-48.43
-47.76
-44.22
-37.89
-29.4
-19.8
-10.23
-1.56
5.7
11.49
15.98
19.37
21.75
23.08
23.3
22.51
21.04
19.36
17.97
17.2
17.05
17.31
17.68
17.95
18.09
18.21
18.36
18.47
18.27
17.43
15.7
13.05
9.67
5.91
2.15
-1.3
-4.29
-6.82
-9.02
-11.09
-13.26
-15.71
-18.62
-22.04
-25.96
-30.24
-34.56
-38.39
-41.04
-41.8
-40.15
-35.91
-29.39
-21.27
-12.45
-3.79
4.07
10.78
16.24
20.47
23.55
25.52
26.4
26.33
25.55
24.41
23.27
22.37
21.76
21.43
21.31
21.4
21.77
22.38
23.09
23.58
23.54
22.8
21.32
19.26
16.8
14.03
10.96
7.56
3.84
-0.1
-4.13
-8.1
-11.91
-15.51
-18.9
-22.07
-25.12
-28.18
-31.45
-35.06
-38.93
-42.74
-45.9
-47.67
-47.41
-44.71
-39.59
-32.43
-23.89
-14.71
-5.58
2.98
10.61
17.06
22.16
25.75
27.79
28.34
27.68
26.19
24.34
22.55
21.13
20.22
19.84
19.85
20.08
20.38
20.6
20.71
20.64
20.35
19.78
18.83
17.52
15.95
14.3
12.7
11.15
9.46
7.42
4.82
1.65
-1.87
-5.47
-8.86
-11.92
-14.67
-17.27
-19.9
-22.77
-26.08
-29.98
-34.48
-39.3
-43.86
-47.29
-48.71
-47.49
-43.43
-36.85
-28.45
-19.22
-10.1
-1.84
5.12
10.59
14.65
17.44
19.14
19.9
19.94
19.51
18.91
18.45
18.33
18.58
19.0
19.29
19.22
18.73
17.97
17.16
16.55
16.15
15.73
14.91
13.29
10.67
7.2
3.29
-0.55
-3.92
-6.7
-8.99
-10.99
-12.89
-14.79
-16.77
-18.99
-21.59
-24.65
-27.95
-30.97
-32.87
-32.86
-30.39
-25.45
-18.48
-10.28
-1.7
6.49
13.79
19.9
24.63
27.81
29.29
29.06
27.3
24.5
21.34
18.49
16.42
15.28
14.95
15.14
15.54
15.97
16.27
16.36
16.17
15.67
14.91
13.9
12.61
10.93
8.71
5.84
2.41
-1.32
-4.97
-8.24
-10.96
-13.2
-15.16
-17.09
-19.22
-21.73
-24.81
-28.6
-33.06
-37.89
-42.42
-45.66
-46.6
-44.45
-39.03
-30.79
-20.77
-10.15
0.05
9.18
16.96
23.18
27.62
30.03
30.33
28.74
25.96
22.83
20.18
18.48
17.74
17.68
17.93
18.29
18.73
19.31
20.03
20.72
21.09
20.84
19.84
18.14
16.01
13.81
11.85
10.25
8.92
7.61
6.03
3.95
1.3
-1.85
-5.29
-8.77
-12.02
-14.84
-17.18
-19.19
-21.23
-23.75
-27.12
-31.41
-36.25
-40.89
-44.3
-45.57
-44.12
-39.9
-33.38
-25.37
-16.79
-8.43
-0.8
5.82
11.35
15.78
19.13
21.42
22.71
23.16
23.0
22.54
22.08
21.88
22.11
22.78
23.79
24.92
25.94
26.7
27.15
27.3
27.16
26.66
25.61
23.85
21.29
18.02
14.38
10.76
7.53
4.81
2.5
0.31
-2.1
-4.92
-8.09
-11.33
-14.27
-16.68
-18.52
-19.96
-21.32
-22.88
-24.87
-27.49
-30.81
-34.78
-39.07
-43.04
-45.76
-46.26
-43.86
-38.43
-30.46
-20.87
-10.71
-0.86
8.08
15.74
21.85
26.23
28.78
29.57
28.92
27.37
25.54
23.91
22.76
22.08
21.71
21.46
21.2
20.99
20.96
21.21
21.75
22.41
22.88
22.81
21.91
20.09
17.48
14.39
11.22
8.29
5.75
3.49
1.25
-1.31
-4.37
-7.89
-11.6
-15.11
-18.06
-20.35
-22.15
-23.85
-25.93
-28.75
-32.47
-36.99
-42.0
-46.92
-51.1
-53.74
-54.13
-51.81
-46.72
-39.27
-30.25
-20.59
-11.15
-2.56
4.89
11.14
16.23
20.31
23.44
25.7
27.16
27.91
28.14
28.1
28.08
28.28
28.75
29.39
29.97
30.28
30.28
30.02
29.6
29.1
28.41
27.4
25.85
23.68
21.0
18.04
15.1
12.39
9.95
7.65
5.29
2.7
-0.15
-3.16
-6.16
-9.02
-11.66
-14.13
-16.51
-18.91
-21.46
-24.32
-27.72
-31.82
-36.59
-41.64
-46.2
-49.29
-49.98
-47.75
-42.65
-35.26
-26.54
-17.45
-8.78
-1.01
5.6
10.99
15.12
18.01
19.73
20.48
20.58
20.41
20.29
20.44
20.93
21.66
22.49
23.26
23.86
24.19
24.24
24.0
23.44
22.54
21.22
19.45
17.22
14.59
11.74
8.9
6.27
3.98
2.0
0.22
-1.5
-3.31
-5.23
-7.25
-9.32
-11.39
-13.47
-15.66
-18.11
-21.03
-24.58
-28.75
-33.24
-37.4
-40.4
-41.36
-39.72
-35.37
-28.72
-20.55
-11.78
-3.23
4.46
10.94
16.03
19.65
21.81
22.59
22.18
20.87
19.06
17.16
15.49
14.25
13.48
13.1
12.97
13.0
13.12
13.29
13.5
13.67
13.71
13.49
12.89
11.81
10.19
7.97
5.16
1.84
-1.86
-5.72
-9.53
-13.14
-16.48
-19.61
-22.74
-26.08
-29.81
-33.89
-38.04
-41.7
-44.19
-44.78
-42.97
-38.65
-32.12
-24.0
-15.1
-6.19
2.1
9.41
15.46
20.15
23.39
25.18
25.65
25.08
23.88
22.52
21.37
20.66
20.39
20.47
20.77
21.21
21.75
22.39
23.09
23.72
24.07
