0
10.02
12.28
14.24
15.89
17.14
17.95
18.36
18.51
18.6
18.84
19.36
20.18
21.2
22.25
23.11
23.58
23.59
23.15
22.45
21.68
20.98
20.32
19.54
18.39
16.76
14.7
12.41
10.18
8.18
6.44
4.87
3.33
1.71
-0.03
-1.88
-3.86
-5.95
-8.15
-10.43
-12.68
-14.8
-16.75
-18.6
-20.53
-22.79
-25.52
-28.65
-31.81
-34.43
-35.85
-35.6
-33.51
-29.75
-24.72
-18.94
-12.9
-7.01
-1.56
3.23
7.25
10.48
12.93
14.65
15.69
16.11
16.04
15.68
15.3
15.12
15.28
15.76
16.45
17.19
17.88
18.45
18.86
19.04
18.92
18.44
17.61
16.54
15.35
14.16
13.04
11.95
10.82
9.56
8.13
6.53
4.79
2.96
1.06
-0.89
-2.88
-4.85
-6.76
-8.57
-10.29
-11.95
-13.64
-15.43
-17.39
-19.57
-22.04
-24.82
-27.8
-30.67
-32.96
-34.15
-33.82
-31.83
-28.37
-23.84
-18.71
-13.4
-8.23
-3.42
0.89
4.56
7.55
9.86
11.58
12.86
13.81
14.51
14.97
15.15
15.02
14.6
14.04
13.58
13.48
13.88
14.74
15.85
16.89
17.58
17.82
17.64
17.17
16.52
15.71
14.71
13.48
12.06
10.47
8.8
7.08
5.35
3.63
1.96
0.34
-1.25
-2.9
-4.68
-6.62
-8.71
-10.89
-13.08
-15.24
-17.36
-19.45
-21.5
-23.54
-25.69
-28.08
-30.83
-33.84
-36.74
-38.92
-39.72
-38.69
-35.74
-31.17
-25.53
-19.42
-13.33
-7.62
-2.54
1.76
5.19
7.81
9.8
11.37
12.71
13.89
14.88
15.58
16.0
16.18
16.25
16.32
16.46
16.7
17.02
17.44
17.95
18.57
19.2
19.74
20.02
19.92
19.37
18.38
17.02
15.4
13.6
11.71
9.86
8.18
6.73
5.54
4.52
3.51
2.35
0.95
-0.71
-2.61
-4.72
-7.02
-9.38
-11.69
-13.8
-15.67
-17.36
-19.07
-21.02
-23.38
-26.19
-29.37
-32.75
-36.08
-39.02
-41.11
-41.86
-40.91
-38.17
-33.91
-28.68
-23.06
-17.49
-12.16
-7.11
-2.36
1.98
5.69
8.58
10.57
11.79
12.49
12.96
13.43
13.97
14.56
15.16
15.72
16.26
16.85
17.55
18.37
19.26
20.06
20.67
20.97
20.94
20.64
20.13
19.46
18.6
17.52
16.2
14.67
12.99
11.27
9.57
7.93
6.37
4.88
3.5
2.22
0.98
-0.31
-1.73
-3.36
-5.18
-7.12
-9.06
-10.94
-12.78
-14.66
-16.7
-19.01
-21.7
-24.76
-28.07
-31.36
-34.19
-36.05
-36.52
-35.36
-32.58
-28.42
-23.32
-17.73
-12.09
-6.72
-1.83
2.51
6.21
9.24
11.52
13.01
13.75
13.93
13.81
13.68
13.7
13.92
14.22
14.46
14.59
14.72
15.01
15.62
16.55
17.63
18.57
19.07
18.98
18.33
17.34
16.28
15.36
14.62
13.92
13.02
11.71
9.94
7.88
5.81
4.0
2.57
1.4
0.24
-1.2
-3.07
-5.32
-7.76
-10.2
-12.51
-14.68
-16.83
-19.11
-21.61
-24.41
-27.49
-30.73
-33.91
-36.68
-38.62
-39.27
-38.3
-35.57
-31.22
-25.64
-19.4
-13.1
-7.23
-2.07
2.32
6.03
9.15
11.72
13.69
15.02
15.74
16.01
16.09
16.22
16.51
16.95
17.41
17.8
18.13
18.47
18.97
19.68
20.53
21.32
21.82
21.86
21.42
20.6
19.58
18.53
17.48
16.38
15.1
13.55
11.71
9.7
7.71
5.9
4.35
2.99
1.68
0.2
-1.6
-3.76
-6.23
-8.83
-11.42
-13.9
-16.3
-18.75
-21.43
-24.47
-27.97
-31.87
-35.95
-39.81
-42.88
-44.55
-44.34
-42.05
-37.88
-32.33
-26.08
-19.73
-13.68
-8.11
-3.07
1.45
5.42
8.78
11.44
13.34
14.52
15.06
15.2
15.18
15.28
15.67
16.34
17.23
18.15
19.01
19.74
20.36
20.87
21.23
21.38
21.28
20.94
20.37
19.61
18.68
17.61
16.43
15.18
13.85
12.34
10.56
8.44
6.07
3.72
1.68
0.18
-0.82
-1.57
-2.38
-3.48
-4.93
-6.62
-8.42
-10.28
-12.21
-14.26
-16.47
-18.8
-21.32
-24.09
-27.2
-30.58
-33.91
-36.62
-38.07
-37.79
-35.62
-31.76
-26.66
-20.83
-14.74
-8.76
-3.17
1.83
6.12
9.72
12.69
15.13
17.08
18.57
19.61
20.28
20.68
20.98
21.27
21.62
22.03
22.45
22.87
23.24
23.55
23.79
23.95
24.05
24.06
23.95
23.61
22.96
21.98
20.75
19.41
18.06
16.74
15.37
13.88
12.2
10.39
8.54
6.68
4.8
2.83
0.76
-1.35
-3.37
-5.21
-6.86
-8.46
-10.19
-12.2
-14.52
-17.17
-20.1
-23.27
-26.59
-29.8
-32.45
-33.98
-33.88
-31.93
-28.29
-23.43
-18.0
-12.59
-7.54
-3.0
1.09
4.77
8.03
10.78
12.85
14.19
14.79
14.82
14.53
14.2
14.03
14.13
14.46
14.96
15.55
16.2
16.94
17.79
18.71
19.58
20.19
20.37
20.03
19.22
18.1
16.84
15.59
14.35
13.05
11.54
9.74
7.67
5.52
3.52
1.87
0.58
-0.48
-1.58
-2.94
-4.73
-6.93
-9.41
-12.05
-14.72
-17.35
-19.96
-22.61
-25.42
-28.55
-32.01
-35.59
-38.86
-41.17
-41.91
-40.69
-37.51
-32.71
-26.86
-20.57
-14.36
-8.56
-3.38
1.14
5.01
8.3
11.08
13.39
15.21
16.55
17.42
17.89
18.03
17.96
17.77
17.62
17.65
18.0
18.73
19.73
20.83
21.75
22.27
22.27
21.77
20.94
19.96
19.0
18.11
17.23
16.24
15.0
13.45
11.62
9.65
7.67
5.79
4.03
2.33
0.61
-1.17
-3.06
-5.08
-7.25
-9.59
-12.07
-14.61
-17.11
-19.53
-21.88
-24.34
-27.1
-30.32
-33.92
-37.54
-40.57
-42.3
-42.17
-39.94
-35.78
-30.2
-23.9
-17.5
-11.45
-5.99
-1.15
3.09
6.75
9.82
12.26
14.09
15.41
16.37
17.13
17.8
18.45
19.06
19.6
20.07
20.52
20.97
21.48
22.04
22.62
23.14
23.48
23.54
23.24
22.54
21.47
20.18
18.8
17.46
16.18
14.86
13.36
11.58
9.51
7.26
5.04
3.03
1.34
-0.09
-1.4
-2.8
-4.39
-6.18
-8.06
-9.95
-11.82
-13.71
-15.72
-17.95
-20.43
-23.17
-26.16
-29.31
-32.4
-34.99
-36.5
-36.36
-34.3
-30.41
-25.18
-19.26
-13.22
-7.44
-2.12
2.64
6.75
10.14
12.8
14.78
16.15
16.96
17.26
17.14
16.8
16.48
16.36
16.54
16.89
17.27
17.54
17.69
17.76
17.8
17.81
17.71
17.47
17.11
16.69
16.22
15.64
14.83
13.7
12.24
10.51
8.63
6.71
4.83
3.06
1.45
0.01
-1.32
-2.7
-4.31
-6.24
-8.45
-10.78
-13.04
-15.1
-17.0
-18.87
-20.9
-23.24
-25.91
-28.82
-31.66
-33.96
-35.14
-34.73
-32.51
-28.67
-23.71
-18.21
-12.68
-7.39
-2.45
2.04
5.96
9.12
11.43
12.95
13.92
14.54
14.99
15.25
15.26
15.04
14.73
14.56
14.77
15.4
16.34
17.36
18.2
18.72
18.83
18.54
17.92
17.0
15.88
14.64
13.41
12.23
11.1
9.89
8.47
6.78
4.87
2.9
1.1
-0.42
-1.68
-2.89
-4.27
-6.01
-8.14
-10.55
-13.09
-15.61
-18.04
-20.37
-22.62
-24.86
-27.17
-29.67
-32.48
-35.5
-38.45
-40.78
-41.85
-41.11
-38.37
-33.82
-28.01
-21.66
-15.39
-9.56
-4.3
0.43
4.68
8.36
11.25
13.19
14.12
14.27
14.02
13.86
14.11
14.84
15.87
16.93
17.78
18.3
18.58
18.74
18.93
19.2
19.5
19.72
19.73
19.45
18.84
17.92
16.68
15.19
13.48
11.65
9.78
8.0
6.35
4.88
3.57
2.36
1.16
-0.15
-1.72
-3.64
-5.91
-8.4
-10.91
-13.23
-15.26
-17.04
-18.73
-20.49
-22.45
-24.64
-27.11
-29.88
-32.94
-36.15
-39.16
-41.35
-42.05
-40.79
-37.44
-32.38
-26.28
-19.84
-13.65
-7.99
-2.94
1.53
5.43
8.75
11.45
13.55
15.14
16.33
17.23
17.92
18.44
18.83
19.14
19.41
19.71
20.07
20.52
21.1
21.83
22.66
23.47
24.04
24.13
23.59
22.46
20.9
19.23
17.72
16.51
15.58
14.78
13.93
12.86
11.5
9.86
8.04
6.16
4.36
2.73
1.27
-0.11
-1.52
-3.05
-4.75
-6.6
-8.55
-10.6
-12.81
-15.2
-17.78
-20.54
-23.4
-26.28
-29.1
-31.72
-33.89
-35.28
-35.54
-34.44
-31.97
-28.27
-23.62
-18.35
-12.71
-7.02
-1.59
3.27
7.26
10.23
12.18
13.21
13.48
13.21
12.7
12.25
12.21
12.76
13.88
15.33
16.75
17.89
18.67
19.16
19.53
19.84
20.02
19.88
19.31
18.28
16.94
15.5
14.15
12.96
11.87
10.73
9.41
7.84
6.1
4.3
2.58
0.96
-0.62
-2.31
-4.22
-6.37
-8.7
-11.09
-13.51
-15.97
-18.59
-21.51
-24.81
-28.49
-32.4
-36.2
-39.38
-41.36
-41.65
-40.01
-36.56
-31.74
-26.14
-20.32
-14.66
-9.34
-4.45
0.0
3.91
7.19
9.77
11.62
12.83
13.51
13.81
13.92
14.08
14.47
15.19
16.2
17.34
18.41
19.27
19.88
20.32
20.72
21.12
21.46
21.56
21.23
20.35
18.96
17.21
15.34
13.51
11.77
10.04
8.25
6.42
4.67
3.15
1.92
0.85
-0.33
-1.87
-3.84
-6.11
-8.44
-10.66
-12.73
-14.77
-16.92
-19.29
-21.94
-24.88
-28.13
-31.65
-35.24
-38.47
-40.74
-41.47
-40.27
-37.12
-32.34
-26.43
-19.95
-13.38
-7.08
-1.34
3.63
7.71
10.89
13.26
15.0
16.24
17.1
17.65
17.95
18.07
18.14
18.29
18.68
19.41
20.47
21.78
23.18
24.45
25.4
25.88
25.84
25.31
24.39
23.21
21.9
20.57
19.24
17.88
16.37
14.62
12.57
10.3
7.98
5.81
3.93
2.31
0.83
-0.72
-2.52
-4.65
-7.06
-9.62
-12.18
-14.64
-16.98
-19.26
-21.58
-24.09
-26.83
-29.77
-32.7
-35.24
-36.88
-37.14
-35.66
-32.36
-27.47
-21.47
-14.98
-8.58
-2.67
2.56
7.03
10.75
13.71
15.9
17.35
18.15
18.5
18.61
18.69
18.85
19.12
19.41
19.61
19.61
19.43
19.13
18.89
18.83
18.99
19.26
19.41
19.23
18.58
17.47
16.01
14.31
12.46
10.54
8.57
6.68
4.98
3.56
2.39
1.29
0.07
-1.42
-3.2
-5.16
-7.15
-9.01
-10.68
-12.2
-13.72
-15.48
-17.72
-20.6
-24.08
-27.88
-31.47
-34.21
-35.53
-35.06
-32.72
-28.68
-23.35
-17.23
-10.82
-4.65
0.89
5.53
9.13
11.68
13.28
14.1
14.41
14.52
14.67
15.03
15.62
16.34
17.04
17.61
18.02
18.3
18.51
18.67
18.81
18.96
19.15
19.37
19.51
19.4
18.89
17.92
16.59
15.09
13.57
12.05
10.43
8.6
6.59
4.54
2.65
1.0
-0.49
-2.05
-3.94
-6.25
-8.92
-11.74
-14.43
-16.82
-18.85
-20.59
-22.26
-24.14
-26.48
-29.42
-32.82
-36.27
-39.11
-40.67
-40.4
-38.1
-33.9
-28.23
-21.69
-14.88
-8.35
-2.49
2.47
6.44
9.46
11.65
13.18
14.23
15.02
15.72
16.44
17.15
17.77
18.16
18.31
18.26
18.19
18.3
18.7
19.37
20.14
20.78
21.09
20.97
20.39
19.45
18.24
16.86
15.42
13.97
12.53
11.11
9.73
8.38
7.06
5.72
4.31
2.78
1.1
-0.71
-2.64
-4.62
-6.61
-8.54
-10.36
-12.06
-13.73
-15.51
-17.58
-20.07
-23.05
-26.46
-30.17
-33.91
-37.32
-39.89
-41.09
-40.51
-37.98
-33.7
-28.19
-22.11
-16.08
-10.49
-5.48
-1.04
2.88
6.32
9.3
11.79
13.81
15.33
16.37
17.03
17.41
17.7
18.03
18.5
19.06
19.64
20.17
20.68
21.22
21.85
22.52
23.04
23.24
22.98
22.29
21.28
20.13
18.97
17.85
16.74
15.58
14.29
12.81
11.12
9.23
7.22
5.23
3.4
1.85
0.61
-0.38
-1.26
-2.14
-3.17
-4.42
-5.95
-7.81
-9.97
-12.36
-14.89
-17.45
-19.98
-22.48
-25.01
-27.6
-30.18
-32.51
-34.23
-34.92
-34.24
-32.05
-28.43
-23.75
-18.45
-13.04
-7.9
-3.26
0.79
4.28
7.23
9.65
11.47
12.68
13.31
13.5
13.5
13.57
13.89
14.44
15.1
15.67
16.04
16.22
16.35
16.59
17.0
17.51
17.93
18.07
17.85
17.25
16.37
15.36
14.3
13.27
12.31
11.36
10.37
9.26
7.96
6.47
4.89
3.35
1.95
0.69
-0.54
-1.89
-3.56
-5.57
-7.89
-10.33
-12.72
-14.92
-16.95
-18.89
-20.86
-22.99
-25.33
-27.88
-30.58
-33.28
-35.75
-37.66
-38.59
-38.15
-36.06
-32.35
-27.27
-21.36
-15.24
-9.43
-4.31
0.01
3.61
6.61
9.14
11.21
12.76
13.75
14.23
14.34
14.29
14.28
14.4
14.66
15.0
15.4
15.89
16.52
17.32
18.29
19.3
20.21
20.82
20.99
20.62
19.76
18.57
17.21
15.88
14.65
13.51
12.38
11.18
9.82
8.28
6.56
4.71
2.8
0.97
-0.68
-2.11
-3.39
-4.66
-6.08
-7.7
-9.46
-11.21
-12.91
-14.59
-16.41
-18.5
-20.87
-23.45
-26.14
-28.94
-31.9
-34.99
-37.95
-40.25
-41.27
-40.52
-37.9
-33.73
-28.56
-22.98
-17.37
-11.94
-6.84
-2.21
1.76
4.94
7.33
9.06
10.34
11.39
12.3
13.13
13.87
14.52
15.08
15.56
15.97
16.39
16.93
17.65
18.6
19.67
20.67
21.44
21.89
22.04
21.92
21.59
21.0
20.17
19.09
17.88
16.66
15.53
14.49
13.54
12.6
11.67
10.73
9.77
8.71
7.45
5.94
4.19
2.33
0.5
-1.23
-2.85
-4.47
-6.19
-8.07
-10.09
-12.18
-14.27
-16.35
-18.44
-20.64
-23.07
-25.82
-28.92
-32.23
-35.49
-38.24
-39.95
-40.15
-38.58
-35.3
-30.68
-25.24
-19.48
-13.79
-8.37
-3.37
1.12
4.97
8.06
10.35
11.91
12.88
13.44
13.77
13.96
14.11
14.31
14.67
15.24
16.01
16.88
17.69
18.29
18.65
18.77
18.73
18.58
18.29
17.84
17.19
16.41
15.59
14.84
14.2
13.59
12.85
11.82
10.44
8.79
7.05
5.43
4.03
2.83
1.65
0.3
-1.39
-3.44
-5.78
-8.28
-10.86
-13.45
-16.03
-18.57
-20.98
-23.23
-25.37
-27.59
-30.09
-32.93
-35.85
-38.32
-39.71
-39.5
-37.55
-34.05
-29.4
-24.05
-18.33
-12.53
-6.91
-1.77
2.67
6.26
9.03
11.07
12.53
13.53
14.17
14.54
14.75
14.92
15.11
15.31
15.51
15.7
15.92
16.29
16.86
17.67
18.61
19.53
20.23
20.52
20.28
19.5
18.3
16.85
15.42
14.16
13.11
12.19
11.24
10.12
8.75
7.16
5.45
3.78
2.25
0.9
-0.31
-1.52
-2.88
-4.49
-6.36
-8.42
-10.55
-12.65
-14.68
-16.68
-18.67
-20.73
-22.9
-25.23
-27.84
-30.78
-33.99
-37.24
-40.1
-42.0
-42.47
-41.2
-38.19
-33.69
-28.12
-21.93
-15.55
-9.32
-3.51
1.63
5.91
9.22
11.58
13.15
14.14
14.77
15.23
15.56
15.8
15.96
16.13
16.43
16.98
17.82
18.85
19.94
20.88
21.56
21.94
22.08
22.06
21.92
21.65
21.16
20.38
19.28
17.91
16.42
14.95
13.62
12.44
11.37
10.31
9.21
8.06
6.9
5.79
4.72
3.66
2.51
1.2
-0.31
-2.02
-3.86
-5.77
-7.65
-9.48
-11.21
-12.91
-14.66
-16.56
-18.69
-21.08
-23.72
-26.63
-29.8
-33.19
-36.59
-39.56
-41.53
-41.86
-40.18
-36.47
-31.12
-24.83
-18.27
-11.98
-6.2
-1.0
3.64
7.69
11.08
13.75
15.7
17.03
17.88
18.39
18.67
18.81
18.9
19.07
19.44
20.09
21.0
22.03
23.07
23.96
24.65
25.13
25.37
25.38
25.1
24.52
23.65
22.59
21.43
20.23
18.99
17.66
16.18
14.58
12.89
11.26
9.78
8.51
7.44
6.46
5.42
4.19
2.66
0.83
-1.26
-3.5
-5.82
-8.18
-10.53
-12.87
-15.17
-17.45
-19.79
-22.34
-25.24
-28.53
-32.0
-35.22
-37.63
-38.64
-37.86
-35.17
-30.77
-25.09
-18.73
-12.28
-6.25
-0.93
3.59
7.4
10.57
13.14
15.06
16.26
16.78
16.79
16.59
16.46
16.58
16.91
17.33
17.74
18.11
18.46
18.89
19.43
20.09
20.78
21.35
21.63
21.46
20.75
19.56
18.1
16.64
15.38
14.34
13.38
12.29
10.91
9.29
7.59
6.03
4.69
3.53
2.39
1.09
-0.49
-2.34
-4.4
-6.54
-8.65
-10.64
-12.49
-14.24
-15.95
-17.73
-19.65
-21.79
-24.25
-27.12
-30.42
-34.0
-37.42
-40.12
-41.48
-41.07
-38.79
-34.83
-29.64
-23.67
-17.36
-11.08
-5.18
0.07
4.44
7.89
10.47
12.39
13.83
14.93
15.76
16.36
16.77
17.04
17.21
17.35
17.55
17.91
18.52
19.45
20.62
21.86
22.96
23.68
23.9
23.55
22.67
21.35
19.75
18.07
16.51
15.17
14.07
13.09
12.07
10.85
9.37
7.67
5.85
4.08
2.48
1.15
0.08
-0.8
-1.7
-2.82
-4.33
-6.25
-8.48
-10.87
-13.29
-15.64
-17.9
-20.05
-22.09
-24.04
-26.05
-28.34
-31.11
-34.38
-37.84
-40.89
-42.81
-42.99
-41.17
-37.48
-32.38
-26.46
-20.32
-14.38
-8.93
-4.07
0.2
3.95
7.21
9.97
12.2
13.84
14.92
15.61
16.1
16.59
17.16
17.77
18.34
18.82
19.22
19.64
20.19
20.9
21.75
22.63
23.41
23.95
24.09
23.75
22.87
21.52
19.83
18.01
16.27
14.7
13.31
12.02
10.75
9.42
8.0
6.5
4.99
3.49
2.04
0.67
-0.64
-1.98
-3.43
-5.08
-6.95
-8.96
-10.99
-12.95
-14.78
-16.54
-18.35
-20.29
-22.47
-24.93
-27.6
-30.35
-32.89
-34.86
-35.85
-35.5
-33.61
-30.19
-25.49
-19.86
-13.79
-7.74
-2.14
2.72
6.67
9.73
12.0
13.63
14.73
15.36
15.59
15.51
15.3
15.12
15.11
15.27
15.52
15.77
15.95
16.11
16.35
16.76
17.31
17.92
18.41
18.58
18.28
17.48
16.25
14.83
13.44
12.25
11.3
10.42
9.4
8.09
6.51
4.82
3.22
1.83
0.55
-0.81
-2.44
-4.42
-6.66
-8.99
-11.26
-13.39
-15.41
-17.38
-19.38
-21.43
-23.59
-25.9
-28.41
-31.11
-33.85
-36.35
-38.16
-38.81
-37.88
-35.15
-30.7
-24.92
-18.42
-11.89
-5.89
-0.79
3.32
6.55
9.1
11.16
12.86
14.19
15.12
15.59
15.68
15.55
15.43
15.51
15.87
16.45
17.14
17.85
18.58
19.36
20.22
21.06
21.7
21.92
21.57
20.66
19.28
17.66
15.98
14.46
13.21
12.25
11.48
10.7
9.69
8.34
6.7
4.95
3.31
1.89
0.64
-0.58
-1.98
-3.65
-5.56
-7.62
-9.72
-11.82
-13.94
-16.14
-18.43
-20.8
-23.2
-25.61
-28.07
-30.69
-33.56
-36.57
-39.37
-41.37
-41.98
-40.75
-37.6
-32.86
-27.05
-20.77
-14.44
-8.38
-2.77
2.2
6.35
9.57
11.85
13.34
14.26
14.84
15.23
15.5
15.69
15.86
16.13
16.59
17.33
18.32
19.44
20.54
21.46
22.09
22.42
22.49
22.41
22.27
22.09
21.81
21.31
20.51
19.39
18.06
16.67
15.34
14.12
12.94
11.69
10.29
8.69
6.93
5.08
3.21
1.4
-0.29
-1.8
-3.14
-4.34
-5.52
-6.79
-8.27
-9.98
-11.92
-14.02
-16.24
-18.51
-20.8
-23.09
-25.4
-27.8
-30.34
-33.05
-35.85
-38.49
-40.6
-41.69
-41.33
-39.24
-35.42
-30.16
-23.96
-17.42
-11.07
-5.3
-0.29
3.96
7.51
10.43
12.78
14.55
15.76
16.46
16.8
16.96
17.12
17.39
17.8
18.28
18.77
19.27
19.85
20.55
21.41
22.32
23.09
23.5
23.46
23.05
22.41
21.72
21.04
20.32
19.45
18.38
17.13
15.8
14.44
13.04
11.52
9.85
8.1
6.47
5.13
4.13
3.33
2.44
1.17
-0.63
-2.88
-5.4
-7.98
-10.46
-12.8
-15.02
-17.15
-19.27
-21.49
-23.94
-26.74
-29.88
-33.14
-36.08
-38.19
-38.97
-38.13
-35.62
-31.63
-26.48
-20.59
-14.4
-8.38
-2.93
1.71
5.48
8.5
10.97
13.03
14.63
15.64
15.94
15.58
14.82
14.08
13.74
13.98
14.75
15.83
16.96
17.98
18.85
19.58
20.16
20.54
20.59
20.26
19.56
18.62
17.58
16.55
15.53
14.44
13.18
11.75
10.2
8.62
7.07
5.53
3.96
2.32
0.62
-1.02
-2.49
-3.77
-4.96
-6.19
-7.63
-9.32
-11.25
-13.33
-15.49
-17.71
-19.96
-22.24
-24.57
-27.01
-29.7
-32.7
-35.94
-39.12
-41.69
-43.01
-42.57
-40.17
-35.99
-30.49
-24.21
-17.68
-11.3
-5.37
-0.07
4.43
8.06
10.81
12.77
14.14
15.09
15.8
16.39
16.91
17.35
17.76
18.19
18.74
19.45
20.29
21.14
21.79
22.15
22.25
22.24
22.29
22.46
22.63
22.56
22.06
21.08
19.72
18.18
16.62
15.1
13.57
11.93
10.19
8.41
6.76
5.36
4.24
3.29
2.28
0.99
-0.74
-2.88
-5.21
-7.47
-9.48
-11.26
-13.02
-15.06
-17.59
-20.59
-23.9
-27.3
-30.66
-33.98
-37.23
-40.22
-42.53
-43.62
-42.99
-40.38
-35.91
-30.03
-23.36
-16.52
-9.99
-4.06
1.11
5.46
8.97
11.66
13.59
14.92
15.8
16.44
16.98
17.47
17.92
18.31
18.69
19.11
19.61
20.16
20.7
21.2
21.7
22.33
23.16
24.17
25.12
25.71
25.69
24.99
23.77
22.28
20.71
19.16
17.63
16.06
14.47
12.94
11.49
10.13
8.75
7.24
5.53
3.66
1.72
-0.16
-1.93
-3.61
-5.24
-6.88
-8.6
-10.45
-12.46
-14.67
-17.02
-19.44
-21.81
-24.09
-26.3
-28.57
-31.05
-33.72
-36.32
-38.35
-39.22
-38.45
-35.88
-31.65
-26.2
-20.09
-13.83
-7.81
-2.33
2.42
6.31
9.28
11.41
12.89
13.89
14.6
15.05
15.22
15.09
14.77
14.46
14.42
14.82
15.66
16.8
18.05
19.21
20.15
20.78
21.03
20.86
20.25
19.26
18.03
16.73
15.48
14.33
13.25
12.15
10.94
9.54
7.89
6.01
3.95
1.87
-0.1
-1.85
-3.38
-4.78
-6.22
-7.84
-9.66
-11.61
-13.61
-15.58
-17.55
-19.62
-21.9
-24.53
-27.52
-30.75
-33.98
-36.74
-38.49
-38.74
-37.17
-33.76
-28.81
-22.79
-16.27
-9.82
-3.91
1.11
5.04
7.88
9.8
11.09
12.06
12.9
13.67
14.35
14.88
15.25
15.55
15.83
16.1
16.35
16.55
16.73
16.97
17.36
17.94
18.66
19.39
19.93
20.15
19.93
19.24
18.16
16.84
15.46
14.19
13.09
12.12
11.1
9.9
8.45
6.82
5.13
3.5
2.03
0.68
-0.6
-1.93
-3.4
-5.05
-6.85
-8.71
-10.58
-12.43
-14.37
-16.52
-19.0
-21.85
-25.06
-28.53
-32.15
-35.78
-39.15
-41.89
-43.5
-43.53
-41.74
-38.23
-33.35
-27.62
-21.54
-15.48
-9.71
-4.4
0.33
4.41
7.87
10.73
13.02
14.72
15.82
16.42
16.69
16.87
17.18
17.72
18.43
19.2
19.87
20.37
20.65
20.69
20.54
20.23
19.85
19.5
19.25
19.08
18.94
18.73
18.39
17.88
17.16
16.12
14.74
13.06
11.24
9.54
8.18
7.18
6.42
5.67
4.73
3.59
2.35
1.1
-0.15
-1.54
-3.24
-5.33
-7.72
-10.21
-12.57
-14.68
-16.6
-18.42
-20.31
-22.36
-24.63
-27.18
-30.09
-33.38
-36.93
-40.41
-43.23
-44.78
-44.55
-42.34
-38.36
-33.09
-27.13
-20.96
-14.88
-9.06
-3.65
1.18
5.21
8.31
10.52
12.05
13.13
13.97
14.64
15.16
15.6
16.11
16.91
18.11
19.59
21.09
22.3
23.06
23.43
23.61
23.78
24.02
24.22
24.24
23.94
23.31
22.43
21.37
20.22
19.03
17.82
16.63
15.49
14.37
13.21
11.9
10.42
8.76
7.02
5.32
3.75
2.33
1.03
-0.26
-1.62
-3.11
-4.73
-6.45
-8.22
-10.04
-11.91
-13.82
-15.78
-17.73
-19.71
-21.79
-24.13
-26.88
-30.1
-33.62
-37.1
-40.01
-41.83
-42.14
-40.72
-37.59
-32.99
-27.3
-21.04
-14.67
-8.61
-3.1
1.76
5.99
9.65
12.75
15.27
17.18
18.43
19.06
19.16
18.89
18.48
18.17
18.14
18.5
19.22
20.18
21.23
22.27
23.18
23.88
24.22
24.03
23.2
21.79
20.02
18.24
16.75
15.68
14.96
14.33
13.5
12.27
10.61
8.66
6.66
4.88
3.42
2.28
1.29
0.22
-1.1
-2.76
-4.76
-7.02
-9.44
-11.92
-14.38
-16.71
-18.87
-20.82
-22.67
-24.6
-26.85
-29.55
-32.61
-35.7
-38.24
-39.54
-39.06
-36.56
-32.16
-26.36
-19.8
-13.15
-6.92
-1.44
3.17
6.88
9.75
11.87
13.36
14.34
14.93
15.22
15.36
15.48
15.75
16.31
17.15
18.18
19.14
19.86
20.21
20.3
20.32
20.48
20.83
21.24
21.49
21.35
20.73
19.66
18.27
16.67
14.94
13.15
11.37
9.66
8.13
6.83
5.76
4.84
3.9
2.74
1.23
-0.68
-2.87
-5.13
-7.19
-8.89
-10.26
-11.5
-12.89
-14.61
-16.71
-19.06
-21.48
-23.91
-26.46
-29.29
-32.55
-36.08
-39.38
-41.74
-42.48
-41.17
-37.86
-32.98
-27.16
-21.02
-15.02
-9.39
-4.25
0.36
4.43
7.94
10.89
13.27
15.01
16.07
16.49
16.43
16.18
16.07
16.28
16.83
17.62
18.51
19.43
20.35
21.27
22.09
22.7
22.93
22.75
22.2
21.44
20.6
19.78
19.01
18.27
17.45
16.41
15.0
13.16
10.98
8.68
6.55
4.79
3.47
2.46
1.59
0.67
-0.42
-1.76
-3.38
-5.33
-7.58
-10.04
-12.56
-14.98
-17.26
-19.45
-21.7
-24.16
-26.95
-30.15
-33.73
-37.47
-40.94
-43.54
-44.64
-43.77
-40.78
-35.92
-29.75
-22.94
-16.14
-9.9
-4.57
-0.32
2.93
5.39
7.39
9.18
10.88
12.44
13.72
14.61
15.1
15.28
15.26
15.17
15.17
15.41
16.01
17.03
18.37
19.84
21.19
22.23
22.86
23.07
22.85
22.22
21.21
19.92
18.55
17.29
16.28
15.48
14.73
13.85
12.7
11.28
9.67
8.0
6.39
4.87
3.47
2.16
0.9
-0.36
-1.68
-3.12
-4.78
-6.77
-9.14
-11.91
-14.97
-18.17
-21.34
-24.44
-27.52
-30.71
-34.01
-37.18
-39.73
-41.05
-40.68
-38.46
-34.57
-29.43
-23.51
-17.25
-11.01
-5.12
0.11
4.47
7.87
10.4
12.2
13.44
14.21
14.58
14.67
14.65
14.76
15.13
15.79
16.68
17.64
18.6
19.53
20.44
21.32
22.08
22.59
22.71
22.33
21.44
20.12
18.54
16.97
15.59
14.47
13.53
12.56
11.34
9.82
8.07
6.23
4.44
2.72
1.04
-0.62
-2.25
-3.81
-5.26
-6.64
-8.06
-9.62
-11.38
-13.35
-15.53
-17.94
-20.61
-23.55
-26.71
-29.9
-32.81
-35.05
-36.16
-35.78
-33.69
-29.91
-24.72
-18.63
-12.23
-6.06
-0.53
4.13
7.87
10.71
12.78
14.21
15.1
15.57
15.7
15.63
15.52
15.57
15.89
16.45
17.09
17.63
17.98
18.2
18.52
19.1
19.94
20.8
21.29
21.15
20.34
19.1
17.76
16.57
15.57
14.58
13.39
11.86
10.04
8.11
6.27
4.61
3.12
1.67
0.16
-1.49
-3.25
-5.09
-6.97
-8.92
-10.97
-13.16
-15.47
-17.82
-20.16
-22.51
-24.98
-27.75
-30.92
-34.36
-37.66
-40.18
-41.3
-40.56
-37.9
-33.6
-28.19
-22.25
-16.3
-10.65
-5.47
-0.82
3.32
6.93
9.97
12.38
14.13
15.25
15.87
16.17
16.33
16.49
16.7
17.0
17.45
18.1
18.98
20.05
21.19
22.18
22.84
23.05
22.82
22.27
21.52
20.7
19.86
19.01
18.07
16.97
15.67
14.15
12.48
10.77
9.13
7.62
6.21
4.85
3.46
1.99
0.45
-1.11
-2.66
-4.14
-5.58
-7.03
-8.58
-10.35
-12.45
-14.88
-17.57
-20.35
-23.11
-25.8
-28.57
-31.64
-35.05
-38.6
-41.72
-43.72
-44.04
-42.45
-39.17
-34.6
-29.21
-23.35
-17.25
-11.17
-5.43
-0.41
3.66
6.77
9.13
11.04
12.74
14.27
15.53
16.41
16.89
17.08
17.15
17.29
17.61
18.15
18.91
19.85
20.91
21.98
22.92
23.56
23.78
23.5
22.78
21.74
20.56
19.35
18.18
17.0
15.72
14.27
12.68
11.04
9.5
8.16
7.02
6.02
5.03
3.92
2.62
1.13
-0.52
-2.27
-4.03
-5.75
-7.44
-9.13
-10.92
-12.89
-15.08
-17.5
-20.09
-22.84
-25.76
-28.88
-32.16
-35.38
-38.18
-40.1
-40.71
-39.74
-37.11
-32.94
-27.54
-21.37
-14.96
-8.82
-3.35
1.27
5.05
8.13
10.63
12.57
13.93
14.68
14.88
14.74
14.51
14.37
14.43
14.71
15.13
15.68
16.3
17.02
17.83
18.7
19.55
20.24
20.62
20.58
20.1
19.29
18.3
17.24
16.13
14.92
13.53
11.94
10.23
8.53
6.95
5.5
4.12
2.71
1.18
-0.49
-2.34
-4.36
-6.52
-8.78
-11.08
-13.34
-15.54
-17.68
-19.8
-21.96
-24.23
-26.71
-29.46
-32.49
-35.62
-38.41
-40.24
-40.47
-38.71
-34.98
-29.71
-23.56
-17.2
-11.14
-5.65
-0.8
3.39
6.93
9.83
12.13
13.91
15.31
16.41
17.31
18.01
18.54
18.94
19.29
19.73
20.3
21.01
21.77
22.49
23.08
23.56
23.93
24.13
24.08
23.61
22.66
21.23
19.52
17.77
16.18
14.78
13.47
12.08
10.5
8.72
6.86
5.03
3.28
1.61
-0.07
-1.8
-3.6
-5.44
-7.3
-9.17
-11.07
-13.03
-15.06
-17.14
-19.27
-21.45
-23.75
-26.3
-29.19
-32.42
-35.81
-38.96
-41.35
-42.42
-41.81
-39.4
-35.36
-30.09
-24.04
-17.64
-11.26
-5.23
0.16
4.7
8.31
11.03
13.04
14.5
15.55
16.28
16.76
17.12
17.49
18.02
18.71
19.5
20.21
20.77
21.17
21.48
21.82
22.21
22.6
22.87
22.93
22.72
22.22
21.39
20.23
18.72
16.92
14.95
12.95
11.06
9.32
7.71
6.17
4.62
3.07
1.47
-0.14
-1.79
-3.49
-5.28
-7.18
-9.18
-11.24
-13.27
-15.19
-16.94
-18.55
-20.11
-21.75
-23.66
-25.97
-28.75
-31.95
-35.39
-38.69
-41.35
-42.79
-42.55
-40.37
-36.35
-30.88
-24.51
-17.79
-11.2
-5.06
0.44
5.17
9.1
12.22
14.56
16.2
17.25
17.85
18.15
18.3
18.43
18.6
18.83
19.08
19.33
19.56
19.85
20.22
20.69
21.2
21.61
21.79
21.66
21.22
20.55
19.74
18.83
17.87
16.85
15.73
14.49
13.09
11.54
9.88
8.15
6.44
4.8
3.28
1.84
0.43
-1.03
-2.58
-4.25
-6.05
-7.96
-9.97
-12.08
-14.28
-16.57
-19.0
-21.62
-24.48
-27.54
-30.6
-33.34
-35.32
-36.13
-35.48
-33.29
-29.71
-25.02
-19.64
-13.95
-8.3
-2.95
1.9
6.12
9.61
12.31
14.22
15.37
15.87
15.9
15.63
15.26
14.95
14.82
14.93
15.3
15.93
16.76
17.7
18.63
19.42
19.89
19.91
19.4
18.42
17.13
15.79
14.63
13.74
13.02
12.28
11.29
9.93
8.18
6.17
4.05
1.96
0.02
-1.75
-3.38
-4.99
-6.74
-8.71
-10.91
-13.24
-15.52
-17.65
-19.64
-21.67
-23.97
-26.7
-29.87
-33.26
-36.48
-39.05
-40.52
-40.53
-38.92
-35.7
-31.06
-25.31
-18.88
-12.22
-5.77
0.04
4.95
8.84
11.72
13.78
15.17
16.03
16.47
16.61
16.58
16.58
16.79
17.3
18.09
19.05
20.02
20.86
21.53
22.04
22.39
22.62
22.69
22.58
22.19
21.48
20.46
19.19
17.75
16.23
14.66
12.99
11.18
9.2
7.12
5.08
3.23
1.68
0.32
-1.03
-2.66
-4.72
-7.21
-9.9
-12.51
-14.8
-16.76
-18.52
-20.32
-22.44
-25.03
-28.14
-31.71
-35.52
-39.2
-42.19
-43.89
-43.72
-41.39
-36.97
-30.95
-24.04
-16.99
-10.36
-4.46
0.59
4.81
8.27
11.08
13.32
15.1
16.53
17.68
18.58
19.23
19.62
19.78
19.78
19.71
19.68
19.73
19.94
20.35
20.97
21.76
22.6
23.29
23.62
23.41
22.6
21.29
19.73
18.18
16.85
15.78
14.89
13.94
12.75
11.2
9.32
7.23
5.11
3.11
1.32
-0.24
-1.66
-3.05
-4.51
-6.12
-7.9
-9.84
-11.92
-14.1
-16.36
-18.71
-21.19
-23.92
-26.97
-30.41
-34.11
-37.73
-40.74
-42.55
-42.67
-40.87
-37.22
-32.05
-25.83
-19.1
-12.36
-6.07
-0.55
4.06
7.83
10.95
13.62
15.92
17.79
19.1
