0
25.72
24.41
23.49
23.16
23.44
24.09
24.79
25.2
25.13
24.51
23.39
21.85
19.95
17.73
15.24
12.59
9.9
7.28
4.76
2.27
-0.26
-2.88
-5.55
-8.19
-10.73
-13.2
-15.75
-18.61
-21.99
-26.01
-30.51
-35.03
-38.87
-41.25
-41.51
-39.31
-34.74
-28.26
-20.54
-12.33
-4.25
3.24
9.88
15.54
20.15
23.73
26.27
27.83
28.51
28.49
27.98
27.19
26.34
25.59
25.02
24.76
24.85
25.36
26.23
27.27
28.18
28.6
28.24
27.01
25.01
22.49
19.77
17.1
14.56
12.11
9.6
6.88
3.93
0.87
-2.13
-4.92
-7.5
-10.02
-12.7
-15.74
-19.25
-23.19
-27.37
-31.55
-35.35
-38.36
-40.11
-40.16
-38.22
-34.24
-28.45
-21.33
-13.47
-5.49
2.11
8.95
14.83
19.67
23.42
26.07
27.63
28.13
27.74
26.73
25.45
24.26
23.42
23.01
22.93
23.05
23.21
23.3
23.28
23.1
22.7
22.0
20.95
19.5
17.72
15.7
13.55
11.38
9.24
7.19
5.24
3.37
1.56
-0.28
-2.26
-4.46
-6.98
-9.89
-13.32
-17.41
-22.13
-27.24
-32.19
-36.2
-38.44
-38.36
-35.85
-31.27
-25.25
-18.48
-11.51
-4.67
1.74
7.47
12.2
15.68
17.81
18.68
18.55
17.72
16.51
15.22
14.14
13.5
13.46
13.99
14.9
15.84
16.51
16.72
16.43
15.76
14.85
13.8
12.72
11.61
10.48
9.26
7.79
5.94
3.57
0.72
-2.41
-5.52
-8.33
-10.74
-12.85
-15.0
-17.6
-20.94
-25.05
-29.6
-33.93
-37.26
-38.84
-38.22
-35.33
-30.48
-24.21
-17.17
-9.91
-2.86
3.66
9.43
14.24
18.01
20.7
22.41
23.28
23.5
23.25
22.67
21.87
20.9
19.86
18.83
17.99
17.52
17.54
18.05
18.84
19.5
19.58
18.75
16.99
14.56
11.86
9.26
6.87
4.56
2.1
-0.68
-3.76
-6.9
-9.86
-12.45
-14.67
-16.7
-18.74
-20.98
-23.56
-26.54
-29.92
-33.57
-37.23
-40.4
-42.49
-42.87
-41.18
-37.38
-31.75
-24.85
-17.33
-9.77
-2.64
3.81
9.45
14.24
18.17
21.19
23.23
24.28
24.36
23.66
22.49
21.17
19.95
18.94
18.13
17.5
17.08
16.95
17.19
17.72
18.34
18.69
18.45
17.46
15.78
13.67
11.46
9.42
7.65
6.0
4.24
2.15
-0.37
-3.18
-6.05
-8.68
-10.99
-13.04
-15.09
-17.44
-20.29
-23.68
-27.45
-31.31
-34.83
-37.49
-38.78
-38.29
-35.83
-31.51
-25.76
-19.18
-12.38
-5.84
0.16
5.51
10.13
13.93
16.77
18.59
19.44
19.51
19.08
18.46
17.84
17.35
17.04
16.91
16.98
17.26
17.71
18.24
18.74
19.02
18.95
18.41
17.38
15.9
14.08
12.05
9.89
7.65
5.26
2.7
0.04
-2.58
-4.99
-7.02
-8.71
-10.16
-11.57
-13.12
-14.97
-17.25
-20.09
-23.57
-27.61
-31.83
-35.58
-38.05
-38.53
-36.67
-32.57
-26.74
-19.91
-12.74
-5.75
0.71
6.43
11.27
15.12
17.92
19.64
20.34
20.15
19.23
17.85
16.28
14.81
13.68
13.06
13.06
13.69
14.82
16.2
17.51
18.34
18.4
17.54
15.84
13.59
11.08
8.57
6.18
3.88
1.64
-0.57
-2.76
-4.86
-6.87
-8.83
-10.83
-13.01
-15.48
-18.29
-21.44
-24.87
-28.41
-31.83
-34.81
-36.95
-37.85
-37.2
-34.81
-30.69
-25.09
-18.45
-11.34
-4.36
1.98
7.35
11.62
14.78
16.93
18.15
18.57
18.37
17.76
17.01
16.36
15.97
15.87
16.0
16.23
16.48
16.71
16.93
17.15
17.33
17.37
17.17
16.58
15.54
13.98
11.96
9.64
7.2
4.8
2.51
0.24
-2.19
-4.91
-7.94
-11.14
-14.27
-17.14
-19.74
-22.2
-24.75
-27.56
-30.64
-33.87
-37.04
-39.9
-42.13
-43.34
-43.11
-41.11
-37.28
-31.88
-25.46
-18.63
-11.89
-5.51
0.4
5.71
10.25
13.82
16.25
17.57
17.97
17.72
17.12
16.38
15.65
15.05
14.68
14.61
14.85
15.37
16.09
16.86
17.54
17.9
17.72
16.87
15.34
13.3
11.01
8.72
6.67
4.95
3.58
2.51
1.62
0.75
-0.33
-1.8
-3.73
-6.03
-8.48
-10.84
-12.98
-14.92
-16.85
-19.04
-21.75
-25.15
-29.2
-33.61
-37.8
-41.03
-42.55
-41.82
-38.71
-33.49
-26.74
-19.18
-11.45
-4.06
2.67
8.51
13.4
17.31
20.31
22.51
24.03
24.98
25.45
25.5
25.24
24.79
24.33
23.99
23.85
23.91
24.1
24.28
24.33
24.14
23.65
22.88
21.86
20.67
19.35
17.89
16.24
14.33
12.15
9.76
7.28
4.86
2.58
0.47
-1.55
-3.53
-5.51
-7.49
-9.46
-11.44
-13.5
-15.68
-17.99
-20.4
-22.91
-25.61
-28.59
-31.85
-35.13
-37.84
-39.26
-38.78
-36.14
-31.56
-25.6
-18.92
-12.04
-5.28
1.21
7.29
12.8
17.5
21.1
23.42
24.4
24.21
23.2
21.82
20.5
19.5
18.88
18.48
18.15
17.78
17.43
17.22
17.22
17.35
17.4
17.13
16.35
15.04
13.27
11.23
9.09
7.01
5.06
3.25
1.54
-0.16
-1.88
-3.66
-5.42
-7.07
-8.54
-9.8
-10.96
-12.15
-13.54
-15.33
-17.69
-20.79
-24.68
-29.23
-34.01
-38.36
-41.45
-42.56
-41.3
-37.72
-32.31
-25.79
-18.84
-11.99
-5.5
0.57
6.16
11.16
15.32
18.36
20.15
20.71
20.27
19.23
17.96
16.78
15.88
15.38
15.36
15.87
16.93
18.4
20.04
21.52
22.56
22.96
22.66
21.73
20.3
18.51
16.51
14.48
12.55
10.8
9.2
7.6
5.88
3.96
1.89
-0.14
-1.95
-3.45
-4.75
-6.1
-7.84
-10.23
-13.43
-17.42
-22.05
-26.97
-31.73
-35.78
-38.57
-39.63
-38.65
-35.52
-30.38
-23.6
-15.75
-7.48
0.57
7.9
14.19
19.33
23.38
26.42
28.56
29.92
30.59
30.71
30.39
29.73
28.77
27.57
26.18
24.78
23.51
22.51
21.79
21.22
20.6
19.67
18.27
16.35
13.98
11.32
8.59
5.96
3.55
1.37
-0.61
-2.47
-4.27
-6.05
-7.82
-9.57
-11.33
-13.14
-14.99
-16.86
-18.69
-20.49
-22.33
-24.4
-26.91
-30.03
-33.85
-38.25
-42.95
-47.46
-51.18
-53.38
-53.48
-51.15
-46.51
-40.11
-32.78
-25.35
-18.35
-11.99
-6.2
-0.88
3.89
7.92
10.94
12.88
13.87
14.25
14.34
14.39
14.45
14.56
14.83
15.44
16.58
18.31
20.47
22.72
24.7
26.14
26.95
27.2
26.99
26.39
25.48
24.28
22.83
21.19
19.45
17.67
15.94
14.23
12.5
10.6
8.37
5.73
2.71
-0.51
-3.67
-6.59
-9.26
-11.84
-14.66
-17.97
-21.99
-26.68
-31.86
-37.23
-42.39
-46.88
-50.15
-51.66
-50.96
-47.86
-42.52
-35.5
-27.59
-19.6
-12.16
-5.57
0.17
5.21
9.65
13.45
16.39
18.28
19.05
18.89
18.14
17.27
16.65
16.51
16.94
17.86
19.11
20.49
21.84
23.01
23.97
24.71
25.26
25.61
25.7
25.45
24.73
23.52
21.81
19.71
17.35
14.95
12.68
10.65
8.85
7.19
5.47
3.53
1.31
-1.2
-3.89
-6.67
-9.43
-12.12
-14.7
-17.24
-19.91
-22.95
-26.61
-30.95
-35.7
-40.28
-43.8
-45.38
-44.44
-40.89
-35.07
-27.69
-19.52
-11.17
-3.09
4.43
11.1
16.64
20.77
23.4
24.64
24.77
24.2
23.19
21.91
20.46
18.94
17.56
16.58
16.2
16.46
17.26
18.32
19.36
20.19
20.64
20.62
20.05
18.85
16.98
14.46
11.44
8.16
4.91
1.98
-0.47
-2.44
-4.1
-5.73
-7.52
-9.62
-11.95
-14.41
-16.86
-19.3
-21.85
-24.65
-27.87
-31.52
-35.47
-39.43
-42.97
-45.59
-46.77
-46.11
-43.39
-38.67
-32.28
-24.74
-16.63
-8.56
-1.05
5.49
10.79
14.75
17.39
18.88
19.48
19.44
19.04
18.53
18.16
18.12
18.49
19.22
20.14
21.07
21.83
22.36
22.6
22.56
22.16
21.35
20.08
18.39
16.38
14.16
11.84
9.51
7.25
5.17
3.28
1.54
-0.16
-2.0
-4.05
-6.24
-8.43
-10.49
-12.45
-14.54
-17.13
-20.54
-24.9
-29.98
-35.19
-39.71
-42.64
-43.26
-41.24
-36.69
-30.14
-22.39
-14.27
-6.42
0.72
6.99
12.29
16.6
19.91
22.25
23.67
24.25
24.1
23.33
22.11
20.7
19.41
18.5
18.12
18.27
18.86
19.77
20.88
22.07
23.18
23.97
24.19
23.67
22.44
20.65
18.61
16.53
14.58
12.73
10.87
8.85
6.53
3.83
0.78
-2.45
-5.67
-8.67
-11.33
-13.67
-15.81
-17.91
-20.23
-23.03
-26.58
-31.05
-36.33
-41.93
-47.01
-50.51
-51.56
-49.68
-44.95
-37.91
-29.41
-20.29
-11.29
-2.97
4.26
10.19
14.75
18.07
20.38
21.95
22.97
23.56
23.75
23.54
22.98
22.16
21.23
20.32
19.57
19.06
18.87
19.01
19.44
20.07
20.68
21.05
20.93
20.17
18.74
16.74
14.41
12.01
9.74
7.69
5.91
4.35
2.95
1.62
0.27
-1.3
-3.22
-5.62
-8.46
-11.6
-14.81
-17.9
-20.81
-23.68
-26.83
-30.55
-34.93
-39.72
-44.27
-47.69
-49.12
-47.97
-44.17
-38.05
-30.24
-21.48
-12.42
-3.62
4.47
11.52
17.33
21.81
25.02
27.1
28.22
28.59
28.45
28.08
27.71
27.52
27.56
27.76
28.01
28.26
28.53
28.9
29.42
30.01
30.51
30.62
30.1
28.78
26.7
24.03
21.1
18.2
15.52
13.12
10.88
8.62
6.19
3.53
0.7
-2.24
-5.16
-8.02
-10.78
-13.46
-16.17
-19.05
-22.25
-25.93
-30.07
-34.52
-38.99
-43.06
-46.28
-48.19
-48.35
-46.45
-42.34
-36.2
-28.51
-19.99
-11.37
-3.32
3.77
9.7
14.4
17.9
20.24
21.5
21.84
21.45
20.56
19.43
18.28
17.34
16.76
16.65
16.97
17.6
18.43
19.3
20.11
20.75
21.07
20.88
20.08
18.62
16.69
14.54
12.44
10.47
8.54
6.46
4.1
1.43
-1.4
-4.24
-6.91
-9.4
-11.81
-14.33
-17.19
-20.6
-24.67
-29.29
-34.12
-38.58
-41.93
-43.47
-42.69
-39.38
-33.7
-26.14
-17.43
-8.4
0.19
7.74
13.92
18.66
22.02
24.09
24.99
24.82
23.76
22.05
20.05
18.04
16.29
14.9
13.96
13.51
13.58
14.09
14.87
15.57
15.85
15.46
14.37
12.75
10.86
8.92
7.05
5.2
3.32
1.35
-0.71
-2.85
-5.06
-7.39
-9.9
-12.63
-15.58
-18.71
-22.04
-25.64
-29.64
-34.08
-38.75
-43.16
-46.54
-48.1
-47.26
-43.83
-38.09
-30.69
-22.39
-13.9
-5.72
1.89
8.75
14.76
19.78
23.66
26.33
27.8
28.21
27.82
26.93
25.84
24.79
23.94
23.42
23.26
23.44
23.79
24.16
24.33
24.19
23.66
22.72
21.36
19.57
17.37
14.87
12.25
9.69
7.27
4.9
2.4
-0.41
-3.58
-6.97
-10.4
-13.66
-16.72
-19.68
-22.74
-26.14
-30.06
-34.55
-39.36
-43.99
-47.66
-49.57
-49.04
-45.78
-39.99
-32.24
-23.35
-14.12
-5.26
2.75
9.56
15.01
19.08
21.9
23.69
24.74
25.31
25.62
25.79
25.8
25.55
24.9
23.86
22.57
21.39
20.68
20.69
21.32
22.16
22.68
22.4
21.14
19.0
16.26
13.23
10.1
7.0
4.0
1.18
-1.44
-3.87
-6.21
-8.54
-10.92
-13.26
-15.49
-17.54
-19.53
-21.67
-24.28
-27.57
-31.61
-36.25
-41.02
-45.23
-48.06
-48.77
-46.89
-42.36
-35.6
-27.3
-18.28
-9.25
-0.68
7.12
14.03
19.93
24.74
28.37
30.87
32.29
32.8
32.59
31.82
30.67
29.32
28.0
26.95
26.4
26.47
27.09
28.02
28.89
29.29
28.95
27.74
25.67
22.89
19.61
16.1
12.67
9.58
6.98
4.83
2.95
1.11
-0.92
-3.18
-5.57
-7.89
-9.99
-11.86
-13.71
-15.86
-18.7
-22.44
-27.07
-32.25
-37.39
-41.72
-44.48
-45.04
-43.08
-38.61
-32.0
-23.87
-14.99
-6.11
2.13
9.32
15.25
19.88
23.26
25.47
26.6
26.83
26.34
25.46
24.55
23.96
23.89
24.38
25.29
26.36
27.33
28.03
28.4
28.43
28.12
27.42
26.23
24.48
22.16
19.38
16.34
13.22
10.14
7.09
4.03
0.88
-2.34
-5.57
-8.67
-11.54
-14.15
-16.56
-18.9
-21.39
-24.27
-27.76
-31.97
-36.78
-41.78
-46.23
-49.28
-50.12
-48.31
-43.89
-37.32
-29.33
-20.67
-11.99
-3.76
3.67
10.04
15.19
19.04
21.65
23.17
23.79
23.68
23.05
22.08
21.06
20.24
19.87
20.06
20.79
21.91
23.2
24.44
25.39
25.89
25.78
25.01
23.64
21.79
19.64
17.39
15.15
13.0
10.93
8.83
6.54
3.87
0.69
-3.0
-6.98
-10.9
-14.45
-17.47
-20.02
-22.37
-24.89
-27.87
-31.51
-35.82
-40.61
-45.47
-49.75
-52.63
-53.27
-51.1
-46.0
-38.38
-29.09
-19.11
-9.33
-0.32
7.62
14.41
20.02
24.42
27.56
29.42
30.04
29.6
28.41
26.84
25.28
24.03
23.22
22.83
22.79
23.03
23.54
24.33
25.31
26.23
26.72
26.4
25.07
22.75
19.7
16.3
12.95
9.91
7.35
5.27
3.54
1.92
0.14
-2.03
-4.66
-7.67
-10.86
-14.01
-16.98
-19.82
-22.6
-25.47
-28.6
-32.13
-36.17
-40.72
-45.45
-49.77
-52.84
-53.82
-52.13
-47.64
-40.74
-32.17
-22.83
-13.48
-4.67
3.31
10.3
16.23
20.97
24.38
26.36
26.9
26.22
24.75
23.02
21.5
20.44
19.87
19.67
19.7
19.92
20.33
20.95
21.66
22.23
22.38
21.95
20.87
19.29
17.35
15.26
13.15
11.09
9.04
6.9
4.54
1.85
-1.12
-4.2
-7.17
-9.89
-12.39
-14.85
-17.47
-20.42
-23.73
-27.4
-31.49
-36.08
-41.14
-46.35
-51.07
-54.4
-55.53
-53.98
-49.79
-43.41
-35.5
-26.69
-17.48
-8.21
0.8
9.25
16.79
23.05
27.76
30.76
32.12
32.05
30.92
29.13
27.04
24.96
23.11
21.66
20.77
20.47
20.71
21.27
21.83
22.03
21.61
20.49
18.73
16.51
14.04
11.52
9.05
6.65
4.29
1.88
-0.61
-3.17
-5.72
-8.15
-10.37
-12.35
-14.17
-16.0
-18.04
-20.5
-23.57
-27.35
-31.83
-36.78
-41.69
-45.86
-48.5
-48.92
-46.79
-42.22
-35.69
-27.89
-19.56
-11.27
-3.48
3.52
9.51
14.32
17.91
20.37
21.91
22.71
22.94
22.71
22.05
21.09
20.01
19.06
18.47
18.39
18.8
19.56
20.43
21.16
21.52
21.33
20.56
19.24
17.53
15.6
13.59
11.56
9.48
7.28
4.88
2.27
-0.54
-3.45
-6.42
-9.37
-12.32
-15.37
-18.66
-22.38
-26.67
-31.51
-36.67
-41.65
-45.77
-48.3
-48.65
-46.51
-41.94
-35.33
-27.36
-18.79
-10.33
-2.48
4.5
10.5
15.45
19.24
21.71
22.72
22.35
20.86
18.73
16.51
14.69
13.59
13.35
13.99
15.36
17.19
19.08
20.54
21.15
20.68
19.18
16.92
14.28
11.58
8.99
6.53
4.14
1.73
-0.77
-3.39
-6.14
-9.02
-11.99
-14.98
-17.91
-20.78
-23.74
-27.01
-30.82
-35.13
-39.48
-43.04
-44.84
-44.08
-40.47
-34.32
-26.41
-17.7
-9.03
-0.96
6.29
12.64
18.1
22.64
26.21
28.72
30.16
30.52
29.9
28.45
26.39
23.99
21.6
19.54
18.09
17.4
17.48
18.15
19.12
20.03
20.52
20.32
19.27
17.38
14.84
11.93
8.98
6.21
3.66
1.24
-1.27
-4.0
-6.99
-10.22
-13.64
-17.28
-21.25
-25.6
-30.24
-34.89
-39.06
-42.19
-43.77
-43.42
-40.91
-36.26
-29.64
-21.5
-12.47
-3.33
5.15
12.39
18.13
22.39
25.42
27.47
28.73
29.27
29.1
28.31
27.12
25.82
24.76
24.14
24.06
24.48
25.25
26.18
27.04
27.61
27.67
27.1
25.84
23.89
21.35
18.3
14.9
11.31
7.72
4.27
1.07
-1.9
-4.69
-7.38
-10.04
-12.69
-15.41
-18.36
-21.75
-25.76
-30.38
-35.28
-39.77
-43.05
-44.35
-43.2
-39.53
-33.69
-26.27
-18.01
-9.63
-1.74
5.17
10.83
15.17
18.24
20.16
21.05
21.03
20.25
19.02
17.69
16.62
16.03
15.96
16.36
17.15
18.29
19.75
21.36
22.86
23.89
24.15
23.54
22.17
20.2
17.75
14.84
11.41
7.47
3.18
-1.22
-5.43
-9.25
-12.6
-15.52
-18.07
-20.4
-22.7
-25.24
-28.26
-31.94
-36.24
-40.86
-45.27
-48.68
-50.29
-49.44
-45.85
-39.73
-31.77
-22.93
-14.14
-6.01
1.22
7.63
13.38
18.45
22.65
25.68
27.43
28.04
27.87
27.32
26.64
25.9
25.08
24.22
23.52
23.23
23.5
24.25
25.15
25.78
25.86
25.33
24.3
22.9
21.2
19.15
16.68
13.76
10.46
6.91
3.26
-0.41
-4.0
-7.49
-10.78
-13.87
-16.82
-19.84
-23.21
-27.12
-31.56
-36.18
-40.32
-43.18
-44.01
-42.38
-38.24
-31.94
-24.12
-15.51
-6.77
1.52
9.01
15.42
20.61
24.51
27.08
28.37
28.51
27.65
26.02
23.88
21.47
19.04
16.85
15.08
13.92
13.42
13.54
14.1
14.82
15.38
15.5
15.0
13.83
12.07
9.86
7.35
4.7
2.02
-0.62
-3.16
-5.57
-7.9
-10.23
-12.73
-15.61
-19.04
-23.12
-27.74
-32.57
-37.07
-40.59
-42.45
-42.18
-39.61
-34.98
-28.78
-21.59
-13.98
-6.35
0.98
7.69
13.44
17.9
20.88
22.36
22.54
21.73
20.25
18.35
16.3
14.38
12.91
12.15
12.19
12.87
13.82
14.62
14.92
14.59
13.71
12.45
11.03
9.55
8.01
6.34
4.47
2.36
-0.0
-2.56
-5.26
-8.04
-10.89
-13.82
-16.98
-20.56
-24.72
-29.44
-34.41
-39.02
-42.48
-44.05
-43.26
-40.09
-34.9
-28.31
-20.99
-13.47
-6.08
1.0
7.63
13.66
18.84
22.86
25.48
26.6
26.34
25.08
23.36
21.68
20.39
19.59
19.19
19.04
19.0
18.96
18.81
18.4
17.51
16.02
13.87
11.17
8.1
4.81
1.43
-1.98
-5.37
-8.73
-12.07
-15.47
-19.08
-23.03
-27.35
-31.97
-36.66
-41.09
-44.87
-47.5
-48.5
-47.43
-44.17
-38.9
-32.16
-24.62
-16.91
-9.44
-2.4
4.07
9.84
14.66
18.24
20.42
21.16
20.66
19.28
17.45
15.56
13.99
12.95
12.55
12.74
13.42
14.46
15.69
16.91
17.84
18.13
17.5
15.82
13.18
9.83
6.17
2.49
-1.04
-4.44
-7.86
-11.54
-15.74
-20.57
-25.92
-31.32
-36.0
-39.09
-39.9
-38.17
-34.15
-28.42
-21.66
-14.49
-7.31
-0.42
5.93
11.43
15.83
19.01
21.05
22.18
22.69
22.81
22.63
22.19
21.55
20.78
20.02
19.34
18.72
18.06
17.23
16.11
14.65
12.84
10.72
8.28
5.5
2.33
-1.31
-5.44
-10.08
-15.15
-20.51
-25.89
-30.9
-35.05
-37.86
-38.92
-38.02
-35.16
-30.6
-24.79
-18.29
-11.62
-5.18
0.74
5.94
10.18
13.22
14.79
14.82
13.48
11.24
8.76
6.66
5.3
4.71
4.71
5.0
5.34
5.61
5.7
5.46
4.7
3.3
1.26
-1.28
-4.15
-7.25
-10.67
-14.59
-19.11
-24.07
-29.01
-33.26
-36.12
-37.01
-35.64
-32.02
-26.4
-19.2
-11.05
-2.57
5.66
13.14
19.52
24.5
27.87
29.5
29.45
27.94
25.47
22.63
19.96
17.83
16.37
15.46
14.84
14.22
13.38
12.27
10.97
9.62
8.3
6.93
5.31
3.14
0.2
-3.61
-8.19
-13.34
-18.73
-23.91
-28.25
-30.98
-31.4
-29.08
-24.09
-16.99
-8.62
0.19
8.89
17.21
25.01
32.08
38.06
42.49
45.01
45.58
44.51
42.38
39.77
37.11
34.54
31.96
29.16
26.02
22.61
19.13
15.86
12.92
10.26
7.59
4.57
0.99
-3.15
-7.66
-12.31
-16.98
-21.78
-26.91
-32.42
-37.99
-42.85
-45.94
-46.3
-43.42
-37.44
-29.02
-19.12
-8.62
1.78
11.63
20.56
28.15
33.98
37.71
39.21
38.73
36.75
33.87
30.67
27.49
24.5
21.68
18.96
16.3
13.71
11.21
8.78
6.33
3.74
0.92
-2.11
-5.28
-8.48
-11.66
-14.86
-18.2
-21.8
-25.71
-29.79
-33.78
-37.23
-39.6
-40.34
-39.07
-35.64
-30.19
-23.13
-14.96
-6.15
2.89
11.83
20.23
27.59
33.33
37.01
38.44
37.84
35.72
32.72
29.48
26.42
23.78
21.63
19.94
18.62
17.55
16.58
15.55
14.27
12.58
10.4
7.69
4.44
0.68
-3.54
-8.19
-13.18
-18.31
-23.29
-27.64
-30.83
-32.32
-31.74
-28.99
-24.29
-18.07
-10.88
-3.17
4.67
12.32
19.38
25.38
29.84
32.35
32.79
31.4
28.72
25.47
22.29
19.61
17.56
16.0
14.64
13.19
11.46
9.45
7.24
4.94
2.56
0.01
-2.91
-6.39
-10.57
-15.45
-20.81
-26.21
-31.04
-34.62
-36.39
-36.02
-33.49
-29.07
-23.17
-16.24
-8.79
-1.24
5.96
12.39
17.69
21.62
24.07
25.06
24.67
23.05
20.46
17.3
14.07
11.25
9.16
7.79
6.89
6.09
5.06
3.71
2.11
0.4
-1.42
-3.48
-6.03
-9.31
-13.43
-18.36
-23.85
-29.49
-34.7
-38.75
-40.91
-40.66
-37.83
-32.7
-25.86
-18.01
-9.74
-1.42
6.68
14.35
21.23
26.87
30.84
32.9
33.1
31.73
29.25
26.1
22.6
18.97
15.34
11.91
8.86
6.38
4.59
3.42
2.65
1.88
0.74
-1.07
-3.64
-6.91
-10.71
-14.93
-19.46
-24.19
-28.82
-32.83
-35.5
-36.18
-34.56
-30.74
-25.24
-18.7
-11.6
-4.13
3.66
11.58
19.18
25.65
30.21
32.37
32.18
30.23
27.39
24.46
21.91
19.82
17.97
16.1
14.05
11.87
9.74
7.83
6.21
4.77
3.24
1.37
-1.02
-3.97
-7.42
-11.3
-15.54
-19.97
-24.25
-27.84
-30.06
-30.31
-28.32
-24.23
-18.48
-11.65
-4.23
3.46
11.17
18.56
25.18
30.5
34.04
35.6
35.29
33.52
30.8
27.55
24.0
20.2
16.11
11.7
7.02
2.26
-2.39
-6.78
-10.84
-14.65
-18.4
-22.27
-26.39
-30.83
-35.53
-40.38
-45.07
-49.18
-52.17
-53.49
-52.72
-49.68
-44.48
-37.46
-29.13
-20.02
-10.67
-1.62
6.63
13.55
18.74
21.93
23.12
22.52
20.52
17.59
14.19
10.69
7.41
4.53
2.13
0.17
-1.5
-3.03
-4.55
-6.2
-8.07
-10.29
-13.02
-16.4
-20.45
-25.02
-29.75
-34.08
-37.38
-39.09
-38.79
-36.37
-31.98
-26.0
-18.99
-11.5
-4.01
3.13
9.58
15.01
19.01
21.28
21.76
20.72
18.71
16.36
14.15
12.3
10.74
9.29
7.83
6.37
5.01
3.85
2.89
2.05
1.13
-0.14
-2.09
-5.06
-9.28
-14.71
-20.94
-27.23
-32.57
-36.04
-36.98
-35.17
-30.9
-24.71
-17.28
-9.2
-0.9
7.29
15.04
21.94
27.48
31.15
32.67
32.13
30.0
26.98
23.74
20.74
18.07
15.64
13.29
10.93
8.63
6.49
4.56
2.82
1.14
-0.64
-2.66
-5.04
-8.0
-11.69
-16.19
-21.36
-26.73
-31.6
-35.15
-36.68
-35.76
-32.32
-26.62
-19.17
-10.6
-1.57
7.29
15.44
22.42
27.84
31.39
32.89
32.45
30.42
27.46
24.26
21.36
18.99
17.0
15.1
12.99
10.61
8.06
5.57
3.33
1.38
-0.37
-2.11
-4.04
-6.36
-9.24
-12.82
-17.19
-22.31
-27.96
-33.58
-38.39
-41.48
-42.07
-39.79
-34.79
-27.68
-19.33
-10.55
-1.95
6.13
13.46
19.86
25.06
28.75
30.74
31.05
29.97
28.01
25.67
23.32
21.08
18.89
16.59
14.12
11.6
9.26
7.36
6.02
5.11
4.36
3.35
1.77
-0.64
-3.92
-8.02
-12.8
-18.03
-23.35
-28.27
-32.19
-34.44
-34.45
-32.0
-27.23
-20.74
-13.37
-5.94
0.97
7.11
12.46
17.06
20.77
23.3
24.29
23.58
21.32
18.02
14.35
10.95
8.17
6.08
4.54
3.35
2.38
1.61
1.01
0.53
-0.03
-1.02
-2.81
-5.68
-9.72
-14.76
-20.36
-25.92
-30.75
-34.24
-35.91
-35.51
-32.95
-28.4
-22.22
-14.88
-6.94
1.08
8.69
15.48
21.04
25.07
27.36
27.96
27.15
25.37
23.13
20.75
18.38
15.96
13.42
10.74
8.03
5.47
3.15
1.06
-0.92
-2.98
-5.31
-8.11
-11.58
-15.87
-21.01
-26.8
-32.75
-38.15
-42.18
-44.18
-43.75
-40.86
-35.79
-28.95
-20.82
-11.87
-2.55
6.68
15.32
22.82
28.63
32.33
33.72
32.87
30.18
26.24
21.73
17.22
13.13
9.66
6.83
4.61
2.92
1.7
0.85
0.13
-0.77
-2.28
-4.77
-8.44
-13.26
-18.99
-25.19
-31.4
-37.04
-41.53
-44.23
-44.65
-42.49
-37.85
-31.19
-23.15
-14.39
-5.38
3.63
12.46
20.8
28.2
34.08
37.95
39.64
39.38
37.63
34.98
31.92
28.77
25.71
22.81
20.13
17.72
15.57
13.65
11.82
9.95
7.88
5.44
2.47
-1.23
-5.71
-10.91
-16.54
-22.06
-26.77
-29.98
-31.12
-29.9
-26.26
-20.43
-12.85
-4.06
5.3
14.55
23.04
30.12
35.31
38.3
39.02
37.76
34.98
31.31
27.34
23.51
20.02
16.9
14.08
11.48
9.06
6.82
4.73
2.76
0.82
-1.24
-3.6
-6.55
-10.35
-15.17
-20.92
-27.17
-33.14
-37.9
-40.58
-40.56
-37.65
-31.99
-24.02
-14.32
-3.58
7.49
18.17
27.74
35.63
41.38
44.79
45.88
44.92
42.42
38.96
35.11
31.28
27.66
24.24
20.93
17.68
14.51
11.51
8.69
5.95
3.04
-0.4
-4.65
-9.9
-16.12
-23.07
-30.31
-37.16
-42.88
-46.76
-48.24
-47.07
-43.22
-36.94
-28.69
-19.0
-8.58
1.85
11.56
19.87
26.22
30.23
31.85
31.33
29.22
26.31
23.33
20.82
18.94
17.52
16.15
14.52
12.42
9.94
7.3
4.74
2.44
0.38
-1.68
-4.09
-7.26
-11.57
-17.17
-23.97
-31.5
-39.04
-45.66
-50.43
-52.5
-51.37
-46.92
-39.55
-30.03
-19.32
-8.33
2.24
11.95
20.49
27.62
33.04
36.52
38.04
37.84
36.44
34.42
32.27
30.25
28.37
26.56
24.76
23.01
21.36
19.9
18.67
17.68
16.88
16.16
15.36
14.24
12.52
9.92
6.25
1.4
-4.55
-11.27
-18.18
-24.42
-28.95
-30.9
-29.77
-25.64
-19.17
-11.26
-2.79
5.72
14.01
22.02
29.57
36.29
41.66
45.22
46.73
46.26
44.17
41.02
37.36
33.7
30.41
27.69
25.61
24.08
22.9
21.81
20.56
18.89
16.63
13.7
10.11
5.97
1.46
-3.25
-8.07
-13.04
-18.2
-23.53
-28.77
-33.4
-36.73
-38.07
-36.99
-33.44
-27.78
-20.64
-12.71
-4.61
3.31
10.8
17.72
23.83
28.8
32.29
34.01
33.92
32.2
29.26
25.55
21.49
17.32
13.18
9.1
5.2
1.59
-1.62
-4.38
-6.76
-8.93
-11.1
-13.4
-15.84
-18.39
-20.92
-23.41
-25.97
-28.83
-32.22
-36.21
-40.53
-44.47
-47.06
-47.33
-44.69
-39.08
-31.02
-21.38
-11.04
-0.71
9.14
18.15
26.01
32.35
36.87
39.43
40.09
39.16
37.04
34.19
31.04
27.93
25.1
22.66
20.6
18.83
17.28
15.91
14.72
13.68
12.61
11.25
9.31
6.6
3.09
-1.08
-5.77
-10.85
-16.26
-21.84
-27.3
-32.15
-35.77
-37.6
-37.26
-34.63
-29.88
-23.37
-15.67
-7.38
0.85
8.5
15.21
20.73
24.95
27.76
29.0
28.6
26.66
23.5
19.7
15.9
12.68
10.39
9.09
8.57
8.43
8.19
7.47
6.12
4.25
2.16
0.12
-1.8
-3.74
-6.02
-8.92
-12.56
-16.85
-21.54
-26.26
-30.55
-33.88
-35.62
-35.23
-32.43
-27.35
-20.49
-12.58
-4.27
3.99
11.96
19.46
26.2
31.72
35.55
37.29
36.85
34.38
30.27
25.02
19.15
13.15
7.53
2.67
-1.11
-3.67
-5.15
-5.91
-6.48
-7.35
-8.88
-11.12
-13.87
-16.79
-19.57
-22.07
-24.44
-27.02
-30.2
-34.28
-39.29
-44.98
-50.78
-55.93
-59.55
-60.87
-59.41
-55.15
-48.46
-40.02
-30.55
-20.65
-10.76
-1.22
7.62
15.36
21.59
26.03
28.69
29.8
29.68
28.66
26.91
24.54
21.73
18.71
15.82
13.29
11.16
9.25
7.2
4.7
1.64
-1.85
-5.5
-8.94
-11.93
-14.29
-16.06
-17.43
-18.77
-20.61
-23.36
-27.25
-31.97
-36.8
-40.69
-42.6
-41.83
-38.19
-32.02
-24.02
-14.97
-5.6
3.48
11.8
18.98
24.68
28.63
30.72
31.04
29.89
27.74
25.11
22.42
19.86
17.47
15.11
12.68
10.17
7.69
5.4
3.4
1.72
0.35
-0.76
-1.68
-2.52
-3.42
-4.5
-5.85
-7.46
-9.25
-11.18
-13.3
-15.83
-18.97
-22.88
-27.45
-32.23
-36.58
-39.73
-41.0
-39.91
-36.3
-30.34
-22.5
-13.45
-3.92
5.45
14.13
21.78
28.19
33.27
37.0
39.43
40.6
40.63
39.63
37.76
35.25
32.36
29.35
26.42
23.65
21.03
18.47
15.91
13.28
10.6
7.87
5.09
2.27
-0.58
-3.44
-6.31
-9.28
-12.53
-16.31
-20.78
-25.93
-31.46
-36.78
-41.11
-43.73
-44.07
-41.97
-37.6
-31.46
-24.2
-16.4
-8.58
-1.08
5.77
11.75
16.55
19.98
21.98
22.62
22.15
20.85
18.95
16.61
14.0
11.36
9.01
7.29
6.36
6.14
6.28
6.27
5.71
4.45
2.58
0.42
-1.76
-3.84
-5.93
-8.29
-11.27
-15.16
-20.11
-26.03
-32.46
-38.6
-43.4
-45.79
-45.06
-41.13
-34.55
-26.35
-17.62
-9.16
-1.38
5.64
11.94
17.45
21.99
25.29
27.19
27.66
26.88
25.14
22.79
20.21
17.74
15.61
13.88
12.45
11.09
9.51
7.54
5.11
2.36
-0.53
-3.32
-5.8
-7.94
-9.83
-11.77
-14.15
-17.35
-21.54
-26.58
-31.98
-37.0
-40.78
-42.57
-41.87
-38.52
-32.79
-25.24
-16.61
-7.68
0.95
8.88
15.89
21.82
26.47
29.6
30.96
30.46
28.2
24.49
19.81
14.73
9.79
5.44
1.97
-0.55
-2.3
-3.61
-4.85
-6.31
-8.06
-10.04
-12.1
-14.11
-16.02
-17.85
-19.66
-21.61
-23.9
-26.73
-30.24
-34.32
-38.52
-42.06
-44.07
-43.78
-40.85
-35.38
-27.89
-19.06
-9.57
0.04
9.29
17.78
25.16
31.15
35.55
38.34
39.64
39.63
38.53
36.57
33.99
31.09
28.19
25.63
23.59
22.15
21.18
20.44
19.57
18.27
16.34
13.71
10.43
6.65
2.54
-1.76
-6.14
-10.58
-15.13
-19.89
-24.91
-30.06
-34.91
-38.72
-40.54
-39.58
-35.38
-28.09
-18.35
-7.23
4.2
15.06
24.76
33.04
39.79
44.95
48.47
50.34
50.61
49.53
47.43
44.7
41.68
38.55
35.31
31.89
28.16
24.05
19.56
14.81
9.98
5.27
0.8
-3.4
-7.39
-11.31
-15.33
-19.65
-24.44
-29.88
-35.98
-42.58
-49.18
-55.02
-59.14
-60.67
-59.02
-54.1
-46.3
-36.38
-25.34
-14.13
-3.56
5.83
13.8
20.29
25.36
29.02
31.27
32.11
31.65
30.09
27.78
25.05
22.19
19.31
16.46
13.65
10.98
8.55
6.46
4.67
3.01
1.24
-0.86
-3.45
-6.56
-10.26
-14.59
-19.57
-25.07
-30.71
-35.81
-39.47
-40.88
-39.46
-35.14
-28.26
-19.56
-9.93
-0.24
8.82
16.78
23.37
28.41
31.79
33.41
33.25
31.52
28.61
25.1
21.54
18.35
15.68
13.42
11.4
9.46
7.51
5.61
3.76
1.98
0.23
-1.58
-3.56
-5.87
-8.71
-12.31
-16.83
-22.27
-28.39
-34.68
-40.37
-44.58
-46.49
-45.47
-41.33
-34.37
-25.34
-15.25
-5.15
4.21
12.43
19.41
25.14
29.52
32.39
33.56
33.06
31.22
28.6
25.83
23.34
21.27
19.5
17.8
16.02
14.09
12.03
9.88
7.72
5.58
3.53
1.55
-0.46
-2.76
-5.68
-9.51
-14.3
-19.9
-25.87
-31.56
-36.17
-38.86
-38.91
-35.89
-29.85
-21.37
-11.46
-1.21
8.43
16.88
23.9
29.42
33.42
35.88
36.82
36.4
34.86
32.54
29.7
26.55
23.24
19.87
16.59
13.45
10.46
7.56
4.71
1.94
-0.65
-2.99
-5.08
-7.05
-9.1
-11.41
-14.07
-17.16
-20.71
-24.77
-29.33
-34.07
-38.37
-41.3
-41.88
-39.43
-33.82
-25.59
-15.67
-5.21
4.83
13.81
21.45
27.68
32.45
35.71
37.44
37.71
36.78
35.01
32.83
30.56
28.34
26.25
24.27
22.49
20.98
19.78
18.76
17.71
16.39
14.65
12.49
10.03
7.41
4.71
1.93
-1.01
-4.25
-7.98
-12.33
-17.3
-22.6
-27.52
-31.11
