0
13.03
14.94
15.36
14.59
13.19
11.82
11.04
11.16
12.17
13.86
15.9
18.0
19.98
21.73
23.24
24.5
25.46
25.94
25.74
24.66
22.65
19.91
16.85
13.98
11.67
10.07
8.95
7.94
6.64
4.86
2.65
0.29
-1.95
-3.88
-5.52
-7.05
-8.73
-10.79
-13.44
-16.78
-20.82
-25.33
-29.85
-33.65
-35.87
-35.74
-32.84
-27.27
-19.65
-10.93
-2.19
5.66
12.03
16.66
19.58
20.98
21.09
20.2
18.6
16.71
14.99
13.88
13.65
14.31
15.63
17.24
18.85
20.29
21.53
22.61
23.48
24.0
23.95
23.18
21.65
19.51
17.0
14.4
11.9
9.63
7.58
5.62
3.54
1.11
-1.84
-5.25
-8.89
-12.44
-15.54
-18.05
-19.99
-21.61
-23.28
-25.43
-28.41
-32.45
-37.49
-43.12
-48.56
-52.73
-54.53
-53.22
-48.65
-41.31
-32.19
-22.5
-13.27
-5.18
1.47
6.71
10.64
13.4
15.06
15.74
15.66
15.17
14.73
14.79
15.59
17.12
19.13
21.27
23.23
24.87
26.19
27.24
28.05
28.55
28.61
28.13
27.08
25.49
23.48
21.2
18.75
16.26
13.78
11.32
8.86
6.33
3.7
0.92
-2.01
-5.01
-7.94
-10.66
-13.02
-15.06
-16.95
-19.06
-21.81
-25.55
-30.35
-35.9
-41.61
-46.63
-50.17
-51.57
-50.41
-46.64
-40.5
-32.53
-23.5
-14.3
-5.76
1.52
7.22
11.33
14.05
15.6
16.21
16.07
15.38
14.47
13.71
13.42
13.76
14.71
16.07
17.58
19.06
20.4
21.56
22.48
23.07
23.14
22.5
21.05
18.84
16.11
13.2
10.47
8.11
6.1
4.19
2.1
-0.34
-3.06
-5.77
-8.15
-10.04
-11.48
-12.73
-14.09
-15.76
-17.87
-20.47
-23.58
-27.18
-31.03
-34.63
-37.12
-37.64
-35.51
-30.64
-23.54
-15.14
-6.55
1.35
7.99
13.09
16.59
18.48
18.84
17.91
16.14
14.13
12.52
11.71
11.85
12.76
14.13
15.63
17.06
18.36
19.52
20.52
21.26
21.63
21.43
20.58
19.05
16.94
14.45
11.81
9.24
6.82
4.5
2.11
-0.55
-3.59
-6.98
-10.54
-14.01
-17.19
-20.03
-22.66
-25.34
-28.38
-32.04
-36.44
-41.55
-47.07
-52.39
-56.61
-58.73
-57.9
-53.77
-46.63
-37.39
-27.28
-17.47
-8.78
-1.59
4.02
8.15
10.83
12.12
12.17
11.34
10.19
9.4
9.46
10.63
12.79
15.54
18.41
20.98
23.04
24.61
25.81
26.77
27.45
27.71
27.32
26.12
24.16
21.67
19.02
16.54
14.4
12.52
10.65
8.49
5.88
2.82
-0.53
-3.92
-7.13
-10.08
-12.76
-15.36
-18.1
-21.28
-25.21
-30.09
-35.88
-42.13
-47.99
-52.31
-53.93
-52.07
-46.59
-38.07
-27.66
-16.7
-6.38
2.57
9.85
15.49
19.67
22.48
24.01
24.37
23.85
22.94
22.23
22.2
23.04
24.56
26.35
27.98
29.25
30.18
30.95
31.68
32.3
32.58
32.27
31.18
29.38
27.06
24.5
21.94
19.47
17.1
14.71
12.19
9.44
6.44
3.19
-0.28
-3.9
-7.54
-11.06
-14.31
-17.22
-19.93
-22.76
-26.16
-30.5
-35.78
-41.56
-46.91
-50.68
-51.77
-49.57
-44.04
-35.79
-25.84
-15.35
-5.35
3.4
10.53
15.85
19.33
21.05
21.19
20.09
18.29
16.46
15.24
15.07
16.03
17.87
20.16
22.46
24.48
26.07
27.19
27.81
27.88
27.3
26.09
24.39
22.39
20.31
18.24
16.07
13.56
10.47
6.7
2.38
-2.11
-6.33
-9.86
-12.55
-14.6
-16.49
-18.83
-22.17
-26.78
-32.51
-38.81
-44.75
-49.2
-51.06
-49.55
-44.4
-36.03
-25.47
-14.08
-3.18
6.26
13.78
19.36
23.17
25.45
26.36
26.15
25.19
24.04
23.29
23.38
24.43
26.22
28.32
30.32
31.94
33.1
33.81
34.1
33.98
33.39
32.28
30.62
28.42
25.75
22.76
19.66
16.6
13.68
10.88
8.03
4.95
1.57
-2.03
-5.66
-9.08
-12.13
-14.79
-17.23
-19.69
-22.49
-25.98
-30.45
-36.03
-42.52
-49.28
-55.22
-59.07
-59.73
-56.59
-49.74
-40.02
-28.69
-17.12
-6.45
2.63
9.91
15.5
19.67
22.65
24.61
25.66
26.04
26.06
26.15
26.68
27.86
29.68
31.92
34.3
36.49
38.25
39.39
39.85
39.67
38.96
37.85
36.4
34.56
32.22
29.3
25.88
22.2
18.54
15.11
11.91
8.84
5.73
2.54
-0.71
-3.93
-7.02
-9.98
-12.8
-15.46
-17.99
-20.46
-23.03
-25.95
-29.45
-33.68
-38.66
-44.13
-49.58
-54.17
-56.91
-56.82
-53.32
-46.48
-37.05
-26.28
-15.52
-5.87
2.02
7.9
11.82
13.93
14.47
13.8
12.39
10.75
9.38
8.6
8.55
9.24
10.57
12.38
14.48
16.62
18.53
20.02
20.95
21.35
21.31
20.97
20.4
19.62
18.55
17.11
15.26
13.01
10.43
7.66
4.78
1.93
-0.83
-3.4
-5.71
-7.73
-9.51
-11.27
-13.39
-16.29
-20.24
-25.09
-30.19
-34.4
-36.5
-35.56
-31.3
-24.22
-15.39
-6.1
2.53
9.79
15.38
19.21
21.29
21.6
20.3
17.75
14.6
11.63
9.57
8.84
9.42
10.94
12.83
14.56
15.86
16.69
17.2
17.55
17.76
17.64
16.96
15.47
13.19
10.34
7.3
4.38
1.72
-0.87
-3.66
-6.89
-10.61
-14.56
-18.38
-21.71
-24.35
-26.34
-27.93
-29.57
-31.81
-35.17
-39.96
-46.06
-52.87
-59.29
-63.98
-65.72
-63.75
-58.03
-49.18
-38.32
-26.78
-15.73
-6.01
1.99
8.22
12.82
16.01
17.94
18.82
18.88
18.53
18.21
18.31
19.01
20.21
21.65
23.05
24.24
25.24
26.16
27.08
27.95
28.54
28.59
27.81
26.07
23.44
20.19
16.73
13.5
10.77
8.57
6.65
4.6
2.07
-1.07
-4.7
-8.49
-12.08
-15.24
-17.93
-20.29
-22.64
-25.36
-28.87
-33.46
-39.07
-45.2
-50.87
-54.86
-56.02
-53.64
-47.7
-38.85
-28.19
-17.01
-6.45
2.66
9.9
15.18
18.68
20.7
21.59
21.65
21.17
20.4
19.66
19.23
19.4
20.29
21.84
23.8
25.8
27.47
28.59
29.1
29.08
28.63
27.76
26.41
24.5
22.02
19.11
15.98
12.85
9.76
6.65
3.39
-0.07
-3.6
-6.99
-9.98
-12.44
-14.42
-16.12
-17.85
-19.91
-22.6
-26.14
-30.54
-35.5
-40.31
-43.96
-45.34
-43.59
-38.47
-30.43
-20.53
-10.09
-0.26
8.19
14.96
20.03
23.45
25.25
25.48
24.35
22.36
20.2
18.57
17.9
18.22
19.23
20.5
21.7
22.73
23.62
24.46
25.26
25.89
26.14
25.71
24.39
22.09
18.92
15.21
11.43
7.97
5.03
2.47
-0.06
-2.95
-6.4
-10.3
-14.34
-18.13
-21.47
-24.36
-27.06
-29.9
-33.28
-37.49
-42.65
-48.55
-54.62
-59.87
-63.09
-63.18
-59.46
-51.95
-41.44
-29.22
-16.79
-5.42
4.09
11.48
16.87
20.62
23.03
24.32
24.62
24.1
23.1
22.12
21.75
22.43
24.24
26.85
29.65
31.99
33.51
34.2
34.34
34.24
34.04
33.61
32.62
30.77
27.99
24.47
20.64
16.95
13.69
10.91
8.43
5.93
3.12
-0.13
-3.78
-7.63
-11.41
-14.92
-18.04
-20.78
-23.3
-25.89
-28.93
-32.83
-37.9
-44.08
-50.77
-56.85
-60.83
-61.39
-57.77
-50.1
-39.33
-26.93
-14.39
-2.86
7.04
15.15
21.54
26.32
29.58
31.39
31.95
31.64
30.94
30.36
30.25
30.74
31.71
32.92
34.11
35.12
35.95
36.67
37.31
37.79
37.86
37.26
35.83
33.61
30.8
27.69
24.51
21.32
18.11
14.81
11.45
8.14
5.02
2.2
-0.37
-2.83
-5.38
-8.15
-11.18
-14.38
-17.58
-20.63
-23.45
-26.1
-28.82
-31.97
-35.88
-40.71
-46.28
-51.97
-56.77
-59.56
-59.34
-55.56
-48.34
-38.4
-26.96
-15.38
-4.83
3.95
10.67
15.43
18.49
20.15
20.64
20.21
19.17
17.9
16.82
16.3
16.51
17.47
19.06
21.05
23.24
25.43
27.42
29.03
30.11
30.51
30.12
28.88
26.82
24.12
21.09
18.04
15.19
12.56
9.96
7.06
3.68
-0.18
-4.28
-8.26
-11.81
-14.79
-17.28
-19.52
-21.9
-24.85
-28.75
-33.71
-39.37
-44.83
-48.77
-49.84
-47.13
-40.54
-30.83
-19.37
-7.71
2.86
11.55
18.04
22.39
24.83
25.66
25.22
23.88
22.07
20.25
18.91
18.4
18.91
20.35
22.37
24.52
26.37
27.68
28.44
28.78
28.83
28.6
28.01
26.97
25.46
23.56
21.45
19.24
16.95
14.48
11.74
8.7
5.51
2.34
-0.62
-3.36
-6.03
-8.84
-11.94
-15.32
-18.8
-22.12
-25.16
-27.94
-30.72
-33.9
-37.83
-42.74
-48.5
-54.61
-60.09
-63.76
-64.42
-61.27
-54.19
-43.87
-31.61
-18.98
-7.34
2.42
9.98
15.48
19.23
21.55
22.7
22.96
22.65
22.21
22.09
22.59
23.81
25.61
27.7
29.86
31.91
33.81
35.5
36.85
37.66
37.73
36.96
35.43
33.34
30.91
28.3
25.57
22.69
19.65
16.46
13.17
9.89
6.69
3.66
0.83
-1.82
-4.42
-7.16
-10.18
-13.5
-16.99
-20.41
-23.52
-26.24
-28.65
-30.98
-33.57
-36.74
-40.75
-45.66
-51.27
-56.92
-61.56
-63.88
-62.78
-57.75
-49.16
-38.16
-26.32
-15.09
-5.51
2.01
7.39
10.83
12.51
12.66
11.58
9.73
7.67
6.0
5.19
5.49
6.9
9.19
11.99
14.95
17.79
20.39
22.67
24.53
25.76
26.12
25.46
23.8
21.41
18.72
16.1
13.75
11.66
9.64
7.5
5.07
2.26
-0.92
-4.38
-7.92
-11.22
-14.0
-16.14
-17.78
-19.33
-21.42
-24.57
-29.02
-34.52
-40.28
-45.12
-47.73
-47.0
-42.46
-34.35
-23.68
-11.86
-0.35
9.69
17.62
23.26
26.75
28.32
28.29
27.04
25.02
22.76
20.73
19.31
18.64
18.67
19.3
20.36
21.72
23.24
24.77
26.09
26.99
27.34
27.11
26.41
25.34
23.92
22.07
19.69
16.72
13.31
9.73
6.33
3.3
0.64
-1.85
-4.46
-7.42
-10.79
-14.46
-18.21
-21.75
-24.93
-27.67
-30.05
-32.3
-34.79
-37.91
-42.04
-47.32
-53.51
-59.92
-65.35
-68.4
-67.8
-62.86
-53.71
-41.41
-27.59
-14.0
-2.08
7.37
14.23
18.78
21.52
22.91
23.3
22.98
22.24
21.43
20.91
21.02
21.9
23.5
25.57
27.79
29.89
31.75
33.41
34.92
36.27
37.3
37.76
37.4
36.15
34.1
31.53
28.73
25.92
23.19
20.53
17.86
15.12
12.27
9.29
6.19
2.94
-0.49
-4.11
-7.96
-12.02
-16.21
-20.27
-23.97
-27.09
-29.67
-32.12
-35.06
-39.13
-44.58
-51.02
-57.33
-62.02
-63.59
-61.07
-54.34
-44.13
-31.8
-18.9
-6.81
3.48
11.51
17.15
20.54
21.96
21.74
20.32
18.26
16.18
14.63
13.93
14.13
15.02
16.27
17.61
18.91
20.19
21.51
22.83
24.02
24.84
25.05
24.48
23.12
21.08
18.61
16.03
13.62
11.53
9.78
8.21
6.57
4.64
2.28
-0.49
-3.5
-6.51
-9.3
-11.77
-13.93
-15.93
-18.08
-20.71
-24.08
-28.21
-32.68
-36.67
-39.07
-38.77
-35.09
-28.04
-18.39
-7.45
3.28
12.6
19.78
24.68
27.52
28.68
28.51
27.3
25.33
22.96
20.65
18.85
17.91
17.93
18.72
19.94
21.21
22.32
23.22
23.99
24.65
25.14
25.27
24.83
23.74
21.99
19.75
17.16
14.38
11.47
8.52
5.57
2.68
-0.2
-3.16
-6.35
-9.84
-13.59
-17.37
-20.84
-23.76
-26.05
-27.89
-29.66
-31.84
-34.86
-38.94
-44.08
-49.86
-55.52
-59.96
-61.98
-60.57
-55.27
-46.35
-34.84
-22.22
-10.04
0.47
8.66
14.37
17.88
19.6
19.98
19.45
18.42
17.27
16.36
15.95
16.17
17.03
18.48
20.41
22.69
25.12
27.48
29.49
30.96
31.79
31.96
31.51
30.48
28.86
26.69
24.08
21.21
18.29
15.49
12.83
10.27
7.75
5.28
2.93
0.71
-1.47
-3.79
-6.44
-9.46
-12.72
-15.9
-18.75
-21.13
-23.13
-25.07
-27.38
-30.51
-34.75
-40.11
-46.17
-52.07
-56.54
-58.29
-56.34
-50.43
-41.12
-29.65
-17.56
-6.26
3.24
10.53
15.61
18.76
20.39
20.8
20.26
19.04
17.44
15.89
14.83
14.6
15.33
16.88
18.88
20.92
22.72
24.21
25.45
26.54
27.47
28.13
28.3
27.74
26.33
24.06
21.07
17.6
13.96
10.44
7.26
4.47
1.95
-0.5
-3.09
-5.95
-9.08
-12.36
-15.6
-18.62
-21.26
-23.49
-25.4
-27.2
-29.22
-31.79
-35.14
-39.26
-43.78
-47.91
-50.62
-50.8
-47.64
-40.93
-31.18
-19.53
-7.49
3.51
12.44
18.83
22.73
24.51
24.64
23.54
21.64
19.37
17.21
15.66
15.04
15.45
16.72
18.5
20.4
22.15
23.62
24.81
25.8
26.62
27.23
27.45
27.03
25.76
23.56
20.54
17.04
13.47
10.16
7.19
4.44
1.62
-1.51
-5.05
-8.88
-12.81
-16.58
-20.04
-23.14
-25.95
-28.67
-31.58
-35.03
-39.31
-44.51
-50.37
-56.16
-60.77
-62.96
-61.75
-56.67
-48.02
-36.77
-24.31
-12.09
-1.24
7.59
14.2
18.74
21.45
22.61
22.48
21.43
19.94
18.61
17.99
18.42
19.92
22.25
25.02
27.81
30.32
32.37
33.88
34.85
35.27
35.22
34.72
33.81
32.47
30.66
28.37
25.64
22.59
19.39
16.21
13.17
10.34
7.66
5.01
2.24
-0.82
-4.24
-7.94
-11.71
-15.29
-18.52
-21.44
-24.29
-27.39
-31.12
-35.71
-41.16
-47.14
-52.95
-57.47
-59.44
-57.78
-51.95
-42.27
-29.88
-16.45
-3.62
7.38
15.96
22.08
26.01
28.09
28.63
27.96
26.47
24.66
23.06
22.07
21.9
22.54
23.87
25.69
27.84
30.11
32.29
34.14
35.44
36.07
35.98
35.21
33.8
31.84
29.45
26.82
24.12
21.48
18.93
16.36
13.67
10.82
7.88
4.96
2.12
-0.71
-3.64
-6.76
-10.06
-13.41
-16.65
-19.72
-22.72
-25.85
-29.43
-33.68
-38.66
-44.11
-49.38
-53.47
-55.27
-53.87
-48.91
-40.75
-30.36
-19.01
-7.9
2.05
10.31
16.57
20.71
22.78
22.96
21.7
19.67
17.56
15.99
15.31
15.58
16.66
18.23
20.02
21.82
23.53
25.09
26.46
27.54
28.19
28.21
27.47
25.9
23.59
20.75
17.68
14.7
12.06
9.86
8.03
6.27
4.24
1.66
-1.52
-5.1
-8.69
-11.91
-14.56
-16.67
-18.48
-20.32
-22.53
-25.42
-29.21
-34.03
-39.68
-45.54
-50.49
-53.2
-52.54
-47.98
-39.86
-29.27
-17.73
-6.66
2.9
10.45
15.94
19.51
21.45
22.05
21.7
20.85
19.96
19.44
19.49
20.15
21.26
22.61
24.0
25.33
26.58
27.83
29.09
30.28
31.22
31.65
31.34
30.18
28.24
25.76
23.06
20.42
17.98
15.73
13.52
11.21
8.73
6.1
3.43
0.88
-1.48
-3.67
-5.8
-8.06
-10.6
-13.45
-16.53
-19.68
-22.69
-25.46
-28.03
-30.55
-33.3
-36.61
-40.72
-45.69
-51.15
-56.28
-59.88
-60.66
-57.72
-50.86
-40.78
-28.85
-16.71
-5.77
3.12
9.71
14.2
16.93
18.29
18.6
18.22
17.53
16.93
16.78
17.24
18.33
19.87
21.65
23.46
25.2
26.84
28.44
29.99
31.42
32.5
32.91
32.4
30.91
28.67
26.1
23.7
21.76
20.29
19.07
17.73
15.99
13.75
11.13
8.34
5.64
3.2
1.07
-0.88
-2.86
-5.13
-7.86
-11.07
-14.56
-18.07
-21.38
-24.42
-27.27
-30.21
-33.52
-37.51
-42.27
-47.62
-52.92
-57.12
-58.98
-57.45
-52.14
-43.48
-32.7
-21.38
-10.97
-2.42
3.96
8.33
11.07
12.56
13.09
12.89
12.21
11.31
10.46
9.9
9.79
10.18
11.06
12.35
13.92
15.63
17.34
18.89
20.12
20.83
20.86
20.12
18.71
16.87
14.92
13.15
11.7
10.47
9.29
7.95
6.37
4.6
2.78
0.99
-0.72
-2.38
-4.03
-5.69
-7.37
-9.08
-10.84
-12.64
-14.44
-16.19
-17.9
-19.71
-21.88
-24.69
-28.27
-32.41
-36.52
-39.71
-40.99
-39.65
-35.34
-28.31
-19.3
-9.41
0.22
8.59
15.13
19.66
22.33
23.45
23.34
22.31
20.67
18.79
17.05
15.79
15.2
15.29
15.94
17.01
18.39
20.01
21.77
23.45
24.78
25.51
25.53
24.89
23.74
22.24
20.5
18.61
16.59
14.51
12.37
10.08
7.56
4.8
1.88
-0.95
-3.48
-5.61
-7.47
-9.37
-11.59
-14.22
-17.1
-19.94
-22.47
-24.63
-26.59
-28.66
-31.19
-34.48
-38.65
-43.63
-48.95
-53.81
-57.07
-57.6
-54.63
-48.05
-38.47
-27.09
-15.31
-4.38
4.83
11.89
16.72
19.55
20.73
20.68
19.86
18.69
17.53
16.72
16.46
16.88
17.96
19.54
21.4
23.34
25.25
27.1
28.84
30.36
31.39
31.7
31.15
29.81
27.91
25.73
23.49
21.29
19.18
17.12
15.08
12.99
10.8
8.49
6.11
3.83
1.77
0.0
-1.64
-3.43
-5.65
-8.45
-11.68
-15.0
-18.06
-20.68
-22.95
-25.23
-28.0
-31.63
-36.15
-41.21
-46.09
-49.81
-51.36
-49.97
-45.28
-37.46
-27.2
-15.6
-3.98
6.45
14.8
20.63
23.98
25.23
24.95
23.69
21.88
19.92
18.14
16.87
16.31
16.49
17.29
18.48
19.83
21.26
22.77
24.3
25.74
26.85
27.34
27.05
26.03
24.48
22.67
20.82
18.99
17.15
15.23
13.15
10.87
8.41
5.83
3.26
0.84
-1.31
-3.17
-4.85
-6.61
-8.66
-11.13
-13.94
-16.86
-19.59
-21.92
-23.81
-25.41
-27.04
-29.05
-31.76
-35.27
-39.36
-43.38
-46.37
-47.24
-45.17
-39.88
-31.78
-21.85
-11.36
-1.49
6.92
13.4
17.83
20.27
20.92
20.1
18.27
15.96
13.73
11.98
10.94
10.66
11.05
12.0
13.4
15.13
17.04
18.94
20.64
21.92
22.67
22.81
22.32
21.25
19.65
17.6
15.16
12.45
9.58
6.74
4.09
1.74
-0.31
-2.19
-4.13
-6.33
-8.91
-11.82
-14.89
-17.89
-20.64
-23.02
-25.04
-26.82
-28.6
-30.73
-33.62
-37.45
-42.1
-46.93
-50.89
-52.8
-51.72
-47.27
-39.74
-30.05
-19.4
-9.02
0.17
7.59
13.08
16.73
18.77
19.45
19.05
17.88
16.31
14.77
13.66
13.24
13.6
14.67
16.3
18.28
20.44
22.6
24.53
26.02
26.87
27.03
26.53
25.51
24.08
22.33
20.27
17.96
15.46
12.88
10.37
8.05
5.94
3.98
2.06
-0.01
-2.39
-5.17
-8.35
-11.75
-15.13
-18.19
-20.75
-22.78
-24.48
-26.21
-28.42
-31.53
-35.8
-41.11
-46.94
-52.31
-55.94
-56.68
-53.74
-47.09
-37.4
-25.93
-14.13
-3.26
5.82
12.76
17.58
20.54
22.03
22.42
22.11
21.47
20.82
20.42
20.46
20.99
22.01
23.41
25.06
26.8
28.54
30.18
31.64
32.81
33.53
33.6
32.9
31.4
29.23
26.63
23.85
21.08
18.39
15.74
13.09
10.41
7.74
5.17
2.82
0.76
-1.02
-2.64
-4.32
-6.29
-8.67
-11.43
-14.37
-17.24
-19.88
-22.34
-24.8
-27.58
-30.97
-35.11
-39.97
-45.24
-50.35
-54.43
-56.49
-55.64
-51.43
-44.06
-34.37
-23.64
-13.18
-4.0
3.38
8.84
12.52
14.66
15.45
15.15
14.1
12.78
11.68
11.26
11.74
13.12
15.22
17.78
20.51
23.19
25.64
27.72
29.35
30.48
31.08
31.09
30.45
29.1
27.04
24.42
21.49
18.52
15.75
13.23
10.83
8.29
5.35
1.9
-2.02
-6.18
-10.21
-13.78
-16.69
-18.97
-20.85
-22.78
-25.25
-28.65
-33.12
-38.48
-44.11
-49.01
-51.97
-51.92
-48.18
-40.82
-30.72
-19.25
-7.94
1.97
9.83
15.51
19.29
21.59
22.8
23.19
23.05
22.62
22.17
21.93
22.06
22.66
23.76
25.31
27.2
29.26
31.25
32.91
34.03
34.48
34.24
33.35
31.94
30.13
28.03
25.73
23.3
20.76
18.11
15.36
12.53
9.67
6.86
4.18
1.65
-0.77
-3.19
-5.72
-8.43
-11.33
-14.37
-17.45
-20.51
-23.52
-26.58
-29.88
-33.69
-38.21
-43.42
-48.94
-53.93
-57.28
-57.9
-55.02
-48.54
-39.04
-27.66
-15.74
-4.49
5.2
12.9
18.5
22.15
24.08
24.62
24.18
23.25
22.34
21.88
22.16
23.21
24.93
27.1
29.57
32.18
34.8
37.16
38.95
39.96
40.09
39.52
38.52
37.35
36.05
34.5
32.5
29.97
26.97
23.7
20.32
16.94
13.53
10.12
6.83
3.87
1.38
-0.63
-2.42
-4.34
-6.72
-9.7
-13.14
-16.74
-20.18
-23.24
-25.93
-28.45
-31.11
-34.23
-38.08
-42.68
-47.76
-52.61
-56.23
-57.48
-55.45
-49.85
-41.14
-30.41
-19.13
-8.68
-0.01
6.43
10.68
13.0
13.7
13.09
11.51
9.33
7.05
5.19
4.18
4.19
5.17
6.87
8.96
11.24
13.58
15.94
18.25
20.36
22.07
23.22
23.68
23.4
22.36
20.59
18.23
15.53
12.86
10.58
8.89
7.73
6.79
5.63
3.95
1.65
-1.07
-3.87
-6.45
-8.66
-10.54
-12.32
-14.29
-16.77
-20.0
-24.05
-28.75
-33.59
-37.76
-40.3
-40.32
-37.33
-31.39
-23.14
-13.69
-4.18
4.38
11.42
16.7
20.27
22.29
22.9
22.24
20.57
18.28
15.88
13.92
12.85
12.89
14.0
15.93
18.28
20.63
22.59
23.91
24.5
24.4
23.79
22.86
21.78
20.63
19.39
18.05
16.54
14.83
12.87
10.58
7.95
5.02
1.92
-1.15
-4.0
-6.53
-8.8
-10.94
-13.11
-15.39
-17.76
-20.18
-22.66
-25.27
-28.18
-31.55
-35.53
-40.15
-45.28
-50.56
-55.28
-58.49
-59.13
-56.45
-50.31
-41.29
-30.54
-19.44
-9.14
-0.38
6.54
11.61
14.96
16.75
17.24
16.84
16.0
15.23
14.88
15.12
15.98
17.38
19.2
21.33
23.65
26.0
28.23
30.16
31.59
32.34
32.29
31.42
29.85
27.83
25.61
23.41
21.35
19.36
17.36
15.24
12.99
10.68
8.41
6.24
4.22
2.32
0.48
-1.37
-3.28
-5.33
-7.53
-9.9
-12.4
-15.02
-17.79
-20.82
-24.32
-28.51
-33.6
-39.56
-45.98
-52.02
-56.52
-58.27
-56.4
-50.73
-41.85
-30.97
-19.58
-8.95
0.07
7.13
12.23
15.54
17.27
17.66
17.05
15.89
14.63
13.63
13.14
13.21
13.8
14.84
16.23
17.91
19.74
21.54
23.11
24.31
25.02
25.24
24.92
24.06
22.6
20.57
18.07
15.29
12.46
9.71
7.17
4.84
2.67
0.62
-1.36
-3.29
-5.21
-7.09
-8.89
-10.54
-11.97
-13.16
-14.18
-15.17
-16.36
-18.02
-20.41
-23.64
-27.6
-31.82
-35.46
-37.48
-36.95
-33.37
-26.91
-18.31
-8.71
0.74
9.18
16.06
21.17
24.47
26.03
26.02
24.73
22.53
19.93
17.41
15.44
14.34
14.27
15.15
16.76
18.72
20.66
22.27
23.36
23.86
23.74
23.01
21.74
20.04
18.08
16.05
14.06
12.09
10.07
7.9
5.57
3.13
0.63
-1.87
-4.38
-6.91
-9.44
-11.92
-14.26
-16.42
-18.38
-20.22
-22.02
-23.96
-26.29
-29.31
-33.28
-38.26
-43.93
-49.57
-54.17
-56.66
-56.18
-52.39
-45.51
-36.23
-25.57
-14.64
-4.41
4.34
11.2
16.0
18.87
20.09
20.08
19.27
18.08
16.88
15.98
15.59
15.82
16.66
18.04
19.81
21.78
23.8
25.68
27.31
28.6
29.48
29.88
29.73
28.97
27.59
25.66
23.33
20.8
18.24
15.72
13.27
10.89
8.57
6.34
4.22
2.17
0.09
-2.14
-4.63
-7.43
-10.44
-13.56
-16.62
-19.52
-22.24
-24.91
-27.79
-31.18
-35.3
-40.12
-45.23
-49.82
-52.8
-53.08
-49.98
-43.38
-33.92
-22.71
-11.16
-0.5
8.4
15.14
19.74
22.45
23.62
23.59
22.69
21.24
19.56
17.94
16.67
15.96
15.99
16.79
18.32
20.38
22.67
24.85
26.6
27.73
28.18
27.95
27.12
25.75
23.88
21.56
18.9
16.07
13.24
10.57
8.13
5.85
3.6
1.24
-1.31
-4.05
-6.9
-9.72
-12.38
-14.81
-16.97
-18.87
-20.63
-22.44
-24.57
-27.32
-30.89
-35.25
-40.12
-44.89
-48.76
-50.87
-50.51
-47.23
-41.06
-32.46
-22.33
-11.76
-1.8
6.79
13.59
18.55
21.8
23.54
23.96
23.27
21.76
19.82
17.95
16.59
16.07
16.49
17.72
19.46
21.3
22.92
24.12
24.86
25.2
25.26
25.0
24.33
23.06
21.13
18.6
15.68
12.67
9.75
7.0
4.36
1.71
-1.0
-3.71
-6.36
-8.9
-11.35
-13.74
-16.12
-18.48
-20.79
-23.06
-25.46
-28.23
-31.66
-35.92
-40.89
-46.07
-50.59
-53.37
-53.39
-50.03
-43.27
-33.76
-22.64
-11.2
-0.65
8.23
15.06
19.86
22.85
24.35
24.7
24.21
23.22
22.06
21.1
20.69
21.05
22.25
24.16
26.43
28.65
30.49
31.75
32.39
32.49
32.1
31.23
29.89
28.11
25.95
23.47
20.71
17.7
14.52
11.28
8.22
5.51
3.26
1.37
-0.4
-2.34
-4.68
-7.48
-10.63
-13.91
-17.09
-19.98
-22.46
-24.56
-26.46
-28.48
-31.09
-34.67
-39.42
-45.11
-51.01
-55.98
-58.73
-58.18
-53.79
-45.78
-35.09
-23.04
-11.07
-0.33
8.46
15.05
19.57
22.32
23.7
24.13
24.02
23.77
23.71
24.02
24.75
25.82
27.08
28.4
29.65
30.76
31.69
32.41
32.9
33.12
33.03
32.54
31.56
30.02
27.91
25.35
22.48
19.48
16.47
13.51
10.6
7.77
5.1
2.68
0.56
-1.3
-3.06
-4.92
-7.08
-9.62
-12.49
-15.54
-18.53
-21.27
-23.67
-25.8
-27.98
-30.59
-34.01
-38.35
-43.33
-48.24
-52.07
-53.73
-52.42
-47.82
-40.25
-30.58
-20.04
-9.91
-1.25
5.32
9.65
11.98
12.76
12.48
11.61
10.52
9.52
8.93
8.96
9.74
11.27
13.38
15.82
18.29
20.5
22.29
23.6
24.52
25.17
25.57
25.65
25.2
23.96
21.86
19.05
15.93
12.94
10.4
8.31
6.43
4.37
1.86
-1.14
-4.42
-7.69
-10.67
-13.23
-15.46
-17.63
-20.07
-23.1
-26.93
-31.52
-36.58
-41.49
-45.41
-47.39
-46.61
-42.65
-35.63
-26.31
-15.83
-5.51
3.56
10.76
15.98
19.43
21.45
22.29
22.1
21.1
19.6
18.12
17.19
17.18
18.14
19.82
21.8
23.68
25.24
26.38
27.12
27.52
27.59
27.33
26.74
25.81
24.51
22.8
20.66
18.14
15.37
12.5
9.68
6.98
4.38
1.84
-0.65
-3.11
-5.57
-8.05
-10.61
-13.24
-15.92
-18.57
-21.15
-23.7
-26.39
-29.47
-33.19
-37.66
-42.71
-47.84
-52.26
-54.95
-55.01
-51.84
-45.44
-36.38
-25.7
-14.61
-4.18
4.82
12.01
17.31
20.88
22.98
23.94
24.13
23.9
23.61
23.54
23.84
24.6
25.8
27.3
28.9
30.39
31.57
32.3
32.54
32.28
31.55
30.35
28.72
26.71
24.46
22.07
19.63
17.19
14.71
12.15
9.58
7.04
4.61
2.3
0.03
-2.26
-4.63
-7.07
-9.57
-12.07
-14.6
-17.2
-19.89
-22.63
-25.42
-28.31
-31.48
-35.16
-39.51
-44.37
-49.21
-53.18
-55.3
-54.76
-51.19
-44.77
-36.2
-26.51
-16.76
-7.85
-0.34
5.54
9.73
12.35
13.52
13.47
12.56
11.28
10.27
10.0
10.77
12.52
14.99
17.77
20.48
22.85
24.75
26.16
27.08
27.53
27.51
26.97
25.86
24.12
21.82
19.1
16.18
13.3
10.63
8.15
5.71
3.1
0.09
-3.36
-7.12
-10.88
-14.28
-17.06
-19.17
-20.89
-22.7
-25.16
-28.68
-33.36
-38.8
-44.21
-48.49
-50.56
-49.58
-45.23
-37.79
-28.12
-17.43
-6.92
2.42
10.04
15.79
19.83
22.4
23.73
24.01
23.43
22.28
20.95
19.86
19.37
19.6
20.49
21.81
23.33
24.89
26.41
27.85
29.08
29.93
30.18
29.66
28.33
26.31
23.79
21.0
18.09
15.15
12.22
9.38
6.71
4.26
2.05
-0.06
-2.31
-4.95
-8.16
-11.86
-15.77
-19.51
-22.72
-25.29
-27.36
-29.33
-31.66
-34.75
-38.8
-43.74
-49.12
-54.13
-57.68
-58.66
-56.17
-49.92
-40.36
-28.58
-16.02
-4.09
6.18
14.29
20.16
24.03
26.24
27.21
27.37
27.16
26.98
27.09
27.56
28.28
29.08
29.78
30.37
30.89
31.47
32.16
32.92
33.58
33.93
33.73
32.88
31.38
29.37
26.97
24.28
21.36
18.25
15.01
11.79
8.76
5.99
3.46
1.04
-1.38
-3.89
-6.5
-9.19
-11.95
-14.74
-17.53
-20.22
-22.75
-25.16
-27.62
-30.46
-34.02
-38.44
-43.57
-48.88
-53.52
-56.48
-56.84
-53.93
-47.62
-38.38
-27.24
-15.55
-4.63
4.58
11.65
16.58
19.66
21.2
21.55
21.0
19.89
18.63
17.63
17.22
17.5
18.38
19.6
20.89
22.06
23.07
23.98
24.86
25.68
26.3
26.42
25.75
24.17
21.73
18.73
15.56
12.53
9.83
7.38
4.97
2.35
-0.63
-4.0
-7.6
-11.19
-14.49
-17.34
-19.71
-21.77
-23.83
-26.25
-29.31
-33.19
-37.82
-42.9
-47.81
-51.76
-53.79
-53.08
-49.11
-41.97
-32.33
-21.35
-10.29
-0.24
8.17
14.79
19.7
23.07
24.99
25.57
25.06
23.86
22.54
21.65
21.56
22.37
23.94
25.97
28.12
30.04
31.48
32.28
32.43
32.03
31.27
30.3
29.21
27.96
26.44
24.57
22.32
19.74
16.9
13.88
10.73
7.55
4.46
1.55
-1.19
-3.84
-6.54
-9.44
-12.56
-15.83
-19.1
-22.25
-25.23
-28.15
-31.19
-34.6
-38.53
-43.02
-47.83
-52.41
-55.9
-57.29
-55.69
-50.68
-42.43
-31.78
-19.98
-8.36
2.01
10.51
16.97
21.57
24.63
26.47
27.37
27.58
27.34
26.89
26.54
26.54
27.06
28.16
29.74
31.58
33.4
34.94
36.02
36.5
36.34
35.54
34.18
32.4
30.4
28.32
26.21
23.98
21.46
18.49
15.06
11.32
7.56
4.06
1.03
-1.54
-3.79
-5.99
-8.37
-11.03
-13.92
-16.85
-19.63
-22.16
-24.5
-26.88
-29.52
-32.64
-36.27
-40.31
-44.53
-48.54
-51.78
-53.53
-53.04
-49.75
-43.57
-35.01
-25.09
-15.04
-5.92
1.6
7.3
11.26
13.65
14.68
14.57
13.62
12.25
10.93
10.06
9.91
10.56
11.9
13.74
15.81
17.84
19.64
21.11
22.25
23.1
23.59
23.6
22.9
21.39
19.15
16.42
13.59
10.94
8.57
6.37
4.1
1.55
-1.34
-4.44
-7.55
-10.4
-12.85
-14.87
-16.56
-18.13
-19.91
-22.21
-25.3
-29.25
-33.84
-38.5
-42.39
-44.55
-44.14
-40.68
-34.24
-25.41
-15.2
-4.79
4.73
12.55
18.23
21.71
23.24
23.23
22.21
20.73
19.3
18.33
18.06
18.5
19.46
20.63
21.71
22.52
23.08
23.55
24.13
24.92
25.83
26.58
26.8
26.18
24.54
21.91
18.56
14.88
11.3
8.18
5.67
3.67
1.9
0.03
-2.22
-4.97
-8.1
-11.42
-14.63
-17.53
-20.08
-22.31
-24.41
-26.59
-29.12
-32.29
-36.28
-41.06
-46.27
-51.11
-54.51
-55.37
-52.92
-47.0
-38.15
-27.48
-16.32
-5.86
3.08
10.12
15.21
18.52
20.26
20.73
20.31
19.44
18.57
18.1
18.25
19.07
20.44
22.19
24.12
26.04
27.76
29.15
30.08
30.54
30.59
30.3
29.71
28.75
27.36
25.48
23.18
20.62
17.98
15.38
12.88
10.48
8.18
6.04
4.1
2.31
0.54
-1.39
-3.65
-6.25
-9.07
-11.92
-14.65
-17.26
-19.94
-23.03
-26.89
-31.72
-37.42
-43.45
-48.9
-52.67
-53.79
-51.65
-46.2
-37.92
-27.71
-16.7
-6.03
3.3
10.61
15.58
18.31
19.19
18.75
17.57
16.1
14.69
13.6
13.01
13.04
13.69
14.84
16.31
17.87
19.35
20.61
21.54
22.03
22.02
21.49
20.48
19.04
17.24
15.09
12.65
9.97
7.24
4.64
2.35
0.42
-1.24
-2.8
-4.42
-6.18
-8.06
-9.92
-11.64
-13.16
-14.5
-15.8
-17.24
-19.06
-21.41
-24.36
-27.8
-31.4
-34.55
-36.46
-36.33
-33.56
-28.06
-20.33
-11.31
-2.17
6.07
12.77
17.73
21.02
22.82
23.28
22.56
20.89
18.69
16.51
14.87
14.07
14.16
14.92
16.07
17.37
18.68
19.92
21.04
21.92
22.41
22.39
21.79
20.67
19.13
17.24
15.03
12.51
9.69
6.65
3.55
0.59
-2.1
-4.48
-6.69
-8.94
-11.45
-14.3
-17.42
-20.58
-23.45
-25.83
-27.77
-29.56
-31.67
-34.57
-38.52
-43.34
-48.43
-52.87
