0
13.53
12.96
12.13
11.28
10.64
10.42
10.77
11.74
13.19
14.85
16.36
17.39
17.8
17.62
17.07
16.41
15.81
15.26
14.64
13.74
12.42
10.65
8.52
6.22
3.94
1.78
-0.21
-2.1
-3.99
-5.97
-8.16
-10.63
-13.47
-16.67
-20.03
-23.15
-25.42
-26.21
-25.07
-21.96
-17.27
-11.7
-5.98
-0.65
4.04
8.0
11.18
13.45
14.66
14.73
13.82
12.32
10.72
9.42
8.6
8.25
8.24
8.42
8.73
9.14
9.62
10.13
10.56
10.79
10.68
10.13
9.02
7.32
5.09
2.51
-0.14
-2.59
-4.69
-6.49
-8.24
-10.21
-12.63
-15.55
-18.83
-22.13
-24.98
-26.88
-27.39
-26.27
-23.53
-19.47
-14.57
-9.38
-4.33
0.3
4.4
7.88
10.64
12.51
13.34
13.1
11.98
10.31
8.58
7.2
6.44
6.32
6.65
7.15
7.56
7.72
7.62
7.34
7.03
6.79
6.62
6.41
5.98
5.11
3.64
1.61
-0.82
-3.34
-5.67
-7.66
-9.33
-10.84
-12.43
-14.32
-16.66
-19.5
-22.71
-25.97
-28.72
-30.29
-30.1
-27.84
-23.64
-18.0
-11.67
-5.37
0.34
5.14
8.89
11.56
13.18
13.85
13.72
12.99
11.9
10.7
9.63
8.9
8.67
8.99
9.73
10.64
11.43
11.92
12.11
12.16
12.25
12.45
12.61
12.42
11.58
9.99
7.81
5.36
3.0
0.91
-0.92
-2.67
-4.54
-6.68
-9.13
-11.82
-14.68
-17.59
-20.36
-22.72
-24.3
-24.68
-23.56
-20.83
-16.63
-11.36
-5.57
0.16
5.37
9.73
13.09
15.42
16.79
17.31
17.12
16.4
15.39
14.32
13.43
12.85
12.57
12.43
12.25
11.95
11.58
11.31
11.31
11.63
12.12
12.48
12.39
11.64
10.19
8.16
5.74
3.17
0.65
-1.7
-3.84
-5.86
-7.98
-10.47
-13.5
-17.05
-20.8
-24.21
-26.69
-27.77
-27.19
-24.96
-21.27
-16.5
-11.08
-5.48
-0.2
4.34
7.84
10.12
11.18
11.18
10.34
9.02
7.56
6.29
5.46
5.15
5.31
5.76
6.3
6.74
6.95
6.88
6.48
5.78
4.8
3.6
2.22
0.71
-0.91
-2.59
-4.28
-5.96
-7.67
-9.53
-11.72
-14.37
-17.47
-20.8
-23.91
-26.24
-27.3
-26.81
-24.74
-21.31
-16.94
-12.05
-7.03
-2.17
2.27
6.07
9.04
11.05
12.06
12.22
11.78
11.05
10.31
9.7
9.27
9.03
8.93
8.96
9.09
9.3
9.55
9.76
9.84
9.68
9.12
8.04
6.41
4.32
1.93
-0.51
-2.79
-4.81
-6.58
-8.22
-9.95
-11.98
-14.55
-17.75
-21.49
-25.35
-28.71
-30.84
-31.2
-29.54
-26.0
-21.03
-15.17
-8.98
-2.91
2.67
7.47
11.27
13.94
15.51
16.12
16.02
15.5
14.86
14.28
13.88
13.64
13.47
13.27
13.05
12.91
13.04
13.54
14.32
15.09
15.4
14.94
13.6
11.56
9.15
6.74
4.51
2.49
0.61
-1.21
-2.99
-4.82
-6.84
-9.29
-12.4
-16.17
-20.24
-23.92
-26.38
-26.98
-25.45
-21.99
-17.11
-11.39
-5.34
0.67
6.34
11.33
15.3
18.0
19.38
19.63
19.11
18.22
17.29
16.47
15.79
15.23
14.73
14.31
14.0
13.85
13.91
14.15
14.44
14.57
14.32
13.52
12.14
10.33
8.28
6.15
3.98
1.72
-0.68
-3.26
-6.02
-8.98
-12.25
-15.89
-19.84
-23.8
-27.21
-29.45
-30.03
-28.77
-25.83
-21.61
-16.55
-11.03
-5.38
0.11
5.08
9.18
12.1
13.66
13.9
13.06
11.54
9.81
8.3
7.3
6.88
6.94
7.26
7.65
7.97
8.14
8.07
7.64
6.75
5.36
3.62
1.75
0.04
-1.39
-2.59
-3.79
-5.26
-7.21
-9.72
-12.75
-16.18
-19.79
-23.25
-26.08
-27.71
-27.67
-25.7
-21.96
-16.93
-11.28
-5.69
-0.61
3.73
7.26
10.01
11.95
13.06
13.34
12.89
11.94
10.8
9.75
8.99
8.53
8.3
8.18
8.08
7.96
7.85
7.8
7.76
7.62
7.21
6.33
4.93
3.04
0.89
-1.27
-3.23
-4.91
-6.43
-8.04
-10.02
-12.59
-15.8
-19.48
-23.27
-26.62
-28.93
-29.66
-28.44
-25.25
-20.34
-14.26
-7.65
-1.17
4.69
9.55
13.19
15.57
16.77
17.0
16.57
15.77
14.85
13.96
13.19
12.55
12.07
11.69
11.42
11.2
11.06
11.05
11.23
11.55
11.88
11.95
11.51
10.41
8.65
6.4
3.91
1.43
-0.88
-3.01
-5.04
-7.2
-9.7
-12.68
-16.09
-19.7
-23.05
-25.63
-26.99
-26.79
-24.94
-21.48
-16.67
-10.86
-4.47
2.0
8.04
13.18
17.07
19.51
20.48
20.22
19.09
17.58
16.13
15.05
14.45
14.31
14.5
14.89
15.34
15.72
15.9
15.81
15.43
14.82
14.07
13.23
12.27
11.09
9.55
7.61
5.31
2.76
0.08
-2.67
-5.47
-8.33
-11.24
-14.21
-17.21
-20.15
-22.83
-24.92
-25.95
-25.54
-23.45
-19.83
-15.1
-9.82
-4.54
0.38
4.76
8.48
11.4
13.33
14.1
13.66
12.18
10.03
7.65
5.47
3.76
2.65
2.13
2.15
2.62
3.42
4.35
5.14
5.56
5.43
4.77
3.7
2.42
1.05
-0.39
-2.0
-3.94
-6.32
-9.18
-12.47
-16.02
-19.52
-22.59
-24.77
-25.6
-24.77
-22.22
-18.18
-13.1
-7.59
-2.23
2.5
6.28
8.99
10.65
11.36
11.28
10.57
9.39
7.93
6.42
5.13
4.26
3.84
3.73
3.65
3.34
2.66
1.65
0.5
-0.61
-1.57
-2.4
-3.2
-4.07
-5.12
-6.45
-8.16
-10.34
-13.08
-16.34
-19.94
-23.5
-26.5
-28.36
-28.62
-27.04
-23.73
-19.06
-13.6
-7.88
-2.34
2.79
7.37
11.27
14.33
16.36
17.27
17.09
16.06
14.49
12.75
11.17
9.95
9.21
8.96
9.13
9.55
10.02
10.33
10.3
9.78
8.73
7.18
5.23
3.01
0.69
-1.63
-3.89
-6.14
-8.5
-11.08
-13.92
-16.84
-19.47
-21.26
-21.65
-20.26
-17.04
-12.27
-6.48
-0.3
5.7
11.11
15.63
19.02
21.11
21.84
21.31
19.87
18.01
16.26
14.95
14.21
13.92
13.8
13.62
13.19
12.47
11.48
10.31
8.99
7.6
6.15
4.64
3.07
1.36
-0.52
-2.62
-4.96
-7.57
-10.54
-13.82
-17.29
-20.55
-23.06
-24.25
-23.72
-21.38
-17.48
-12.49
-6.96
-1.4
3.75
8.13
11.44
13.47
14.17
13.68
12.31
10.46
8.53
6.83
5.54
4.74
4.4
4.41
4.59
4.73
4.7
4.39
3.8
3.0
2.08
1.12
0.13
-0.91
-2.12
-3.66
-5.65
-8.17
-11.13
-14.25
-17.06
-18.95
-19.39
-17.99
-14.75
-9.95
-4.19
1.84
7.48
12.21
15.75
18.0
18.97
18.78
17.55
15.43
12.67
9.57
6.54
3.99
2.21
1.28
1.06
1.22
1.37
1.22
0.65
-0.29
-1.53
-2.99
-4.68
-6.63
-8.85
-11.28
-13.86
-16.59
-19.54
-22.74
-26.0
-28.84
-30.54
-30.34
-27.8
-22.94
-16.28
-8.65
-0.88
6.32
12.51
17.41
20.89
22.9
23.48
22.8
21.16
18.95
16.59
14.47
12.83
11.79
11.31
11.21
11.28
11.27
11.02
10.4
9.4
8.05
6.42
4.61
2.74
0.85
-1.06
-3.08
-5.37
-8.12
-11.42
-15.26
-19.36
-23.21
-26.14
-27.4
-26.45
-23.09
-17.6
-10.64
-3.05
4.36
11.0
16.54
20.83
23.78
25.35
25.56
24.62
22.92
20.98
19.27
18.08
17.42
17.07
16.77
16.36
15.82
15.24
14.7
14.21
13.64
12.83
11.65
10.07
8.17
6.06
3.83
1.5
-0.92
-3.44
-6.03
-8.69
-11.51
-14.63
-18.13
-21.95
-25.71
-28.82
-30.54
-30.29
-27.78
-23.16
-16.89
-9.71
-2.38
4.43
10.17
14.47
17.17
18.23
17.85
16.34
14.17
11.78
9.59
7.86
6.7
6.06
5.8
5.77
5.85
5.97
6.06
6.06
5.87
5.39
4.61
3.53
2.21
0.7
-0.99
-2.88
-4.95
-7.16
-9.45
-11.8
-14.27
-16.96
-19.85
-22.73
-25.11
-26.33
-25.82
-23.27
-18.78
-12.85
-6.17
0.53
6.64
11.72
15.52
17.92
18.98
18.86
17.81
16.15
14.19
12.22
10.43
9.02
8.06
7.58
7.5
7.68
7.92
8.03
7.93
7.59
7.06
6.4
5.59
4.6
3.33
1.69
-0.38
-2.84
-5.57
-8.38
-11.05
-13.4
-15.37
-17.09
-18.79
-20.73
-23.09
-25.92
-29.08
-32.27
-35.06
-36.88
-37.21
-35.57
-31.76
-25.91
-18.51
-10.33
-2.19
5.2
11.39
16.15
19.48
21.52
22.45
22.52
21.97
21.03
19.87
18.67
17.56
16.66
16.05
15.78
15.83
16.14
16.58
17.01
17.25
17.11
16.46
15.25
13.55
11.52
9.37
7.27
5.22
3.18
1.02
-1.31
-3.73
-6.12
-8.31
-10.24
-11.91
-13.4
-14.83
-16.29
-17.9
-19.74
-21.84
-24.11
-26.22
-27.7
-27.99
-26.61
-23.38
-18.45
-12.22
-5.32
1.61
8.03
13.5
17.73
20.57
22.0
22.1
21.07
19.21
16.87
14.48
12.35
10.73
9.69
9.18
9.01
8.97
8.88
8.64
8.24
7.66
6.92
5.98
4.79
3.34
1.65
-0.22
-2.16
-4.07
-5.89
-7.63
-9.3
-10.96
-12.66
-14.5
-16.55
-18.8
-21.1
-23.11
-24.37
-24.42
-22.94
-19.87
-15.4
-9.91
-3.87
2.21
7.87
12.65
16.15
18.11
18.45
17.38
15.33
12.84
10.44
8.56
7.36
6.86
6.89
7.25
7.71
8.12
8.36
8.38
8.11
7.55
6.7
5.59
4.25
2.72
1.0
-0.87
-2.87
-4.94
-7.0
-9.02
-10.98
-12.95
-15.04
-17.39
-20.14
-23.32
-26.83
-30.43
-33.68
-36.03
-36.91
-35.87
-32.76
-27.74
-21.33
-14.21
-7.05
-0.44
5.26
9.87
13.29
15.54
16.68
16.86
16.3
15.31
14.17
13.11
12.29
11.8
11.7
12.02
12.75
13.78
14.89
15.78
16.18
15.93
15.06
13.77
12.28
10.82
9.45
8.11
6.69
5.07
3.21
1.12
-1.14
-3.5
-5.9
-8.29
-10.65
-13.01
-15.46
-18.08
-20.86
-23.6
-25.94
-27.44
-27.67
-26.37
-23.49
-19.15
-13.62
-7.29
-0.61
5.89
11.69
16.38
19.73
21.73
22.53
22.36
21.48
20.15
18.6
17.08
15.84
15.02
14.65
14.63
14.77
14.89
14.86
14.66
14.34
13.94
13.45
12.81
11.93
10.7
9.05
6.99
4.6
2.03
-0.57
-3.02
-5.28
-7.35
-9.31
-11.24
-13.16
-15.07
-16.98
-18.95
-21.05
-23.25
-25.34
-26.91
-27.44
-26.49
-23.84
-19.58
-14.07
-7.87
-1.58
4.21
9.02
12.49
14.48
15.02
14.38
12.93
11.04
9.05
7.18
5.6
4.39
3.62
3.31
3.4
3.76
4.19
4.51
4.57
4.33
3.89
3.34
2.7
1.9
0.77
-0.81
-2.88
-5.29
-7.81
-10.2
-12.33
-14.22
-16.02
-17.91
-20.05
-22.51
-25.22
-27.93
-30.23
-31.65
-31.71
-30.08
-26.63
-21.5
-15.02
-7.74
-0.26
6.77
12.82
17.53
20.76
22.54
23.05
22.51
21.18
19.35
17.39
15.58
14.12
13.0
12.08
11.19
10.26
9.39
8.74
8.42
8.33
8.19
7.67
6.54
4.77
2.5
-0.04
-2.69
-5.32
-7.89
-10.36
-12.77
-15.18
-17.77
-20.73
-24.2
-28.1
-32.05
-35.42
-37.47
-37.59
-35.47
-31.18
-25.17
-18.05
-10.52
-3.15
3.65
9.61
14.54
18.32
20.84
22.11
22.25
21.48
20.12
18.5
16.91
15.55
14.52
13.87
13.58
13.67
14.09
14.77
15.53
16.12
16.25
15.69
14.4
12.51
10.3
8.08
6.05
4.27
2.63
0.92
-1.05
-3.45
-6.35
-9.73
-13.45
-17.23
-20.68
-23.27
-24.45
-23.78
-21.01
-16.27
-10.0
-2.94
4.11
10.47
15.69
19.63
22.31
23.78
24.11
23.34
21.6
19.11
16.22
13.32
10.7
8.55
6.91
5.76
5.03
4.68
4.63
4.75
4.87
4.77
4.29
3.36
2.05
0.52
-1.03
-2.48
-3.82
-5.2
-6.88
-9.1
-11.98
-15.35
-18.82
-21.76
-23.57
-23.78
-22.2
-18.97
-14.43
-9.06
-3.38
2.08
6.87
10.63
13.11
14.26
14.19
13.15
11.42
9.3
7.02
4.8
2.82
1.24
0.11
-0.56
-0.88
-1.03
-1.18
-1.53
-2.2
-3.25
-4.65
-6.31
-8.06
-9.72
-11.22
-12.62
-14.13
-16.04
-18.58
-21.8
-25.45
-29.01
-31.82
-33.24
-32.78
-30.22
-25.64
-19.42
-12.14
-4.5
2.77
9.11
14.12
17.69
19.85
20.79
20.75
20.01
18.86
17.58
16.42
15.51
14.81
14.24
13.69
13.18
12.79
12.63
12.65
12.65
12.35
11.5
10.01
7.99
5.62
3.11
0.58
-1.92
-4.44
-7.01
-9.74
-12.72
-15.97
-19.35
-22.49
-24.8
-25.65
-24.54
-21.28
-16.07
-9.44
-2.08
5.24
11.84
17.25
21.18
23.59
24.58
24.39
23.3
21.59
19.57
17.53
15.73
14.31
13.3
12.58
12.01
11.47
10.94
10.44
9.97
9.46
8.76
7.79
6.54
5.11
3.68
2.33
1.02
-0.43
-2.28
-4.75
-7.92
-11.66
-15.58
-19.13
-21.67
-22.63
-21.64
-18.67
-14.04
-8.31
-2.16
3.8
9.13
13.6
17.06
19.45
20.71
20.84
19.95
18.29
16.21
14.12
12.34
11.04
10.19
9.69
9.41
9.31
9.44
9.83
10.41
10.99
11.3
11.07
10.15
8.57
6.48
4.14
1.8
-0.39
-2.4
-4.37
-6.5
-8.98
-11.85
-14.85
-17.49
-19.15
-19.34
-17.86
-14.87
-10.75
-5.98
-0.97
3.93
8.4
12.11
14.76
16.11
16.1
14.89
12.81
10.28
7.68
5.29
3.25
1.6
0.28
-0.7
-1.36
-1.7
-1.74
-1.6
-1.45
-1.49
-1.85
-2.56
-3.5
-4.56
-5.65
-6.82
-8.24
-10.05
-12.36
-15.12
-18.15
-21.17
-23.77
-25.54
-26.08
-25.1
-22.5
-18.44
-13.36
-7.85
-2.52
2.17
5.96
8.79
10.62
11.48
11.36
10.36
8.69
6.67
4.62
2.81
1.36
0.28
-0.46
-0.93
-1.17
-1.27
-1.36
-1.58
-2.01
-2.67
-3.46
-4.31
-5.22
-6.27
-7.64
-9.46
-11.82
-14.69
-17.99
-21.49
-24.83
-27.52
-29.0
-28.82
-26.74
-22.86
-17.56
-11.35
-4.78
1.63
7.43
12.21
15.67
17.67
18.3
17.83
16.65
15.16
13.64
12.29
11.24
10.52
10.13
10.0
9.99
9.98
9.83
9.48
8.9
8.05
6.96
5.67
4.25
2.8
1.32
-0.23
-2.01
-4.2
-6.93
-10.24
-14.0
-17.95
-21.67
-24.65
-26.32
-26.24
-24.17
-20.23
-14.82
-8.54
-2.03
4.18
9.7
14.3
17.81
20.14
21.29
21.37
20.58
19.26
17.72
16.26
15.08
14.27
13.88
13.9
14.26
14.86
15.52
16.05
16.25
16.01
15.26
14.03
12.37
10.36
8.1
5.69
3.27
0.93
-1.32
-3.63
-6.24
-9.37
-12.99
-16.79
-20.14
-22.38
-22.99
-21.77
-18.9
-14.72
-9.64
-4.0
1.89
7.69
13.0
17.38
20.46
22.09
22.32
21.45
19.86
17.97
16.1
14.48
13.17
12.15
11.32
10.61
10.0
9.5
9.12
8.78
8.34
7.6
6.47
4.95
3.17
1.31
-0.54
-2.39
-4.32
-6.44
-8.85
-11.56
-14.61
-17.97
-21.52
-25.0
-27.93
-29.72
-29.83
-27.99
-24.28
-19.13
-13.14
-6.94
-1.02
4.29
8.75
12.14
14.24
14.96
14.39
12.86
10.83
8.74
6.95
5.59
4.65
4.04
3.66
3.44
3.33
3.25
3.11
2.81
2.23
1.29
-0.05
-1.77
-3.72
-5.74
-7.66
-9.41
-11.11
-13.02
-15.43
-18.51
-22.13
-25.84
-28.93
-30.7
-30.64
-28.61
-24.83
-19.73
-13.86
-7.7
-1.69
3.74
8.24
11.54
13.5
14.2
13.94
13.11
12.12
11.27
10.71
10.48
10.51
10.72
11.02
11.34
11.66
11.95
12.18
12.25
11.99
11.22
9.81
7.82
5.43
2.93
0.55
-1.59
-3.57
-5.57
-7.81
-10.45
-13.5
-16.88
-20.37
-23.65
-26.31
-27.92
-28.1
-26.63
-23.5
-18.93
-13.3
-7.11
-0.9
4.84
9.73
13.54
16.2
17.76
18.35
18.1
17.2
15.84
14.3
12.9
11.95
11.59
11.77
12.25
12.71
12.9
12.74
12.3
11.67
10.95
10.12
9.14
7.96
6.54
4.88
2.97
0.83
-1.47
-3.85
-6.22
-8.56
-10.96
-13.59
-16.52
-19.68
-22.73
-25.13
-26.35
-26.01
-23.98
-20.38
-15.5
-9.71
-3.46
2.81
8.64
13.67
17.62
20.35
21.87
22.29
21.84
20.84
19.65
18.61
17.87
17.46
17.18
16.83
16.29
15.62
14.98
14.55
14.39
14.36
14.27
13.9
13.14
11.96
10.43
8.61
6.56
4.32
1.92
-0.58
-3.11
-5.62
-8.11
-10.61
-13.19
-15.97
-18.98
-22.16
-25.26
-27.84
-29.35
-29.37
-27.71
-24.51
-20.17
-15.17
-9.92
-4.68
0.33
4.87
8.63
11.27
12.59
12.63
11.73
10.34
8.88
7.64
6.7
6.05
5.68
5.57
5.72
6.07
6.53
6.97
7.28
7.39
7.25
6.78
5.94
4.7
3.12
1.35
-0.47
-2.23
-3.94
-5.7
-7.64
-9.84
-12.35
-15.19
-18.33
-21.62
-24.75
-27.2
-28.41
-27.95
-25.71
-21.94
-17.12
-11.81
-6.44
-1.33
3.31
7.23
10.19
12.03
12.71
12.41
11.48
10.26
9.06
8.07
7.38
6.99
6.86
6.91
7.09
7.36
7.68
7.99
8.22
8.24
7.89
7.08
5.81
4.13
2.15
-0.03
-2.34
-4.68
-6.93
-8.97
-10.74
-12.3
-13.89
-15.78
-18.2
-21.17
-24.43
-27.53
-29.92
-31.1
-30.76
-28.81
-25.33
-20.61
-15.05
-9.11
-3.25
2.16
6.85
10.65
13.48
15.28
16.08
15.98
15.23
14.17
13.17
12.47
12.11
12.0
12.0
12.02
12.08
12.26
12.54
12.83
12.96
12.81
12.33
11.57
10.59
9.39
7.91
6.12
4.08
1.93
-0.18
-2.2
-4.18
-6.28
-8.65
-11.35
-14.37
-17.57
-20.7
-23.42
-25.29
-25.88
-24.9
-22.31
-18.32
-13.34
-7.8
-2.09
3.5
8.67
13.08
16.46
18.6
19.53
19.48
18.78
17.77
16.66
15.61
14.72
14.1
13.84
13.97
14.37
14.86
15.22
15.35
15.25
15.0
14.65
14.11
13.18
11.64
9.43
6.68
3.71
0.85
-1.71
-4.0
-6.21
-8.54
-11.11
-13.92
-16.9
-19.97
-23.05
-25.98
-28.47
-30.05
-30.21
-28.57
-25.09
-20.05
-14.01
-7.66
-1.61
3.64
7.79
10.68
12.33
12.88
12.55
11.62
10.34
8.95
7.63
6.52
5.67
5.1
4.75
4.57
4.51
4.6
4.82
5.17
5.52
5.68
5.45
4.68
3.34
1.48
-0.77
-3.28
-5.91
-8.57
-11.25
-14.04
-17.12
-20.56
-24.23
-27.68
-30.22
-31.18
-30.15
-27.17
-22.68
-17.28
-11.52
-5.75
-0.15
5.1
9.71
13.34
15.66
16.56
16.19
14.92
13.23
11.59
10.33
9.59
9.34
9.4
9.55
9.63
9.57
9.46
9.37
9.32
9.2
8.83
8.01
6.68
4.95
2.96
0.88
-1.22
-3.39
-5.7
-8.2
-10.89
-13.78
-16.92
-20.35
-24.03
-27.68
-30.8
-32.74
-32.95
-31.17
-27.51
-22.43
-16.46
-10.11
-3.75
2.32
7.79
12.36
15.76
17.86
18.78
18.78
18.24
17.47
16.71
16.03
15.42
14.78
14.01
13.1
12.12
11.27
10.79
10.81
11.26
11.9
12.36
12.33
11.66
10.38
8.67
6.71
4.63
2.52
0.45
-1.58
-3.63
-5.85
-8.42
-11.49
-15.05
-18.87
-22.51
-25.39
-26.96
-26.82
-24.85
-21.16
-16.11
-10.19
-3.93
2.19
7.83
12.76
16.84
19.97
22.1
23.18
23.27
22.52
21.22
19.71
18.27
17.11
16.26
15.73
15.52
15.63
16.08
16.77
17.52
18.07
18.18
17.72
16.66
15.06
13.03
10.65
7.98
5.12
2.16
-0.77
-3.6
-6.29
-8.89
-11.48
-14.16
-17.01
-20.06
-23.19
-26.17
-28.57
-29.9
-29.75
-27.89
-24.4
-19.59
-13.94
-7.97
-2.14
3.15
7.58
10.92
13.04
13.91
13.67
12.57
10.98
9.29
7.85
6.86
6.37
6.27
6.42
6.72
7.11
7.61
8.21
8.78
9.06
8.79
7.77
6.03
3.82
1.5
-0.64
-2.52
-4.25
-6.07
-8.21
-10.74
-13.65
-16.79
-19.98
-22.95
-25.37
-26.8
-26.84
-25.21
-21.92
-17.27
-11.75
-5.9
-0.19
5.1
9.74
13.5
16.11
17.34
17.17
15.81
13.77
11.64
9.9
8.79
8.28
8.15
8.21
8.34
8.5
8.72
8.96
9.13
9.11
8.79
8.11
7.06
5.63
3.85
1.76
-0.56
-2.99
-5.44
-7.86
-10.26
-12.71
-15.31
-18.12
-21.16
-24.39
-27.65
-30.63
-32.87
-33.86
-33.21
-30.73
-26.56
-21.07
-14.81
-8.32
-2.05
3.68
8.64
12.7
15.77
17.83
18.94
19.21
18.79
17.89
16.73
15.58
14.64
14.09
14.0
14.31
14.92
15.64
16.3
16.77
16.9
16.6
15.83
14.57
12.87
10.82
8.52
6.1
3.64
1.18
-1.24
-3.6
-5.9
-8.21
-10.63
-13.3
-16.28
-19.49
-22.65
-25.34
-27.08
-27.44
-26.23
-23.47
-19.34
-14.21
-8.43
-2.41
3.5
8.94
13.62
17.3
19.84
21.17
21.36
20.61
19.22
17.55
16.0
14.85
14.26
14.18
14.45
14.82
15.07
15.03
14.66
13.94
12.94
11.76
10.54
9.4
8.36
7.3
5.99
4.18
1.74
-1.25
-4.53
-7.75
-10.62
-13.06
-15.17
-17.18
-19.33
-21.71
-24.24
-26.64
-28.48
-29.26
-28.56
-26.16
-22.15
-16.88
-10.94
-4.94
0.62
5.41
9.24
12.03
13.74
14.4
14.1
13.07
11.64
10.15
8.9
8.07
7.69
7.67
7.85
8.1
8.29
8.34
8.2
7.81
7.15
6.17
4.85
3.2
1.27
-0.82
-2.91
-4.86
-6.62
-8.3
-10.15
-12.48
-15.47
-19.09
-23.02
-26.74
-29.68
-31.32
-31.37
-29.73
-26.54
-22.05
-16.67
-10.83
-4.96
0.54
5.39
9.43
12.57
14.77
16.04
16.42
15.98
14.94
13.55
12.12
10.92
10.12
9.77
9.77
10.01
10.36
10.73
11.14
11.53
11.79
11.7
11.02
9.57
7.35
4.6
1.66
-1.1
-3.49
-5.49
-7.23
-8.94
-10.78
-12.89
-15.37
-18.3
-21.69
-25.32
-28.72
-31.23
-32.15
-31.03
-27.82
-22.92
-16.96
-10.6
-4.37
1.43
6.6
11.01
14.47
16.86
18.19
18.62
18.4
17.82
17.08
16.35
15.76
15.43
15.46
15.84
16.48
17.2
17.79
18.1
18.1
17.8
17.25
16.44
15.33
13.87
12.08
10.06
7.91
5.73
3.53
1.3
-0.99
-3.35
-5.77
-8.25
-10.81
-13.49
-16.32
-19.27
-22.18
-24.77
-26.66
-27.44
-26.79
-24.57
-20.9
-16.13
-10.72
-5.13
0.34
5.5
10.22
14.33
17.56
19.71
20.66
20.51
19.56
18.16
16.64
15.22
14.03
13.15
12.63
12.5
12.72
13.17
13.64
13.96
13.97
13.6
12.79
11.49
9.68
7.4
4.77
2.03
-0.57
-2.82
-4.69
-6.27
-7.83
-9.65
-11.97
-14.86
-18.2
-21.69
-24.88
-27.31
-28.56
-28.36
-26.61
-23.4
-18.96
-13.64
-7.9
-2.18
3.11
7.6
11.06
13.41
14.69
15.06
14.71
13.83
12.63
11.24
9.8
8.47
7.41
6.72
6.46
6.58
6.93
7.32
7.55
7.51
7.13
6.39
5.26
3.73
1.81
-0.42
-2.81
-5.18
-7.37
-9.34
-11.16
-13.04
-15.2
-17.82
-20.94
-24.38
-27.76
-30.53
-32.14
-32.14
-30.39
-27.02
-22.36
-16.86
-10.95
-4.99
0.66
5.72
9.9
13.03
15.05
16.1
16.37
16.12
15.55
14.85
14.13
13.49
12.97
12.6
12.37
12.29
12.38
12.65
13.07
13.52
13.84
13.84
13.36
12.36
10.87
8.97
6.78
4.42
1.99
-0.4
-2.68
-4.84
-6.95
-9.16
-11.68
-14.65
-18.12
-21.94
-25.76
-29.02
-31.13
-31.58
-30.16
-26.97
-22.4
-17.0
-11.24
-5.49
0.05
5.2
9.77
13.54
16.35
18.14
19.05
19.32
19.17
18.76
18.16
17.43
16.71
16.16
15.92
16.04
16.41
16.84
17.18
17.32
17.24
16.91
16.29
15.33
14.0
12.39
10.6
8.71
6.75
4.66
2.35
-0.19
-2.85
-5.52
-8.1
-10.66
-13.31
-16.19
-19.26
-22.33
-24.99
-26.81
-27.4
-26.56
-24.33
-20.87
-16.47
-11.45
-6.14
-0.87
4.05
8.37
11.83
14.28
15.65
15.98
15.45
14.32
12.9
11.46
10.16
9.05
8.07
7.22
6.54
6.18
6.27
6.8
7.57
8.25
8.48
8.0
6.73
4.75
2.3
-0.31
-2.75
-4.79
-6.33
-7.49
-8.55
-9.86
-11.74
-14.31
-17.44
-20.74
-23.65
-25.64
-26.22
-25.2
-22.63
-18.86
-14.37
-9.62
-4.96
-0.55
3.51
7.1
10.02
12.04
13.03
13.07
12.45
11.57
10.7
9.97
9.33
8.68
8.0
7.35
6.87
6.66
6.74
7.0
7.29
7.43
7.28
6.74
5.79
4.51
3.02
1.52
0.13
-1.15
-2.45
-3.96
-5.88
-8.34
-11.41
-15.07
-19.24
-23.72
-28.1
-31.75
-33.97
-34.21
-32.26
-28.38
-23.18
-17.37
-11.55
-6.03
-0.94
3.65
7.61
10.73
12.86
13.97
14.26
14.03
13.58
13.09
12.64
12.27
12.06
12.08
12.4
12.97
13.63
14.19
14.5
14.5
14.22
13.69
12.87
11.66
9.97
7.79
5.24
2.52
-0.19
-2.74
-5.12
-7.31
-9.39
-11.43
-13.58
-16.02
-18.91
-22.27
-25.9
-29.36
-32.03
-33.33
-32.88
-30.54
-26.49
-21.13
-14.93
-8.45
-2.17
3.54
8.45
12.46
15.58
17.85
19.32
20.12
20.35
20.21
19.87
19.51
19.19
18.98
18.88
18.96
19.26
19.8
20.47
21.07
21.34
21.1
20.29
19.0
17.39
15.61
13.72
11.74
9.62
7.33
4.92
2.48
0.08
-2.22
-4.46
-6.71
-9.08
-11.65
-14.52
-17.71
-21.13
-24.52
-27.5
-29.57
-30.33
-29.57
-27.3
-23.75
-19.18
-13.93
-8.28
-2.58
2.84
7.62
11.5
14.3
15.94
16.45
15.91
14.54
12.7
10.81
9.27
8.28
7.8
7.66
7.71
7.88
8.19
8.64
9.13
9.44
9.33
8.71
7.67
6.38
4.98
3.49
1.85
-0.02
-2.11
-4.35
-6.64
-8.99
-11.5
-14.29
-17.37
-20.55
-23.43
-25.55
-26.5
-26.03
-24.09
-20.83
-16.57
-11.7
-6.65
-1.77
2.63
6.4
9.44
11.71
13.18
13.86
13.84
13.24
12.29
11.18
10.09
9.13
8.36
7.79
7.43
7.23
7.1
6.99
6.82
6.57
6.23
5.75
5.03
3.95
2.44
0.49
-1.8
-4.27
-6.77
-9.22
-11.64
-14.09
-16.71
-19.59
-22.72
-25.98
-29.09
-31.62
-33.09
-33.08
-31.33
-27.83
-22.8
-16.69
-10.05
-3.46
2.6
7.83
12.0
15.07
17.05
18.04
18.19
17.71
16.85
15.86
14.92
14.13
13.53
13.14
12.96
12.99
13.18
13.44
13.62
13.58
13.24
12.55
11.5
10.1
8.37
6.38
4.22
1.99
-0.22
-2.43
-4.73
-7.23
-10.06
-13.23
-16.68
-20.28
-23.81
-26.97
-29.39
-30.68
-30.49
-28.63
-25.12
-20.22
-14.31
-7.87
-1.32
4.94
10.54
15.13
18.46
20.4
21.04
20.68
19.73
18.63
17.71
17.11
16.85
16.86
17.03
17.26
17.5
17.67
17.73
17.64
17.41
17.06
16.57
15.91
14.98
13.68
11.91
9.65
6.92
3.87
0.72
-2.28
-4.91
-7.09
-8.93
-10.72
-12.85
-15.6
-19.02
-22.83
-26.53
-29.5
-31.22
-31.34
-29.75
-26.52
-21.9
-16.27
-10.13
-4.05
1.49
6.13
9.7
12.17
13.61
14.12
13.84
12.98
11.81
10.66
9.76
9.23
9.04
9.09
9.26
9.55
9.94
10.41
10.92
11.33
11.51
11.33
10.69
9.51
7.78
5.52
2.87
0.01
-2.84
-5.51
-7.95
-10.21
-12.42
-14.75
-17.34
-20.21
-23.19
-25.91
-27.9
-28.63
-27.77
-25.21
-21.18
-16.09
-10.46
-4.73
0.78
5.83
10.2
13.68
16.06
17.24
17.29
16.46
15.14
13.74
12.55
11.71
11.23
11.05
11.06
11.21
11.4
11.53
11.55
11.38
11.04
10.49
9.71
8.59
7.05
5.03
2.64
0.05
-2.53
-4.97
-7.24
-9.42
-11.57
-13.77
-16.11
-18.72
-21.73
-25.17
-28.86
-32.3
-34.83
-35.81
-34.86
-32.02
-27.62
-22.18
-16.16
-9.9
-3.66
2.34
7.82
12.47
16.05
18.43
19.64
19.89
19.44
18.58
17.58
16.66
15.99
15.67
15.7
16.05
16.62
17.3
17.99
18.57
18.9
18.84
18.26
17.08
15.34
13.16
10.68
8.02
5.26
2.47
-0.3
-2.95
-5.39
-7.54
-9.44
-11.22
-13.15
-15.49
-18.43
-21.94
-25.7
-29.11
-31.46
-32.09
-30.65
-27.15
-21.96
-15.67
-8.92
-2.24
3.97
9.46
14.06
17.68
20.24
21.73
22.24
21.94
21.13
20.1
19.13
18.4
17.95
17.75
17.73
17.78
17.86
17.93
17.96
17.95
17.83
17.48
16.79
15.65
14.04
12.02
9.72
7.24
4.67
2.02
-0.74
-3.6
-6.54
-9.53
-12.58
-15.73
-19.07
-22.53
-25.89
-28.76
-30.65
-31.18
-30.12
-27.48
-23.45
-18.37
-12.62
-6.65
-0.91
4.14
8.15
10.92
12.45
12.89
12.51
11.63
10.52
9.4
8.42
7.65
7.11
6.78
6.64
6.69
6.93
7.34
7.86
8.35
8.6
8.43
7.74
6.52
4.84
2.86
0.7
-1.5
-3.71
-5.92
-8.21
-10.73
-13.63
-17.0
-20.73
-24.46
-27.63
-29.65
-30.06
-28.64
-25.51
-21.0
-15.51
-9.48
-3.31
2.57
7.73
11.76
14.41
15.66
15.72
14.97
13.77
12.42
11.08
9.87
8.84
8.11
7.77
7.83
8.21
8.69
9.02
8.98
8.52
7.66
6.58
5.4
4.17
2.83
1.27
-0.6
-2.77
-5.14
-7.57
-10.0
-12.48
-15.18
-18.28
-21.83
-25.65
-29.36
-32.46
-34.43
-34.9
-33.68
-30.78
-26.38
-20.76
-14.27
-7.35
-0.48
5.87
11.23
15.29
17.9
19.16
19.3
18.69
17.69
16.63
15.72
15.1
14.8
14.81
15.08
15.53
16.04
16.49
16.8
16.86
16.63
16.04
15.08
13.73
12.03
10.03
7.8
5.47
3.11
0.82
-1.4
-3.58
-5.82
-8.22
-10.9
-13.92
-17.26
-20.82
-24.37
-27.53
-29.85
-30.86
-30.21
-27.81
-23.84
-18.73
-13.01
-7.14
-1.47
3.79
8.49
12.49
15.65
17.86
19.15
19.6
19.43
18.87
18.16
17.55
17.24
17.37
17.95
18.84
19.8
20.57
20.93
20.8
20.25
19.33
18.12
16.62
14.85
12.84
10.64
8.3
5.83
3.21
0.38
-2.61
-5.64
-8.57
-11.34
-13.98
-16.67
-19.57
-22.74
-26.01
-29.0
-31.18
-32.05
-31.25
-28.61
-24.25
-18.49
-11.85
-4.95
1.54
7.09
11.32
14.08
15.45
15.65
14.98
13.73
12.23
10.75
9.56
8.84
8.63
8.81
9.17
9.51
9.72
9.78
9.74
9.6
9.29
8.7
7.72
6.34
4.63
2.66
0.51
-1.79
-4.21
-6.72
-9.29
-11.91
-14.68
-17.68
-20.95
-24.39
-27.71
-30.5
-32.3
-32.75
-31.58
-28.71
-24.28
-18.61
-12.19
-5.59
0.68
6.24
10.83
14.33
16.65
17.8
17.91
17.24
16.18
15.06
14.13
13.41
12.85
12.41
12.12
12.1
12.42
13.04
13.73
14.26
14.39
14.04
13.22
12.01
10.46
8.67
6.65
4.45
2.11
-0.35
-2.92
-5.55
-8.23
-10.94
-13.68
-16.52
-19.5
-22.65
-25.91
-29.09
-31.92
-34.03
-35.07
-34.7
-32.72
-29.1
-24.03
-17.89
-11.19
-4.41
2.01
7.74
12.54
16.26
18.81
20.21
20.6
20.21
19.33
18.25
17.19
16.33
15.79
15.61
15.79
16.25
16.88
17.52
18.01
18.24
18.13
17.67
16.85
15.76
14.45
13.0
11.41
9.62
7.56
5.16
2.42
-0.55
-3.53
-6.31
-8.71
-10.69
-12.37
-14.0
-15.89
-18.3
-21.32
-24.75
-28.12
-30.77
-32.03
-31.48
-28.99
-24.82
-19.39
-13.2
-6.69
-0.21
5.98
11.58
16.33
19.96
22.31
23.35
23.26
22.36
21.05
19.7
18.58
17.82
17.41
17.25
17.23
17.28
17.33
17.37
17.32
17.09
16.62
15.88
14.9
13.67
12.17
10.34
8.1
5.46
2.57
-0.35
-3.02
-5.25
-7.03
-8.51
-9.95
-11.63
-13.8
-16.61
-20.0
-23.73
-27.34
-30.21
-31.73
-31.47
-29.3
-25.42
-20.3
-14.52
-8.66
-3.14
