0
23.28
20.45
17.05
13.09
8.63
3.79
-1.14
-5.84
-10.04
-13.72
-17.11
-20.65
-24.8
-29.88
-35.96
-42.74
-49.58
-55.49
-59.32
-60.02
-56.98
-50.19
-40.36
-28.66
-16.4
-4.74
5.54
14.04
20.66
25.46
28.6
30.33
30.93
30.78
30.22
29.61
29.21
29.21
29.66
30.48
31.47
32.38
32.95
33.0
32.43
31.24
29.48
27.26
24.69
21.9
18.99
16.02
13.02
9.86
6.35
2.29
-2.42
-7.69
-13.21
-18.53
-23.24
-27.16
-30.39
-33.33
-36.54
-40.57
-45.7
-51.75
-57.91
-62.92
-65.29
-63.88
-58.21
-48.75
-36.7
-23.59
-10.85
0.59
10.27
18.13
24.26
28.74
31.67
33.24
33.76
33.68
33.46
33.41
33.7
34.26
34.92
35.52
36.0
36.42
36.89
37.45
37.94
38.08
37.49
35.94
33.41
30.22
26.81
23.68
21.09
19.04
17.27
15.41
13.15
10.42
7.4
4.41
1.73
-0.54
-2.55
-4.6
-7.03
-10.02
-13.62
-17.64
-21.83
-25.95
-29.8
-33.26
-36.4
-39.42
-42.75
-46.9
-52.28
-58.87
-65.96
-72.24
-76.1
-76.16
-71.77
-63.24
-51.7
-38.68
-25.68
-13.84
-3.77
4.33
10.51
14.93
17.78
19.24
19.59
19.22
18.57
18.06
17.99
18.4
19.11
19.82
20.29
20.49
20.6
20.92
21.69
22.91
24.33
25.52
25.98
25.4
23.79
21.45
18.85
16.43
14.3
12.27
9.9
6.83
3.0
-1.28
-5.51
-9.25
-12.35
-15.01
-17.65
-20.69
-24.43
-29.03
-34.47
-40.5
-46.5
-51.47
-54.2
-53.63
-49.23
-41.29
-30.82
-19.22
-7.82
2.47
11.21
18.27
23.65
27.35
29.35
29.81
29.09
27.77
26.5
25.81
25.93
26.72
27.85
28.91
29.66
30.09
30.34
30.5
30.53
30.18
29.13
27.2
24.47
21.28
18.04
15.04
12.35
9.77
7.01
3.79
-0.03
-4.36
-8.99
-13.66
-18.14
-22.27
-26.07
-29.6
-33.09
-36.79
-41.05
-46.19
-52.31
-59.06
-65.54
-70.39
-72.15
-69.84
-63.3
-53.33
-41.32
-28.81
-17.0
-6.58
2.13
9.06
14.14
17.43
19.1
19.58
19.42
19.14
19.06
19.25
19.58
19.91
20.18
20.42
20.76
21.31
22.1
23.08
24.07
24.79
24.89
24.07
22.19
19.39
16.04
12.66
9.61
7.02
4.66
2.12
-0.96
-4.7
-8.92
-13.27
-17.43
-21.21
-24.67
-28.04
-31.61
-35.77
-40.79
-46.76
-53.31
-59.51
-64.04
-65.49
-62.91
-56.21
-46.17
-34.19
-21.81
-10.22
-0.11
8.24
14.83
19.73
23.0
24.75
25.17
24.55
23.29
21.83
20.56
19.8
19.73
20.36
21.55
23.03
24.51
25.67
26.28
26.17
25.33
23.82
21.81
19.49
16.97
14.27
11.35
8.11
4.5
0.56
-3.63
-7.91
-12.07
-15.91
-19.33
-22.42
-25.51
-29.12
-33.71
-39.37
-45.61
-51.36
-55.27
-56.12
-53.26
-46.8
-37.49
-26.46
-14.94
-3.97
5.64
13.34
18.88
22.19
23.43
22.94
21.23
18.94
16.68
14.96
14.05
13.92
14.35
15.02
15.71
16.34
16.97
17.59
18.08
18.21
17.68
16.31
14.06
11.08
7.6
3.92
0.3
-3.05
-6.12
-9.1
-12.34
-16.21
-21.0
-26.71
-32.94
-38.85
-43.34
-45.24
-43.7
-38.5
-30.19
-19.96
-9.3
0.52
8.73
15.11
19.83
23.08
24.95
25.39
24.38
22.11
19.04
15.79
12.99
11.12
10.37
10.63
11.51
12.5
13.07
12.83
11.69
9.78
7.36
4.64
1.74
-1.39
-4.79
-8.47
-12.42
-16.68
-21.42
-26.78
-32.71
-38.64
-43.5
-45.94
-44.81
-39.71
-31.13
-20.32
-8.9
1.71
10.62
17.54
22.6
26.05
28.01
28.51
27.55
25.33
22.34
19.29
16.87
15.5
15.18
15.52
15.97
16.04
15.5
14.35
12.71
10.73
8.47
5.94
3.11
-0.04
-3.61
-7.75
-12.66
-18.55
-25.45
-33.07
-40.66
-47.02
-50.71
-50.5
-45.77
-36.86
-25.03
-12.07
0.19
10.49
18.28
23.69
27.17
29.2
30.06
29.93
28.99
27.54
25.99
24.73
23.93
23.56
23.39
23.1
22.44
21.25
19.51
17.31
14.8
12.17
9.55
6.92
4.14
0.91
-3.09
-8.13
-14.32
-21.58
-29.59
-37.69
-44.92
-50.07
-51.94
-49.69
-43.22
-33.19
-20.95
-8.09
3.97
14.31
22.55
28.7
33.02
35.76
37.2
37.6
37.27
36.48
35.45
34.31
33.12
31.92
30.79
29.85
29.14
28.62
28.07
27.2
25.66
23.24
19.89
15.77
11.19
6.46
1.81
-2.7
-7.21
-12.04
-17.58
-24.12
-31.65
-39.66
-47.09
-52.51
-54.43
-51.89
-44.78
-33.98
-21.09
-7.9
4.09
14.1
21.98
27.99
32.46
35.55
37.31
37.78
37.24
36.14
35.03
34.34
34.21
34.44
34.62
34.4
33.58
32.24
30.65
29.09
27.68
26.31
24.6
22.16
18.73
14.34
9.33
4.21
-0.57
-4.75
-8.42
-11.87
-15.53
-19.83
-25.16
-31.69
-39.27
-47.27
-54.5
-59.5
-60.92
-58.0
-50.89
-40.56
-28.47
-16.1
-4.57
5.49
13.83
20.44
25.33
28.55
30.19
30.51
29.95
29.04
28.34
28.22
28.73
29.62
30.41
30.68
30.26
29.29
28.12
27.06
26.19
25.25
23.83
21.57
18.33
14.24
9.65
4.95
0.48
-3.53
-7.1
-10.41
-13.8
-17.68
-22.38
-28.01
-34.35
-40.76
-46.32
-49.95
-50.74
-48.13
-42.18
-33.55
-23.32
-12.73
-2.81
5.76
12.69
17.9
21.42
23.34
23.87
23.41
22.51
21.69
21.28
21.32
21.6
21.87
22.0
21.98
21.9
21.76
21.43
20.67
19.25
17.08
14.21
10.83
7.16
3.43
-0.18
-3.6
-6.89
-10.29
-14.18
-18.93
-24.67
-31.06
-37.27
-42.07
-44.26
-42.96
-38.02
-30.06
-20.26
-9.99
-0.49
7.46
13.57
17.93
20.78
22.39
22.96
22.64
21.65
20.31
18.96
17.91
17.32
17.14
17.18
17.21
17.01
16.47
15.52
14.11
12.25
9.92
7.13
3.96
0.46
-3.31
-7.35
-11.7
-16.5
-21.86
-27.84
-34.23
-40.44
-45.49
-48.26
-47.82
-43.78
-36.51
-26.99
-16.57
-6.49
2.35
9.53
15.02
18.98
21.66
23.27
23.99
24.0
23.5
22.67
21.73
20.82
20.07
19.51
19.13
18.85
18.58
18.17
17.45
16.28
14.53
12.16
9.2
5.75
1.95
-2.07
-6.14
-10.18
-14.25
-18.54
-23.41
-29.12
-35.48
-41.78
-46.76
-49.03
-47.6
-42.29
-33.8
-23.44
-12.7
-2.72
5.86
12.83
18.25
22.21
24.81
26.18
26.54
26.23
25.62
25.07
24.81
24.88
25.14
25.32
25.16
24.56
23.63
22.63
21.79
21.12
20.38
19.13
16.95
13.65
9.43
4.7
0.03
-4.24
-8.03
-11.54
-15.16
-19.35
-24.45
-30.55
-37.43
-44.47
-50.63
-54.72
-55.64
-52.82
-46.41
-37.26
-26.67
-16.0
-6.22
2.17
9.11
14.7
19.04
22.16
24.07
24.9
24.95
24.65
24.39
24.45
24.88
25.55
26.26
26.82
27.11
27.06
26.66
25.9
24.8
23.37
21.63
19.55
17.1
14.23
10.93
7.25
3.28
-0.83
-4.94
-8.97
-12.87
-16.67
-20.42
-24.3
-28.53
-33.4
-39.02
-45.19
-51.21
-55.99
-58.28
-57.14
-52.25
-44.07
-33.65
-22.35
-11.42
-1.77
6.13
12.17
16.51
19.43
21.27
22.33
22.9
23.2
23.38
23.55
23.78
24.08
24.45
24.86
25.26
25.66
26.01
26.2
26.07
25.39
24.03
22.01
19.51
16.79
14.02
11.26
8.4
5.26
1.71
-2.23
-6.43
-10.66
-14.69
-18.39
-21.71
-24.79
-27.91
-31.44
-35.72
-40.88
-46.62
-52.15
-56.31
-57.92
-56.16
-50.83
-42.53
-32.35
-21.64
-11.55
-2.83
4.22
9.64
13.6
16.29
17.84
18.39
18.11
17.34
16.52
16.05
16.19
16.97
18.14
19.34
20.19
20.49
20.22
19.56
18.72
17.84
16.93
15.83
14.29
12.11
9.24
5.86
2.29
-1.14
-4.2
-6.9
-9.39
-11.92
-14.7
-17.91
-21.7
-26.18
-31.31
-36.72
-41.68
-45.17
-46.14
-43.96
-38.64
-30.81
-21.55
-12.02
-3.16
4.44
10.52
15.03
17.99
19.49
19.7
18.95
17.64
16.25
15.16
14.59
14.52
14.77
15.1
15.36
15.49
15.53
15.5
15.28
14.63
13.27
11.06
8.08
4.64
1.09
-2.31
-5.48
-8.57
-11.82
-15.5
-19.83
-24.91
-30.65
-36.62
-41.96
-45.54
-46.23
-43.36
-37.0
-28.07
-17.97
-8.17
0.27
6.9
11.78
15.19
17.4
18.58
18.84
18.36
17.46
16.45
15.59
14.95
14.45
13.93
13.36
12.75
12.17
11.62
10.96
9.93
8.32
6.02
3.13
-0.06
-3.26
-6.29
-9.21
-12.25
-15.82
-20.29
-25.8
-32.1
-38.46
-43.77
-46.78
-46.51
-42.59
-35.36
-25.81
-15.2
-4.76
4.56
12.21
17.94
21.76
23.82
24.38
23.79
22.45
20.76
19.06
17.61
16.59
16.05
15.92
16.02
16.07
15.77
14.91
13.37
11.25
8.68
5.87
2.93
-0.05
-3.09
-6.19
-9.44
-13.02
-17.23
-22.39
-28.64
-35.66
-42.52
-47.77
-49.97
-48.09
-42.06
-32.71
-21.53
-10.1
0.38
9.23
16.23
21.42
24.89
26.74
27.18
26.59
25.43
24.19
23.16
22.42
21.81
21.14
20.3
19.32
18.39
17.62
17.02
16.38
15.36
13.7
11.31
8.26
4.76
0.94
-3.13
-7.48
-12.13
-17.13
-22.53
-28.38
-34.63
-40.9
-46.35
-49.75
-49.86
-45.94
-38.11
-27.43
-15.55
-4.1
5.75
13.49
19.12
22.9
25.14
26.05
25.85
24.79
23.21
21.45
19.85
18.67
18.03
17.91
18.16
18.52
18.69
18.43
17.58
16.09
13.99
11.36
8.29
4.91
1.4
-2.12
-5.52
-8.91
-12.55
-16.82
-22.05
-28.19
-34.7
-40.48
-44.14
-44.44
-40.65
-32.97
-22.43
-10.63
0.79
10.55
18.04
23.23
26.43
27.98
28.16
27.14
25.21
22.78
20.41
18.63
17.73
17.66
18.1
18.56
18.67
18.18
17.08
15.44
13.42
11.14
8.66
6.0
3.14
-0.02
-3.54
-7.54
-12.1
-17.33
-23.29
-29.86
-36.59
-42.56
-46.54
-47.29
-44.06
-36.92
-26.85
-15.39
-4.18
5.58
13.31
19.0
22.92
25.37
26.59
26.69
25.84
24.29
22.36
20.41
18.79
17.75
17.34
17.46
17.8
17.98
17.63
16.55
14.75
12.34
9.51
6.35
2.94
-0.71
-4.59
-8.71
-13.18
-18.25
-24.15
-30.96
-38.27
-45.11
-50.08
-51.82
-49.39
-42.71
-32.62
-20.6
-8.35
2.74
11.8
18.6
23.37
26.5
28.38
29.26
29.36
28.88
28.05
27.14
26.29
25.55
24.84
24.03
23.09
22.06
20.99
19.83
18.44
16.56
14.03
10.78
6.97
2.83
-1.36
-5.43
-9.38
-13.36
-17.73
-22.9
-29.15
-36.38
-43.81
-50.05
-53.4
-52.47
-46.76
-36.93
-24.6
-11.74
-0.02
9.65
17.15
22.78
26.91
29.78
31.43
31.98
31.68
30.93
30.14
29.55
29.16
28.76
28.1
27.1
25.85
24.62
23.63
22.9
22.14
20.88
18.62
15.16
10.67
5.63
0.62
-3.93
-7.93
-11.59
-15.32
-19.59
-24.76
-30.94
-37.87
-44.79
-50.46
-53.45
-52.55
-47.25
-38.04
-26.23
-13.55
-1.61
8.55
16.52
22.39
26.52
29.27
30.89
31.6
31.6
31.14
30.51
29.98
29.74
29.82
30.04
30.16
29.93
29.27
28.3
27.23
26.22
25.2
23.87
21.86
18.92
15.03
10.45
5.61
0.85
-3.59
-7.65
-11.38
-14.92
-18.45
-22.27
-26.73
-32.17
-38.66
-45.76
-52.45
-57.32
-58.93
-56.36
-49.56
-39.38
-27.32
-14.97
-3.63
5.99
13.65
19.46
23.63
26.33
27.75
28.13
27.78
27.06
26.27
25.64
25.31
25.37
25.81
26.53
27.31
27.89
28.04
27.65
26.79
25.56
24.07
22.28
20.1
17.43
14.26
10.7
6.89
2.96
-0.99
-4.92
-8.78
-12.49
-16.0
-19.38
-22.82
-26.66
-31.23
-36.64
-42.6
-48.27
-52.47
-53.96
-51.9
-46.12
-37.27
-26.52
-15.26
-4.7
4.39
11.64
16.99
20.46
22.17
22.29
21.18
19.45
17.77
16.78
16.81
17.77
19.21
20.54
21.28
21.3
20.77
20.02
19.3
18.62
17.69
16.21
13.91
10.81
7.12
3.17
-0.7
-4.34
-7.73
-11.03
-14.48
-18.4
-23.05
-28.53
-34.64
-40.72
-45.75
-48.51
-48.05
-43.95
-36.63
-27.12
-16.75
-6.71
2.21
9.66
15.58
19.95
22.73
23.91
23.65
22.35
20.58
18.89
17.67
17.04
16.85
16.89
16.96
16.96
16.88
16.67
16.21
15.31
13.74
11.37
8.2
4.46
0.49
-3.38
-6.98
-10.4
-13.96
-18.09
-23.16
-29.23
-35.97
-42.58
-47.94
-50.82
-50.24
-45.84
-37.99
-27.74
-16.55
-5.8
3.5
10.91
16.42
20.22
22.52
23.44
23.18
22.1
20.71
19.54
18.95
18.96
19.28
19.55
19.5
19.08
18.41
17.61
16.69
15.54
13.93
11.73
8.95
5.71
2.19
-1.41
-4.97
-8.47
-12.03
-15.9
-20.48
-26.09
-32.75
-39.96
-46.63
-51.33
-52.69
-49.95
-43.27
-33.64
-22.56
-11.49
-1.5
6.91
13.66
18.84
22.54
24.83
25.85
25.81
25.11
24.14
23.15
22.27
21.47
20.75
20.11
19.67
19.48
19.55
19.71
19.68
19.11
17.7
15.28
11.9
7.82
3.45
-0.77
-4.61
-8.1
-11.53
-15.45
-20.33
-26.47
-33.71
-41.42
-48.48
-53.54
-55.33
-53.05
-46.61
-36.82
-25.06
-12.94
-1.83
7.47
14.74
20.13
23.89
26.21
27.18
27.02
26.07
24.83
23.78
23.16
22.96
22.92
22.77
22.34
21.69
21.0
20.41
19.89
19.18
17.91
15.75
12.57
8.54
4.05
-0.39
-4.44
-7.99
-11.25
-14.67
-18.73
-23.8
-29.98
-37.0
-44.14
-50.31
-54.23
-54.76
-51.25
-43.86
-33.49
-21.54
-9.53
1.38
10.47
17.52
22.55
25.71
27.22
27.41
26.74
25.74
24.88
24.44
24.41
24.58
24.7
24.57
24.15
23.55
22.91
22.32
21.65
20.68
19.09
16.63
13.24
9.11
4.55
-0.07
-4.51
-8.72
-12.86
-17.25
-22.23
-28.08
-34.81
-42.04
-48.89
-54.1
-56.3
-54.5
-48.45
-38.8
-26.94
-14.52
-2.97
6.84
14.6
20.42
24.55
27.25
28.66
28.95
28.34
27.11
25.66
24.32
23.36
22.83
22.6
22.43
22.13
21.64
21.05
20.51
20.06
19.49
18.4
16.36
13.12
8.81
3.88
-1.06
-5.49
-9.14
-12.12
-14.77
-17.59
-21.1
-25.69
-31.49
-38.23
-45.11
-50.93
-54.27
-54.0
-49.64
-41.56
-30.86
-19.04
-7.54
2.57
10.76
16.93
21.19
23.76
24.79
24.48
23.1
21.08
18.96
17.26
16.31
16.16
16.53
17.05
17.42
17.56
17.55
17.48
17.26
16.63
15.25
12.94
9.79
6.18
2.55
-0.79
-3.82
-6.76
-9.98
-13.81
-18.47
-23.98
-30.1
-36.25
-41.55
-44.9
-45.27
-42.04
-35.22
-25.55
-14.33
-3.03
7.07
15.16
21.01
24.75
26.72
27.23
26.55
24.88
22.53
19.98
17.72
16.2
15.63
15.89
16.58
17.19
17.29
16.65
15.24
13.2
10.71
7.95
5.02
1.97
-1.22
-4.62
-8.28
-12.26
-16.67
-21.6
-27.16
-33.29
-39.56
-45.1
-48.68
-49.09
-45.58
-38.28
-28.16
-16.79
-5.74
3.81
11.37
16.96
20.85
23.25
24.26
23.98
22.63
20.66
18.65
17.13
16.35
16.28
16.61
16.94
16.96
16.47
15.51
14.18
12.59
10.75
8.57
5.9
2.67
-1.01
-5.0
-9.14
-13.41
-18.02
-23.26
-29.32
-36.05
-42.82
-48.53
-51.91
-51.86
-47.81
-40.0
-29.39
-17.47
-5.77
4.47
12.65
18.67
22.82
25.44
26.76
26.93
26.16
24.75
23.13
21.69
20.64
20.01
19.66
19.44
19.25
19.01
18.62
17.94
16.77
14.93
12.41
9.29
5.79
2.1
-1.59
-5.28
-9.02
-13.03
-17.63
-23.14
-29.73
-37.14
-44.51
-50.49
-53.56
-52.56
-47.12
-37.83
-26.12
-13.72
-2.14
7.68
15.44
21.25
25.34
27.9
29.05
28.97
27.99
26.6
25.28
24.36
23.91
23.74
23.56
23.16
22.5
21.68
20.79
19.84
18.67
17.05
14.75
11.69
7.98
3.85
-0.4
-4.51
-8.33
-11.87
-15.34
-19.13
-23.72
-29.4
-36.11
-43.16
-49.36
-53.23
-53.5
-49.6
-41.83
-31.33
-19.61
-8.12
2.19
10.85
17.77
22.98
26.48
28.27
28.47
27.43
25.7
23.93
22.59
21.88
21.75
21.89
22.03
22.0
21.75
21.36
20.85
20.11
18.95
17.15
14.59
11.38
7.75
4.05
0.51
-2.82
-6.08
-9.53
-13.44
-18.04
-23.44
-29.6
-36.18
-42.4
-47.12
-49.05
-47.19
-41.25
-31.81
-20.23
-8.2
2.81
11.86
18.69
23.44
26.43
27.92
28.08
27.1
25.33
23.22
21.27
19.89
19.22
19.13
19.35
19.54
19.47
19.03
18.16
16.86
15.08
12.83
10.14
7.07
3.72
0.21
-3.38
-7.02
-10.75
-14.76
-19.35
-24.8
-31.11
-37.73
-43.57
-47.2
-47.36
-43.47
-35.9
-25.81
-14.75
-4.13
5.13
12.64
18.4
22.56
25.28
26.65
26.82
26.03
24.58
22.86
21.22
19.93
19.1
18.7
18.58
18.52
18.29
17.7
16.59
14.85
12.45
9.43
5.95
2.25
-1.47
-5.09
-8.69
-12.47
-16.7
-21.66
-27.51
-34.06
-40.75
-46.55
-50.17
-50.4
-46.6
-38.92
-28.39
-16.56
-5.06
4.9
12.78
18.59
22.64
25.26
26.72
27.15
26.76
25.85
24.77
23.85
23.24
22.96
22.84
22.71
22.49
22.12
21.61
20.88
19.76
17.99
15.38
11.92
7.88
3.67
-0.32
-3.9
-7.23
-10.76
-15.03
-20.5
-27.26
-34.93
-42.6
-49.01
-52.8
-52.86
-48.76
-40.84
-30.21
-18.35
-6.74
3.62
12.21
18.96
23.98
27.35
29.17
29.56
28.83
27.42
25.8
24.31
23.1
22.17
21.47
20.95
20.6
20.35
20.04
19.42
18.24
16.36
13.8
10.71
7.33
3.84
0.33
-3.18
-6.74
-10.49
-14.68
-19.57
-25.46
-32.36
-39.87
-47.03
-52.45
-54.72
-52.93
-47.0
-37.78
-26.73
-15.5
-5.36
3.02
9.55
14.44
17.94
20.2
21.24
21.12
20.05
18.37
16.49
14.76
13.34
12.24
11.38
10.67
10.06
9.57
9.15
8.69
7.94
6.61
4.46
1.39
-2.49
-6.96
-11.69
-16.48
-21.2
-25.89
-30.77
-36.14
-42.27
-49.26
-56.75
-63.86
-69.37
-71.99
-70.89
-66.09
-58.42
-49.34
-40.34
-32.57
-26.6
-22.53
-20.15
-19.18
-19.31
-20.15
-21.16
-21.68
-21.03
-18.7
-14.45
-8.3
-0.55
8.35
17.86
27.39
36.36
44.21
50.61
55.37
58.47
60.02
60.13
58.9
56.37
52.54
47.46
41.19
33.86
25.75
17.42
9.77
3.91
0.86
1.21
4.87
11.07
18.63
26.41
33.54
39.54
44.21
47.41
48.98
48.77
46.75
43.12
38.38
33.21
28.28
24.19
21.2
19.29
18.1
17.11
15.85
14.01
11.57
8.68
5.58
2.45
-0.65
-3.75
-7.0
-10.58
-14.74
-19.75
-25.68
-32.3
-38.86
-44.22
-47.07
-46.42
-41.98
-34.21
-24.19
-13.28
-2.7
6.68
14.4
20.31
24.4
26.77
27.53
26.91
25.26
23.1
21.01
19.44
18.65
18.54
18.7
18.65
17.96
16.45
14.27
11.72
9.13
6.7
4.41
2.1
-0.49
-3.63
-7.54
-12.44
-18.47
-25.57
-33.33
-40.87
-46.93
-50.15
-49.51
-44.7
-36.3
-25.63
-14.31
-3.77
5.11
12.05
17.24
21.01
23.63
25.22
25.82
25.51
24.52
23.18
21.88
20.89
20.26
19.87
19.48
18.86
17.89
16.54
14.89
13.02
10.95
8.61
5.89
2.64
-1.24
-5.72
-10.7
-16.11
-21.95
-28.25
-34.88
-41.29
-46.47
-49.12
-48.13
-43.07
-34.45
-23.56
-12.03
-1.25
7.93
15.22
20.72
24.63
27.13
28.4
28.64
28.11
27.11
25.89
24.6
23.36
22.23
21.32
20.65
20.21
19.85
19.36
18.46
16.91
14.56
11.36
7.51
3.35
-0.74
-4.47
-7.79
-10.99
-14.6
-19.15
-25.02
-32.08
-39.65
-46.57
-51.43
-53.0
-50.52
-44.03
-34.3
-22.71
-10.8
0.12
9.18
16.07
20.84
23.76
25.18
25.49
25.1
24.42
23.79
23.39
23.24
23.17
22.99
22.6
22.01
21.36
20.78
20.28
19.71
18.84
17.37
15.12
12.01
8.19
3.94
-0.4
-4.57
-8.48
-12.27
-16.24
-20.78
-26.22
-32.65
-39.78
-46.78
-52.42
-55.31
-54.36
-49.21
-40.43
-29.36
-17.6
-6.52
3.07
10.95
17.22
21.97
25.19
26.86
27.1
26.32
25.14
24.12
23.55
23.42
23.47
23.43
23.15
22.64
21.99
21.26
20.4
19.24
17.56
15.2
12.18
8.64
4.84
1.06
-2.57
-6.08
-9.68
-13.67
-18.45
-24.26
-31.06
-38.42
-45.41
-50.74
-53.08
-51.51
-45.8
-36.6
-25.22
-13.25
-2.07
7.37
14.68
19.84
23.05
24.57
24.74
23.93
22.59
21.16
19.93
19.05
18.47
18.02
17.53
16.91
16.18
15.41
14.62
13.77
12.69
11.19
9.16
6.6
3.66
0.55
-2.57
-5.69
-8.94
-12.61
-17.02
-22.42
-28.84
-35.9
-42.78
-48.26
-51.08
-50.28
-45.6
-37.57
-27.34
-16.33
-5.8
3.42
10.99
16.88
21.21
24.03
25.46
25.66
24.97
23.88
22.82
22.11
21.78
21.65
21.44
20.96
20.17
19.18
18.12
17.02
15.73
13.97
11.49
8.19
4.23
-0.05
-4.27
-8.12
-11.52
-14.63
-17.79
-21.46
-26.06
-31.77
-38.43
-45.3
-51.23
-54.83
-54.93
-50.99
-43.33
-33.01
-21.51
-10.27
-0.34
7.72
13.78
17.94
20.43
21.52
21.56
20.96
20.17
19.52
19.15
18.99
18.83
18.51
17.98
17.31
16.67
16.1
15.54
14.76
13.48
11.53
8.85
5.53
1.78
-2.15
-6.05
-9.7
-13.07
-16.32
-19.86
-24.17
-29.46
-35.44
-41.18
-45.34
-46.58
-44.08
-37.81
-28.57
-17.68
-6.6
3.5
11.9
18.35
22.92
25.76
26.99
26.68
25.01
22.36
19.29
16.54
14.67
13.93
14.15
14.86
15.5
15.64
14.98
13.39
10.88
7.54
3.63
-0.53
-4.56
-8.26
-11.61
-14.82
-18.19
-22.04
-26.63
-32.14
-38.41
-44.84
-50.35
-53.54
-53.15
-48.56
-40.13
-29.12
-17.24
-6.06
3.45
10.93
16.5
20.38
22.72
23.62
23.23
21.89
20.0
17.99
16.16
14.72
13.71
13.1
12.78
12.59
12.33
11.85
11.03
9.83
8.24
6.23
3.79
0.95
-2.22
-5.6
-9.15
-13.01
-17.48
-22.87
-29.23
-36.13
-42.61
-47.35
-49.07
-46.97
-40.97
-31.73
-20.45
-8.55
2.69
12.39
20.11
25.83
29.76
32.23
33.51
33.84
33.43
32.52
31.34
30.14
29.02
28.03
27.14
26.24
25.26
24.09
22.59
20.66
18.2
15.24
11.87
8.23
4.41
0.44
-3.73
-8.16
-12.95
-18.27
-24.33
-31.3
-38.98
-46.66
-53.03
-56.53
-55.93
-50.8
-41.75
-30.19
-17.81
-6.03
4.26
12.72
19.29
24.02
26.99
28.35
28.39
27.61
26.51
25.47
24.68
24.12
23.65
23.14
22.55
21.93
21.33
20.76
20.11
19.17
17.67
15.42
12.39
8.74
4.77
0.77
-3.1
-6.96
-11.04
-15.75
-21.39
-28.11
-35.64
-43.27
-49.85
-54.01
-54.58
-50.96
-43.4
-32.96
-21.2
-9.67
0.48
8.69
14.89
19.34
22.31
24.07
24.81
24.74
24.07
23.04
21.87
20.74
19.75
18.94
18.3
17.76
17.22
16.5
15.39
13.74
11.44
8.5
5.07
1.34
-2.48
-6.26
-9.98
-13.81
-18.03
-22.93
-28.73
-35.31
-42.08
-48.02
-51.83
-52.28
-48.68
-41.09
-30.37
-17.97
-5.43
5.89
15.18
22.16
26.9
29.65
30.66
30.18
28.54
26.22
23.79
21.8
20.56
20.1
20.15
20.29
20.16
19.56
18.45
16.96
15.23
13.37
11.43
9.36
7.04
4.29
0.91
-3.28
-8.42
-14.5
-21.25
-28.05
-33.84
-37.37
-37.57
-33.99
-27.07
-18.03
-8.39
0.57
8.18
14.39
19.42
23.39
26.15
27.4
27.0
25.19
22.59
19.92
17.71
16.14
15.02
13.99
12.71
11.01
8.88
6.47
3.95
1.45
-0.99
-3.43
-5.98
-8.79
-11.98
-15.63
-19.78
-24.44
-29.51
-34.57
-38.91
-41.5
-41.26
-37.47
-30.09
-19.8
-7.86
4.29
15.47
24.96
32.51
38.2
42.23
44.72
45.79
45.51
44.08
41.85
39.27
36.82
34.83
33.38
32.29
31.21
29.79
27.84
25.39
22.61
19.69
16.64
13.37
9.67
5.43
0.68
-4.5
-10.04
-15.92
-22.12
-28.33
-33.87
-37.71
-38.74
-36.2
-30.06
-21.09
-10.6
-0.01
9.6
17.67
24.09
28.95
32.31
34.14
34.43
33.31
31.2
28.69
26.32
24.51
23.39
22.86
22.7
22.64
22.46
21.92
20.86
19.14
16.74
13.76
10.37
6.79
3.21
-0.3
-3.77
-7.34
-11.22
-15.67
-20.87
-26.74
-32.79
-38.11
-41.46
-41.76
-38.36
-31.4
-21.75
-10.77
0.11
9.81
17.66
23.46
27.23
29.15
29.48
28.62
27.06
25.33
23.85
22.82
22.28
22.08
22.06
22.06
21.99
21.8
21.42
20.74
19.61
17.94
15.68
12.93
9.87
6.7
3.58
0.52
-2.62
-6.01
-9.79
-14.05
-18.73
-23.66
-28.5
-32.72
-35.59
-36.3
-34.3
-29.45
-22.26
-13.69
-4.92
3.07
9.7
14.81
18.47
20.84
22.02
22.15
21.44
20.2
18.75
17.39
16.26
15.36
14.65
14.06
13.55
13.09
12.65
12.17
11.56
10.7
9.47
7.77
5.58
3.01
0.3
-2.28
-4.51
-6.35
-8.01
-9.87
-12.35
-15.79
-20.24
-25.39
-30.49
-34.51
-36.42
-35.53
-31.71
-25.53
-18.03
-10.4
-3.61
1.83
5.81
8.51
10.15
10.88
10.78
9.96
8.61
7.07
5.71
4.83
4.5
4.59
4.86
5.07
5.08
4.9
4.62
4.26
3.75
2.9
1.54
-0.3
-2.45
-4.61
-6.51
-8.07
-9.35
-10.5
-11.64
-12.9
-14.39
-16.31
-18.89
-22.25
-26.16
-30.01
-32.91
-33.91
-32.44
-28.46
-22.48
-15.34
-7.99
-1.25
4.26
8.18
10.41
11.08
10.52
9.15
7.47
5.85
4.56
3.66
3.09
2.62
2.12
1.48
0.78
0.16
-0.24
-0.43
-0.56
-0.89
-1.62
-2.82
-4.4
-6.2
-8.1
-10.0
-11.88
-13.72
-15.52
-17.35
-19.37
-21.8
-24.78
-28.28
-31.94
-35.15
-37.18
-37.42
-35.5
-31.43
-25.64
-18.81
-11.79
-5.35
-0.04
3.91
6.53
7.97
8.42
8.02
6.92
5.31
3.5
1.78
0.4
-0.6
-1.28
-1.77
-2.18
-2.51
-2.73
-2.86
-3.02
-3.43
-4.3
-5.75
-7.71
-9.96
-12.17
-14.06
-15.47
-16.49
-17.4
-18.67
-20.71
-23.77
-27.77
-32.26
-36.48
-39.52
-40.58
-39.19
-35.33
-29.43
-22.29
-14.84
-7.9
-2.06
2.44
5.59
7.53
8.42
8.47
7.89
6.96
5.92
5.0
4.26
3.67
3.1
2.45
1.71
0.94
0.26
-0.26
-0.61
-0.94
-1.41
-2.21
-3.48
-5.27
-7.55
-10.19
-13.05
-15.98
-18.94
-22.02
-25.46
-29.48
-34.15
-39.16
-43.77
-46.96
-47.74
-45.5
-40.23
-32.53
-23.39
-13.83
-4.71
3.41
10.13
15.2
18.42
19.8
19.58
18.28
16.55
14.94
13.78
13.12
12.79
12.59
12.35
11.99
11.5
10.92
10.26
9.53
8.72
7.74
6.43
4.61
2.18
-0.82
-4.23
-7.8
-11.3
-14.65
-17.97
-21.58
-25.85
-31.08
-37.24
-43.85
-50.01
-54.53
-56.24
-54.33
-48.63
-39.65
-28.42
-16.25
-4.37
6.24
14.99
21.64
26.21
28.89
29.99
29.88
28.91
27.48
25.93
24.55
23.51
22.91
22.74
22.88
23.21
23.57
23.8
23.78
23.44
22.7
21.43
19.48
16.71
13.12
8.85
4.23
-0.38
-4.68
-8.55
-12.1
-15.56
-19.24
-23.55
-28.79
-35.08
-42.13
-49.11
-54.72
-57.46
-56.17
-50.43
-40.74
-28.36
-14.93
-1.91
9.64
19.23
26.75
32.27
35.9
37.71
37.84
36.57
34.4
31.98
29.98
28.8
28.52
28.81
29.19
29.29
29.0
28.53
28.14
28.0
27.92
27.46
26.07
23.4
19.38
14.33
8.78
3.29
-1.72
-6.02
-9.69
-13.03
-16.55
-20.81
-26.29
-33.12
-40.92
-48.72
-55.07
-58.4
-57.42
-51.57
-41.19
-27.5
-12.19
2.97
16.56
27.7
36.06
41.69
44.85
45.93
45.38
43.74
41.57
39.39
37.57
36.29
35.54
35.17
34.99
34.83
34.57
34.14
33.52
32.75
31.77
30.54
28.87
26.57
23.52
19.66
15.16
10.28
5.38
0.7
-3.61
-7.51
-11.05
-14.38
-17.67
-21.24
-25.47
-30.69
-36.99
-43.99
-50.75
-55.91
-57.98
-55.83
-49.08
-38.2
-24.47
-9.61
4.71
17.17
27.06
34.19
38.76
41.12
41.68
40.89
39.22
37.14
35.13
33.5
32.39
31.73
31.35
31.09
30.91
30.9
31.2
31.9
32.89
33.82
34.21
33.54
31.54
28.25
24.07
19.56
15.24
11.35
7.88
4.61
1.28
-2.2
-5.73
-9.09
-12.07
-14.62
-16.91
-19.23
-22.01
-25.63
-30.37
-36.24
-42.83
-49.25
-54.2
-56.27
-54.36
-48.06
-37.83
-24.89
-10.84
2.75
14.68
24.22
31.08
35.26
36.94
36.48
34.37
31.23
27.77
24.6
22.18
20.65
19.97
19.89
20.2
20.75
21.48
22.39
23.33
24.04
24.15
23.36
21.61
19.09
16.16
13.19
10.41
7.79
5.19
2.36
-0.83
-4.44
-8.41
-12.56
-16.69
-20.55
-23.96
-26.87
-29.44
-32.08
-35.32
-39.54
-44.64
-49.9
-54.06
-55.62
-53.42
-47.03
-36.91
-24.3
-10.76
2.19
13.42
22.25
28.42
31.96
33.09
32.19
29.81
26.66
23.45
20.83
19.18
18.56
18.74
19.32
19.93
20.37
20.58
20.66
20.69
20.61
20.29
19.48
18.02
15.86
13.06
9.81
6.31
2.72
-0.9
-4.58
-8.33
-12.17
-15.96
-19.54
-22.78
-25.7
-28.51
-31.55
-35.18
-39.65
-44.97
-50.79
-56.35
-60.58
-62.26
-60.41
-54.59
-45.13
-33.1
-19.98
-7.25
3.94
12.94
19.52
23.78
25.95
26.41
25.57
23.92
21.87
19.78
17.9
16.43
15.53
15.31
15.78
16.79
18.07
19.34
20.4
21.16
21.53
21.43
20.63
19.0
16.5
13.33
9.85
6.39
3.11
-0.05
-3.26
-6.69
-10.39
-14.25
-18.1
-21.77
-25.18
-28.4
-31.61
-35.14
-39.33
-44.37
-50.12
-55.97
-60.87
-63.56
-62.91
-58.27
-49.73
-38.12
-24.77
-11.18
1.32
11.88
20.11
26.02
29.76
31.53
31.6
30.3
28.21
25.95
24.16
23.2
23.1
23.63
24.48
25.45
26.46
27.54
28.65
29.64
30.2
30.04
28.94
26.89
24.03
20.69
17.19
13.8
10.62
7.56
4.37
0.8
-3.23
-7.59
-11.96
-16.01
-19.54
-22.58
-25.35
-28.19
-31.47
-35.57
-40.71
-46.79
-53.23
-58.88
-62.23
-61.87
-57.02
-47.84
-35.42
-21.4
-7.49
5.0
15.32
23.21
28.72
32.01
33.28
32.81
30.95
28.26
25.37
22.94
21.42
21.01
21.61
22.86
24.36
25.72
26.7
27.17
27.1
26.5
25.44
23.98
22.15
19.9
17.08
13.56
9.31
4.5
-0.5
-5.27
-9.5
-13.09
-16.21
-19.27
-22.76
-27.16
-32.78
-39.59
-47.05
-54.08
-59.21
-60.95
-58.29
-51.01
-39.86
-26.3
-12.08
1.23
12.57
21.45
27.82
31.9
33.98
34.4
33.48
31.67
29.46
27.33
25.69
24.75
24.52
24.79
25.26
25.68
25.89
25.82
25.47
24.84
23.89
22.53
20.63
18.07
14.75
10.64
5.84
0.63
-4.59
-9.43
-13.61
-17.16
-20.4
-23.88
-28.21
-33.79
-40.68
-48.39
-55.89
-61.76
-64.52
-63.0
-56.7
-46.07
-32.3
-17.11
-2.26
10.86
21.45
29.31
34.6
37.69
38.96
38.71
37.29
35.15
32.78
30.8
29.68
29.62
30.47
31.8
33.05
33.76
33.73
33.03
31.86
30.41
28.73
26.73
24.19
20.92
16.82
11.91
6.38
0.5
-5.39
-10.96
-16.0
-20.41
-24.29
-27.93
-31.78
-36.32
-41.87
-48.38
-55.22
-61.21
-64.81
-64.56
-59.54
-49.77
-36.28
-20.81
-5.34
8.44
19.52
27.6
32.98
36.2
37.83
38.32
38.03
37.28
36.42
35.76
35.51
35.74
36.37
37.21
38.08
