0
39.96
40.02
39.91
39.46
38.39
36.45
33.54
29.73
25.3
20.59
15.8
10.97
6.02
0.8
-4.72
-10.44
-16.19
-21.85
-27.43
-33.06
-39.05
-45.75
-53.38
-61.84
-70.45
-77.91
-82.51
-82.66
-77.54
-67.48
-53.92
-38.87
-24.25
-11.32
-0.44
8.59
16.24
22.86
28.59
33.43
37.32
40.25
42.29
43.48
43.88
43.58
42.68
41.39
40.0
38.79
38.0
37.68
37.62
37.44
36.68
35.01
32.36
28.91
24.99
20.99
17.16
13.57
10.08
6.47
2.48
-1.99
-6.84
-11.78
-16.44
-20.58
-24.26
-27.84
-31.91
-37.11
-43.83
-51.97
-60.77
-68.81
-74.35
-75.77
-72.2
-63.87
-52.09
-38.77
-25.74
-14.13
-4.26
4.15
11.57
18.28
24.2
29.11
32.81
35.32
36.83
37.71
38.26
38.7
39.07
39.37
39.56
39.71
39.91
40.25
40.71
41.02
40.76
39.44
36.76
32.76
27.84
22.61
17.6
13.09
8.94
4.75
0.07
-5.31
-11.21
-17.15
-22.63
-27.36
-31.45
-35.27
-39.21
-43.61
-48.62
-54.31
-60.46
-66.52
-71.37
-73.46
-71.32
-64.18
-52.51
-37.97
-22.81
-9.09
2.05
10.48
16.76
21.6
25.51
28.68
31.07
32.62
33.34
33.37
32.95
32.37
31.98
31.97
32.37
33.09
33.91
34.59
35.01
35.02
34.55
33.46
31.73
29.39
26.58
23.44
20.05
16.38
12.33
7.89
3.16
-1.66
-6.38
-10.84
-15.03
-19.09
-23.23
-27.76
-33.03
-39.38
-46.91
-55.3
-63.63
-70.49
-74.24
-73.55
-67.94
-57.95
-45.08
-31.22
-18.08
-6.68
2.71
10.33
16.59
21.66
25.49
27.93
28.92
28.68
27.66
26.43
25.53
25.35
26.04
27.49
29.34
31.05
32.13
32.27
31.49
29.99
28.09
25.92
23.42
20.32
16.37
11.53
6.05
0.37
-5.02
-9.8
-13.96
-17.82
-21.86
-26.65
-32.58
-39.91
-48.53
-57.87
-66.9
-74.11
-77.89
-76.93
-70.78
-60.12
-46.59
-32.33
-19.21
-8.35
0.12
6.75
12.31
17.33
21.93
25.9
28.94
30.84
31.64
31.56
31.0
30.36
29.99
30.1
30.73
31.76
32.93
33.95
34.54
34.5
33.73
32.18
29.85
26.73
22.81
18.16
12.96
7.49
2.03
-3.17
-8.02
-12.7
-17.47
-22.71
-28.68
-35.56
-43.39
-52.09
-61.33
-70.36
-77.97
-82.64
-82.93
-78.04
-68.23
-54.86
-39.94
-25.48
-12.85
-2.55
5.78
12.83
19.25
25.27
30.75
35.35
38.77
40.94
42.03
42.42
42.46
42.45
42.49
42.57
42.59
42.41
41.89
40.93
39.45
37.41
34.84
31.82
28.48
24.88
21.04
16.96
12.6
7.97
3.12
-1.87
-6.88
-11.82
-16.61
-21.24
-25.88
-30.91
-36.79
-43.99
-52.61
-62.16
-71.47
-78.9
-82.72
-81.74
-75.7
-65.34
-52.28
-38.34
-25.01
-13.13
-2.78
6.38
14.75
22.54
29.6
35.63
40.31
43.49
45.27
45.89
45.76
45.28
44.8
44.55
44.55
44.72
44.87
44.83
44.39
43.47
42.0
39.99
37.48
34.58
31.38
27.9
24.08
19.85
15.15
9.95
4.32
-1.63
-7.8
-14.17
-20.79
-27.78
-35.39
-43.92
-53.49
-63.87
-74.22
-83.04
-88.54
-89.17
-84.16
-73.83
-59.53
-43.2
-26.76
-11.67
1.36
12.28
21.43
29.19
35.72
40.89
44.47
46.34
46.72
46.21
45.55
45.31
45.68
46.47
47.31
47.83
47.83
47.3
46.34
44.98
43.25
41.18
38.75
36.01
32.97
29.64
25.92
21.64
16.59
10.7
4.15
-2.63
-9.1
-14.81
-19.67
-24.06
-28.7
-34.43
-41.79
-50.86
-61.05
-71.09
-79.23
-83.69
-83.12
-77.08
-66.3
-52.43
-37.52
-23.37
-10.97
-0.48
8.49
16.49
23.72
30.04
35.11
38.59
40.39
40.76
40.19
39.24
38.38
37.88
37.66
37.5
37.1
36.29
35.12
33.78
32.44
31.1
29.52
27.32
24.17
19.97
14.88
9.28
3.64
-1.68
-6.46
-10.76
-14.86
-19.17
-24.12
-30.04
-37.14
-45.37
-54.36
-63.29
-70.86
-75.51
-75.79
-70.95
-61.33
-48.31
-33.94
-20.2
-8.3
1.48
9.63
16.84
23.51
29.59
34.69
38.37
40.5
41.28
41.23
40.97
41.01
41.51
42.26
42.82
42.72
41.64
39.65
37.09
34.35
31.62
28.81
25.6
21.62
16.67
10.81
4.39
-2.12
-8.26
-13.73
-18.48
-22.69
-26.73
-31.09
-36.26
-42.66
-50.56
-59.85
-69.91
-79.46
-86.71
-89.76
-87.33
-79.19
-66.36
-50.72
-34.48
-19.37
-6.38
4.33
13.15
20.7
27.5
33.85
39.73
44.84
48.76
51.12
51.85
51.16
49.57
47.66
45.87
44.42
43.31
42.42
41.61
40.76
39.76
38.47
36.71
34.24
30.81
26.26
20.63
14.22
7.5
1.01
-4.84
-9.88
-14.22
-18.16
-22.08
-26.38
-31.45
-37.69
-45.35
-54.3
-63.83
-72.61
-78.89
-81.0
-77.96
-69.85
-57.82
-43.75
-29.63
-16.9
-6.16
2.8
10.68
18.17
25.58
32.82
39.39
44.71
48.37
50.26
50.65
50.02
48.97
48.01
47.41
47.23
47.31
47.41
47.23
46.51
44.95
42.34
38.64
34.06
29.04
24.14
19.78
16.13
12.93
9.72
6.03
1.57
-3.59
-9.11
-14.54
-19.56
-24.14
-28.58
-33.49
-39.55
-47.22
-56.46
-66.51
-75.88
-82.73
-85.31
-82.59
-74.61
-62.45
-47.93
-32.98
-19.02
-6.75
3.87
13.23
21.72
29.42
36.13
41.52
45.34
47.54
48.41
48.31
47.62
46.6
45.4
44.14
42.93
41.95
41.3
40.95
40.62
39.85
38.22
35.5
31.92
27.96
24.22
21.03
18.34
15.71
12.63
8.68
3.84
-1.65
-7.34
-12.89
-18.07
-22.89
-27.6
-32.57
-38.37
-45.53
-54.33
-64.43
-74.62
-83.05
-87.66
-86.96
-80.5
-69.13
-54.66
-39.16
-24.37
-11.29
-0.1
9.52
17.96
25.47
31.97
37.19
40.87
42.89
43.47
42.99
41.94
40.72
39.63
38.78
38.18
37.75
37.38
36.88
36.05
34.71
32.73
30.03
26.6
22.54
17.99
13.16
8.26
3.44
-1.27
-5.93
-10.55
-15.13
-19.55
-23.84
-28.12
-32.76
-38.17
-44.7
-52.37
-60.74
-68.82
-75.22
-78.39
-77.13
-70.99
-60.54
-47.26
-33.02
-19.47
-7.58
2.43
10.89
18.16
24.44
29.62
33.54
36.14
37.55
38.06
38.0
37.6
36.98
36.23
35.43
34.68
34.12
33.85
33.88
33.96
33.76
32.86
30.96
28.05
24.35
20.23
16.0
11.81
7.63
3.33
-1.24
-6.1
-11.14
-16.16
-20.89
-25.16
-29.0
-32.64
-36.56
-41.31
-47.39
-54.86
-63.23
-71.41
-77.87
-81.01
-79.69
-73.59
-63.36
-50.38
-36.33
-22.68
-10.28
0.66
10.33
18.98
26.69
33.28
38.51
42.25
44.55
45.6
45.7
45.1
44.0
42.62
41.17
39.88
38.97
38.52
38.51
38.78
38.98
38.74
37.64
35.47
32.22
28.18
23.83
19.61
15.73
12.11
8.32
3.96
-1.25
-7.19
-13.43
-19.35
-24.49
-28.73
-32.34
-35.92
-40.15
-45.61
-52.61
-60.93
-69.91
-78.3
-84.5
-86.92
-84.48
-77.01
-65.39
-51.26
-36.57
-22.89
-11.1
-1.37
6.68
13.56
19.61
25.02
29.72
33.58
36.51
38.5
39.68
40.2
40.22
39.84
39.1
38.16
37.28
36.82
37.12
38.21
39.75
41.05
41.36
40.13
37.27
33.16
28.47
23.89
19.88
16.52
13.53
10.49
7.02
2.98
-1.52
-6.22
-10.87
-15.34
-19.72
-24.26
-29.26
-35.05
-41.81
-49.62
-58.27
-67.13
-75.15
-80.91
-83.02
-80.48
-73.09
-61.59
-47.53
-32.74
-18.87
-6.9
3.02
11.33
18.64
25.36
31.4
36.33
39.61
40.98
40.61
39.11
37.25
35.65
34.64
34.2
34.12
34.15
34.17
34.14
34.01
33.65
32.77
31.12
28.55
25.25
21.63
18.18
15.22
12.78
10.51
7.91
4.53
0.18
-4.98
-10.54
-15.97
-20.84
-24.94
-28.4
-31.66
-35.39
-40.32
-46.87
-54.94
-63.74
-71.85
-77.57
-79.35
-76.35
-68.69
-57.46
-44.34
-31.06
-18.9
-8.44
0.41
8.01
14.72
20.61
25.52
29.21
31.59
32.8
33.13
32.99
32.68
32.38
32.23
32.26
32.52
33.04
33.79
34.66
35.41
35.69
35.17
33.62
30.95
27.28
22.81
17.71
12.13
6.16
-0.07
-6.32
-12.33
-17.94
-23.14
-28.14
-33.36
-39.19
-45.97
-53.82
-62.51
-71.38
-79.25
-84.59
-85.91
-82.24
-73.58
-60.94
-46.06
-30.78
-16.57
-4.2
6.2
14.9
22.24
28.48
33.72
37.97
41.18
43.34
44.47
44.68
44.16
43.14
41.93
40.79
39.94
39.53
39.52
39.71
39.63
38.76
36.68
33.23
28.69
23.56
18.43
13.68
9.33
5.16
0.84
-3.83
-8.81
-13.9
-18.87
-23.61
-28.21
-32.94
-38.17
-44.26
-51.55
-60.1
-69.51
-78.83
-86.53
-90.94
-90.69
-85.21
-75.04
-61.58
-46.67
-31.97
-18.59
-6.9
3.23
12.15
20.2
27.47
33.85
39.12
43.07
45.66
47.05
47.62
47.81
48.0
48.39
48.96
49.59
50.15
50.59
50.87
50.85
50.26
48.75
46.0
41.99
37.03
31.75
26.71
22.27
18.32
14.39
9.97
4.71
-1.31
-7.69
-13.88
-19.55
-24.64
-29.53
-34.83
-41.23
-49.26
-59.03
-69.98
-80.9
-90.02
-95.43
-95.69
-90.22
-79.58
-65.22
-49.04
-32.88
-18.01
-4.99
6.19
15.81
24.13
31.22
37.0
41.38
44.43
46.4
47.65
48.56
49.32
49.96
50.42
50.62
50.59
50.46
50.4
50.43
50.47
50.24
49.37
47.58
44.76
41.05
36.87
32.61
28.5
24.44
20.06
14.98
9.04
2.44
-4.33
-10.77
-16.62
-21.94
-27.09
-32.6
-38.95
-46.51
-55.39
-65.33
-75.48
-84.45
-90.45
-91.79
-87.49
-77.65
-63.53
-47.17
-30.81
-16.1
-3.81
6.13
14.4
21.61
28.09
33.68
38.01
40.77
41.93
41.85
41.05
40.11
39.44
39.24
39.54
40.26
41.22
42.18
42.86
42.96
42.3
40.75
38.41
35.46
32.16
28.66
25.02
21.21
17.05
12.44
7.28
1.63
-4.39
-10.57
-16.71
-22.66
-28.4
-34.13
-40.22
-47.02
-54.63
-62.65
-69.98
-75.12
-76.51
-73.16
-65.04
-53.11
-39.0
-24.38
-10.55
1.84
12.63
21.93
29.76
35.99
40.46
43.02
43.75
42.96
41.2
39.05
37.07
35.62
34.84
34.63
34.72
34.79
34.61
34.04
33.01
31.49
29.48
26.97
24.08
20.93
17.67
14.29
10.66
6.54
1.78
-3.61
-9.36
-15.13
-20.65
-25.87
-30.99
-36.34
-42.29
-49.15
-57.0
-65.6
-74.22
-81.59
-86.1
-86.18
-80.94
-70.62
-56.57
-40.89
-25.64
-12.21
-1.02
8.27
16.35
23.68
30.37
36.17
40.76
43.95
45.82
46.65
46.76
46.46
45.92
45.26
44.61
44.18
44.14
44.52
45.14
45.54
45.18
43.66
40.84
36.89
32.18
27.11
21.87
16.48
10.92
5.1
-0.92
-6.94
-12.72
-18.03
-22.77
-27.03
-31.22
-35.89
-41.64
-48.95
-57.82
-67.61
-77.09
-84.54
-88.23
-86.89
-80.11
-68.61
-53.92
-37.93
-22.4
-8.47
3.39
13.25
21.44
28.29
34.07
38.97
43.1
46.43
48.85
50.2
50.4
49.6
48.13
46.44
44.92
43.85
43.3
43.23
43.49
43.78
43.65
42.67
40.52
37.22
33.08
28.63
24.33
20.43
16.86
13.33
9.51
5.09
-0.01
-5.67
-11.59
-17.4
-22.82
-27.86
-32.83
-38.29
-44.82
-52.78
-62.0
-71.73
-80.58
-86.91
-89.13
-86.28
-78.38
-66.42
-52.07
-37.14
-22.97
-10.22
1.04
11.0
19.79
27.34
33.48
38.04
41.08
42.76
43.39
43.34
42.97
42.61
42.44
42.53
42.77
43.04
43.24
43.33
43.22
42.72
41.53
39.4
36.29
32.49
28.53
24.89
21.77
18.94
15.9
12.09
7.23
1.43
-4.88
-11.16
-16.93
-22.03
-26.61
-31.14
-36.22
-42.44
-50.11
-59.08
-68.58
-77.23
-83.3
-85.16
-81.83
-73.31
-60.65
-45.62
-30.12
-15.73
-3.3
6.96
15.24
21.82
26.87
30.46
32.64
33.57
33.52
32.86
31.94
31.07
30.49
30.35
30.71
31.52
32.61
33.73
34.68
35.2
35.19
34.55
33.25
31.3
28.76
25.65
22.0
17.83
13.14
7.96
2.46
-3.11
-8.52
-13.63
-18.48
-23.37
-28.66
-34.78
-42.02
-50.43
-59.69
-69.0
-77.05
-82.25
-83.12
-78.78
-69.31
-55.85
-40.23
-24.4
-9.88
2.57
12.92
21.57
28.92
35.11
39.94
43.13
44.45
44.05
42.33
39.91
37.34
34.96
32.9
31.18
29.95
29.38
29.67
30.78
32.32
33.58
33.86
32.69
30.1
26.55
22.69
19.03
15.79
12.76
9.49
5.47
0.4
-5.75
-12.65
-19.76
-26.53
-32.52
-37.65
-42.29
-47.08
-52.78
-59.95
-68.56
-77.88
-86.43
-92.37
-93.96
-90.17
-81.01
-67.59
-51.72
-35.33
-19.93
-6.3
5.41
15.48
24.14
31.46
37.36
41.74
44.66
46.4
47.32
47.76
47.87
47.65
47.03
45.99
44.69
43.42
42.5
42.14
42.29
42.67
42.8
42.23
40.63
37.93
34.29
30.07
25.69
21.41
17.3
13.14
8.56
3.23
-2.97
-9.8
-16.71
-23.06
-28.39
-32.66
-36.32
-40.15
-45.05
-51.67
-60.16
-69.88
-79.47
-87.08
-90.84
-89.41
-82.47
-70.84
-56.18
-40.52
-25.6
-12.54
-1.69
7.11
14.27
20.2
25.18
29.37
32.84
35.63
37.78
39.31
40.29
40.86
41.18
41.45
41.82
42.42
43.25
44.23
45.18
45.78
45.64
44.44
42.03
38.53
34.36
30.0
25.9
22.21
18.74
15.14
11.02
6.12
0.53
-5.45
-11.38
-16.88
-21.8
-26.31
-30.82
-35.91
-42.1
-49.62
-58.25
-67.18
-75.06
-80.25
-81.2
-77.0
-67.76
-54.63
-39.58
-24.66
-11.46
-0.69
7.83
14.73
20.61
25.7
29.88
32.83
34.4
34.75
34.34
33.77
33.49
33.69
34.29
35.07
35.8
36.37
36.82
37.21
37.46
37.33
36.41
34.38
31.2
27.17
22.87
18.8
15.15
11.64
7.74
2.93
-2.93
-9.45
-15.91
-21.59
-26.13
-29.72
-33.08
-37.14
-42.76
-50.34
-59.67
-69.82
-79.22
-86.07
-88.67
-85.98
-77.94
-65.53
-50.48
-34.77
-20.1
-7.44
3.01
11.63
19.01
25.59
31.45
36.41
40.2
42.69
44.02
44.54
44.66
44.64
44.56
44.36
43.94
43.39
42.89
42.67
42.76
42.9
42.55
41.2
38.57
34.84
30.55
26.29
22.45
18.98
15.43
11.26
6.07
-0.15
-7.1
-14.24
-21.12
-27.49
-33.37
-39.04
-44.96
-51.63
-59.4
-68.29
-77.75
-86.57
-93.11
-95.62
-92.85
-84.55
-71.63
-55.89
-39.43
-24.0
-10.52
0.98
11.03
20.18
28.65
36.24
42.48
47.01
49.82
51.2
51.65
51.59
51.24
50.68
49.88
48.95
48.1
47.58
47.5
47.77
47.95
47.51
45.93
43.02
38.92
34.16
29.38
25.11
21.47
18.15
14.56
10.14
4.6
-1.87
-8.76
-15.45
-21.5
-26.83
-31.7
-36.57
-41.98
-48.37
-56.02
-64.96
-74.7
-84.12
-91.52
-94.92
-92.79
-84.61
-71.27
-54.8
-37.67
-21.9
-8.53
2.49
11.77
19.99
27.45
34.07
39.6
43.81
46.73
48.53
49.44
49.73
49.54
49.05
48.37
47.59
46.78
46.05
45.53
45.24
45.06
44.6
43.37
40.96
37.26
32.54
27.43
22.58
18.42
14.94
11.78
8.36
4.21
-0.82
-6.51
-12.41
-17.98
-22.88
-27.09
-30.94
-35.02
-39.98
-46.39
-54.46
-63.96
-73.96
-82.96
-89.03
-90.4
-86.03
-76.03
-61.75
-45.3
-28.86
-14.01
-1.42
9.06
17.94
25.63
32.24
37.61
41.51
43.94
45.13
45.48
45.43
45.23
44.99
44.74
44.5
44.39
44.57
45.08
45.75
46.15
45.71
43.97
40.82
36.56
31.78
27.15
23.03
19.37
15.78
11.68
6.65
0.63
-6.01
-12.65
-18.71
-23.94
-28.49
-32.9
-37.8
-43.78
-51.14
-59.77
-69.0
-77.59
-83.82
-85.97
-82.82
-74.2
-61.12
-45.46
-29.34
-14.49
-1.85
8.41
16.59
23.06
28.05
31.69
34.04
35.26
35.61
35.43
35.08
34.9
35.08
35.71
36.73
38.01
39.42
40.83
42.06
42.81
42.67
41.27
38.4
34.27
29.43
24.54
20.1
16.2
12.48
8.4
3.55
-2.15
-8.38
-14.61
-20.4
-25.54
-30.14
-34.6
-39.5
-45.48
-53.06
-62.39
-72.97
-83.52
-92.14
-96.75
-95.82
-88.91
-76.91
-61.73
-45.68
-30.64
-17.71
-7.03
1.86
9.62
16.71
23.3
29.27
34.45
38.72
42.0
44.38
45.96
46.89
47.27
47.22
46.88
46.47
46.33
46.73
47.7
48.93
49.73
49.3
47.1
43.03
37.61
31.68
26.11
21.47
17.82
14.76
11.63
7.78
2.77
-3.46
-10.56
-17.94
-24.99
-31.36
-37.14
-42.86
-49.27
-57.12
-66.68
-77.55
-88.52
-97.75
-103.14
-102.96
-96.45
-84.15
-67.8
-49.67
-31.99
-16.26
-3.03
7.85
16.89
24.57
31.17
36.73
41.24
44.67
47.11
48.71
49.76
50.5
51.13
51.7
52.14
52.35
52.32
52.17
52.05
51.96
51.67
50.77
48.83
45.58
41.13
35.85
30.31
24.99
20.1
15.62
11.21
6.44
0.94
-5.38
-12.27
-19.17
-25.44
-30.71
-35.04
-38.96
-43.32
-48.99
-56.48
-65.69
-75.81
-85.34
-92.35
-95.05
-92.24
-83.82
-70.78
-54.94
-38.37
-22.69
-8.83
2.96
12.96
21.44
28.62
34.59
39.38
43.09
45.84
47.75
48.9
49.34
49.13
48.46
47.58
46.81
46.39
46.47
46.99
47.71
48.23
48.12
46.97
44.55
40.93
36.41
31.52
26.84
22.72
19.22
15.92
12.21
7.49
1.5
-5.53
-12.95
-20.02
-26.24
-31.6
-36.6
-42.08
-48.83
-57.3
-67.27
-77.81
-87.31
-93.78
-95.48
-91.33
-81.41
-66.96
-50.02
-32.85
-17.21
-4.09
6.4
14.7
21.45
27.06
31.67
35.18
37.48
38.62
38.86
38.56
38.12
37.76
37.63
37.73
38.08
38.64
39.35
40.0
40.34
40.01
38.8
36.64
33.65
30.05
26.01
21.61
16.88
11.8
6.4
0.79
-4.92
-10.56
-16.11
-21.61
-27.24
-33.26
-39.98
-47.62
-56.23
-65.48
-74.53
-81.95
-86.05
-85.32
-79.0
-67.41
-51.96
-34.71
-17.71
-2.45
10.33
20.6
28.7
34.99
39.76
43.16
45.26
46.13
45.96
45.05
43.77
42.51
41.56
41.07
41.05
41.36
41.84
42.3
42.52
42.16
40.86
38.37
34.58
29.77
24.43
19.13
14.27
9.9
5.77
1.43
-3.52
-9.26
-15.63
-22.27
-28.7
-34.61
-40.02
-45.36
-51.36
-58.79
-68.05
-78.79
-89.73
-98.9
-104.08
-103.51
-96.48
-83.61
-66.65
-47.97
-29.71
-13.38
0.45
11.91
21.43
29.33
35.76
40.72
44.31
46.86
48.81
50.6
52.36
53.97
55.15
55.65
55.38
54.48
53.24
51.94
50.72
49.5
47.99
45.73
42.41
38.0
32.83
27.5
22.55
18.18
14.18
10.06
5.33
-0.12
-6.06
-11.97
-17.35
-22.05
-26.28
-30.62
-35.86
-42.78
-51.83
-62.91
-75.19
-87.03
-96.31
-100.95
-99.52
-91.7
-78.41
-61.56
-43.44
-26.09
-10.76
2.18
13.06
22.46
30.77
38.06
44.1
48.62
51.56
53.12
53.63
53.47
52.87
51.9
50.57
48.98
47.29
45.74
44.54
43.73
43.16
42.46
41.16
38.88
35.52
31.36
26.92
22.77
19.23
16.18
13.15
9.55
4.98
-0.61
-6.89
-13.38
-19.61
-25.35
-30.66
-35.87
-41.49
-48.08
-56.04
-65.33
-75.21
-84.23
-90.42
-91.89
-87.51
-77.33
-62.66
-45.65
-28.57
-13.1
-0.03
10.69
19.56
27.04
33.35
38.43
42.22
44.83
46.51
47.64
48.46
49.04
49.27
49.03
48.36
47.45
46.59
46.02
45.77
45.65
45.24
44.1
41.9
38.57
34.36
29.75
25.27
21.22
17.55
13.87
9.65
4.51
-1.66
-8.59
-15.77
-22.66
-28.92
-34.51
-39.76
-45.23
-51.62
-59.43
-68.59
-78.24
-86.78
-92.19
-92.68
-87.29
-76.39
-61.46
-44.68
-28.13
-13.29
-0.72
9.68
18.37
25.76
32.02
37.08
40.75
42.91
43.57
42.95
41.44
39.57
37.82
36.58
36.0
35.95
36.15
36.25
35.96
35.17
33.85
32.09
29.97
27.49
24.62
21.29
17.44
13.02
8.12
2.85
-2.61
-8.07
-13.41
-18.62
-23.82
-29.26
-35.34
-42.52
-51.15
-61.17
-71.87
-81.79
-88.94
-91.32
-87.72
-78.13
-63.84
-46.98
-29.79
-13.98
-0.37
10.99
20.45
28.44
35.18
40.7
44.9
47.75
49.3
49.7
49.16
47.95
46.4
44.86
43.66
43.08
43.16
43.7
44.25
44.22
43.12
40.65
36.86
32.11
26.88
21.63
16.61
11.84
7.09
2.06
-3.48
-9.52
-15.78
-21.84
-27.29
-31.99
-36.12
-40.19
-44.9
-50.9
-58.65
-68.11
-78.55
-88.47
-95.83
-98.57
-95.28
-85.73
-71.07
-53.4
-35.13
-18.18
-3.64
8.32
18.05
26.13
32.98
38.79
43.5
46.93
48.99
49.79
49.65
49.08
48.54
48.27
48.3
48.5
48.75
49.0
49.17
49.1
48.52
47.02
44.4
40.68
36.18
31.44
26.95
22.98
19.45
15.97
11.96
6.96
0.81
-6.21
-13.43
-20.07
-25.62
-30.05
-33.89
-38.06
-43.56
-51.13
-61.0
-72.59
-84.48
-94.55
-100.42
-100.23
-93.29
-80.42
-63.64
-45.51
-28.27
-13.25
-0.83
9.32
17.75
24.92
31.05
36.22
40.46
43.82
46.33
48.0
48.84
48.78
47.87
46.34
44.58
43.16
42.63
43.26
44.87
46.87
48.4
48.66
47.25
44.16
39.77
34.63
29.32
24.21
19.45
14.88
10.06
4.62
-1.72
-8.81
-16.15
-23.15
-29.39
-34.83
-39.91
-45.28
-51.62
-59.35
-68.32
-77.81
-86.46
-92.51
-94.23
-90.52
-81.38
-67.91
-52.01
-35.71
-20.52
-7.21
4.18
14.01
22.62
30.13
36.48
41.41
44.74
46.49
46.92
46.48
45.71
45.05
44.74
44.79
45.07
45.41
45.7
45.71
45.2
43.84
41.42
37.95
33.78
29.43
25.36
21.72
18.3
14.64
10.34
5.17
-0.71
-6.97
-13.17
-19.02
-24.44
-29.63
-34.95
-40.86
-47.77
-55.86
-64.83
-73.73
-81.03
-84.96
-84.01
-77.55
-66.05
-51.01
-34.42
-18.17
-3.52
9.01
19.44
27.94
34.6
39.36
42.19
43.3
43.15
42.35
41.49
40.93
40.76
40.83
40.96
40.93
40.62
39.96
38.9
37.4
35.36
32.72
29.46
25.69
21.57
17.29
12.93
8.4
3.46
-2.09
-8.29
-14.89
-21.37
-27.18
-32.03
-36.09
-39.97
-44.54
-50.56
-58.54
-68.4
-79.35
-89.9
-98.01
-101.54
-98.93
-89.71
-74.86
-56.46
-37.13
-19.11
-3.78
8.52
18.23
26.02
32.46
37.83
42.2
45.52
47.78
49.0
49.34
48.97
48.09
46.91
45.66
44.54
43.75
43.44
43.66
44.27
44.88
44.92
43.86
41.41
37.65
33.0
27.98
23.03
18.32
13.77
9.15
4.22
-1.11
-6.8
-12.66
-18.45
-23.99
-29.28
-34.52
-40.2
-46.9
-55.11
-64.91
-75.74
-86.32
-94.77
-99.14
-97.94
-90.71
-78.23
-62.29
-45.07
-28.43
-13.48
-0.5
10.79
20.79
29.69
37.43
43.75
48.41
51.33
52.62
52.58
51.67
50.39
49.16
48.22
47.66
47.4
47.41
47.7
48.28
48.99
49.48
49.21
47.69
44.72
40.4
35.19
29.68
24.34
19.38
14.71
10.02
4.89
-0.94
-7.52
-14.54
-21.46
-27.7
-32.94
-37.24
-41.12
-45.34
-50.68
-57.74
-66.67
-77.0
-87.51
-96.27
-101.06
-100.05
-92.45
-78.89
-61.29
-42.2
-23.99
-8.16
4.78
15.16
23.62
30.69
36.62
41.36
44.81
46.95
47.9
47.99
47.63
47.22
47.01
47.1
47.46
48.03
48.78
49.69
50.73
51.7
52.28
51.98
50.34
47.02
42.04
35.83
29.13
22.81
17.53
13.49
10.41
7.67
4.58
0.68
-4.11
-9.57
-15.29
-20.93
-26.26
-31.28
-36.17
-41.31
-47.23
-54.45
-63.24
-73.33
-83.69
-92.58
-97.97
-98.12
-92.17
-80.48
-64.57
-46.55
-28.58
-12.24
1.7
13.22
22.64
30.39
36.7
41.64
45.19
47.37
48.39
48.51
48.05
47.24
46.2
45.02
43.75
42.51
41.48
40.8
40.45
40.18
39.5
37.89
34.97
30.75
25.6
20.16
15.02
10.53
6.61
2.95
-0.86
-5.11
-9.82
-14.7
-19.41
-23.64
-27.32
-30.64
-34.05
-38.14
-43.53
-50.62
-59.4
-69.16
-78.45
-85.31
-87.73
-84.35
-74.91
-60.51
-43.21
-25.4
-9.06
4.68
15.58
24.02
30.59
35.75
39.65
42.31
43.69
43.85
43.04
41.63
39.94
38.18
36.5
34.95
33.68
32.84
32.53
32.72
33.07
33.1
32.31
30.36
27.27
23.39
19.23
15.29
11.85
8.83
5.86
2.39
-2.07
-7.74
-14.45
-21.65
-28.64
-34.87
-40.22
-45.03
-50.11
-56.38
-64.55
-74.67
-85.9
-96.51
-104.21
-106.84
-103.05
-92.86
-77.55
-59.32
-40.54
-23.07
-7.96
4.56
14.76
23.12
30.05
35.83
40.53
44.16
46.75
48.39
49.3
49.75
49.98
50.1
50.14
50.17
50.32
50.8
51.72
52.9
53.85
53.84
52.21
48.65
43.28
36.73
29.83
23.36
17.82
13.22
9.14
4.92
-0.04
-6.02
-12.83
-19.93
-26.64
-32.48
-37.38
-41.72
-46.14
-51.43
-58.22
-66.87
-77.06
-87.75
-97.13
-103.01
-103.46
-97.52
-85.52
-69.09
-50.54
-32.12
-15.46
-1.35
10.19
19.49
27.02
33.16
38.15
42.16
45.22
47.33
48.44
48.59
48.0
46.98
45.92
45.13
44.79
44.96
45.6
46.61
47.81
48.91
49.46
48.94
46.95
43.35
38.42
32.85
27.46
22.88
19.22
16.02
12.46
7.8
1.74
-5.42
-12.9
-19.88
-25.89
-30.95
-35.58
-40.46
-46.32
-53.59
-62.42
-72.49
-82.86
-91.99
-97.92
-98.81
-93.51
-82.14
-66.12
-47.7
-29.25
-12.56
1.6
13.31
23.06
31.27
38.13
43.61
47.63
50.23
51.62
52.09
51.92
51.31
50.41
49.41
48.47
47.79
47.43
47.34
47.31
47.06
46.27
44.68
42.2
38.91
35.1
31.12
27.28
23.71
20.21
16.38
11.8
6.21
-0.27
-7.18
-13.85
-19.75
-24.64
-28.77
-32.71
-37.25
-43.13
-50.85
-60.41
-71.13
-81.58
-89.71
-93.4
-91.05
-82.28
-68.15
-50.88
-33.07
-16.82
-3.18
7.85
16.9
24.63
31.3
36.72
40.49
42.36
42.41
41.11
39.12
37.1
35.57
34.74
34.62
35.01
35.63
36.13
36.25
35.78
34.6
32.69
30.13
27.08
23.69
20.08
16.28
12.27
7.97
3.41
-1.32
-6.09
-10.82
-15.56
-20.51
-26.01
-32.47
-40.29
-49.69
-60.51
-71.98
-82.61
-90.44
-93.52
-90.54
-81.36
-67.17
-50.07
-32.39
-16.01
-1.92
9.77
19.51
27.85
35.06
41.15
45.96
49.32
51.31
52.15
52.2
51.72
50.88
49.76
48.47
47.16
45.98
45.01
44.13
43.05
41.38
38.83
35.35
31.15
26.58
22.04
17.77
13.82
9.93
5.69
0.71
-5.18
-11.86
-18.87
-25.68
-31.9
-37.58
-43.14
-49.28
-56.73
-65.82
-76.26
-86.93
-96.02
-101.42
-101.36
-95.02
-82.85
-66.53
-48.31
-30.38
-14.23
-0.48
10.99
20.66
29.02
36.31
42.57
47.72
51.7
54.59
56.59
57.99
59.01
59.77
60.26
60.37
60.14
59.68
59.16
58.61
57.79
56.16
53.2
48.66
42.77
36.27
29.99
24.58
20.18
16.35
12.39
7.64
1.84
-4.74
-11.54
-17.93
-23.56
-28.47
-33.07
-38.02
-44.03
-51.66
-61.23
-72.43
-84.22
-94.79
-101.84
-103.28
-97.97
-86.24
-69.82
-51.19
-32.82
-16.38
-2.48
9.05
18.8
27.23
34.52
40.5
44.96
47.77
49.06
49.2
48.63
47.74
46.72
45.64
44.56
43.65
43.23
43.53
44.54
45.9
46.86
46.71
44.99
41.78
37.59
33.1
28.89
25.2
21.86
18.45
14.51
9.76
4.23
-1.87
-8.15
-14.29
-20.13
-25.74
-31.38
-37.52
-44.68
-53.29
-63.34
-74.22
-84.49
-92.16
-95.19
-92.23
-83.13
-69.01
-52.0
-34.44
-18.18
-4.2
7.31
16.66
24.24
30.26
34.71
37.57
38.93
39.15
38.7
38.09
37.69
37.61
37.86
38.34
39.02
39.89
40.96
42.12
43.12
43.62
43.29
41.93
39.55
36.31
32.49
28.25
23.67
18.67
13.12
7.0
0.42
-6.31
-12.87
-19.04
-24.83
-30.54
-36.64
-43.67
-52.0
-61.67
-72.12
-82.15
-89.99
-93.71
-91.79
-83.79
-70.51
-53.89
-36.33
-19.97
-6.04
5.24
14.32
21.89
28.37
33.84
38.14
41.1
42.77
43.46
43.6
43.58
43.6
43.66
43.66
43.48
43.05
42.35
41.34
39.82
37.58
34.43
30.43
25.82
20.97
16.25
11.73
7.28
2.63
-2.38
-7.73
-13.23
-18.56
-23.51
-28.06
-32.42
-37.04
-42.54
-49.55
-58.47
-69.08
-80.34
-90.36
-96.82
-97.64
-91.84
-79.89
-63.63
-45.63
-28.33
-13.39
-1.4
7.96
15.43
21.75
27.47
32.76
37.66
42.01
45.61
48.29
49.95
50.69
50.7
50.32
49.86
49.59
49.61
49.94
50.44
50.78
50.5
49.1
46.26
42.0
36.68
30.9
25.19
19.78
14.57
9.22
3.45
-2.83
-9.56
-16.52
-23.46
-30.26
-36.93
-43.68
-50.97
-59.38
-69.42
-81.05
-93.37
-104.58
-112.31
-114.34
-109.39
-97.57
-80.47
-60.55
-40.44
-22.09
-6.44
6.58
17.63
27.41
36.26
44.06
50.43
55.04
57.85
59.13
59.36
59.01
58.43
57.81
57.27
56.88
56.75
56.89
57.2
57.39
56.99
55.47
52.48
48.0
42.48
36.62
31.21
26.64
22.82
19.17
14.93
9.54
2.83
-4.83
-12.81
-20.42
-27.22
-33.18
-38.7
-44.47
-51.32
-59.94
-70.45
-82.23
-93.73
-102.71
-106.89
-104.57
-95.36
-80.28
-61.51
-41.68
-23.0
-6.81
6.57
17.55
26.77
34.74
41.66
47.44
51.88
54.81
56.2
56.24
55.23
53.63
51.9
50.47
49.59
49.39
49.82
50.71
51.74
52.47
52.39
51.01
48.14
43.93
38.89
33.71
28.92
24.67
20.65
16.31
11.15
5.05
-1.73
-8.66
-15.24
-21.25
-26.88
-32.63
-39.17
-47.12
-56.78
-67.97
-79.85
-90.84
-98.87
-101.88
-98.53
-88.73
-73.8
-56.06
-38.05
-21.73
-8.03
3.1
12.23
20.02
26.85
32.78
37.65
41.29
43.61
44.64
44.61
43.89
42.96
42.26
42.15
42.71
43.81
45.2
46.52
47.4
47.5
46.56
44.46
41.28
37.34
33.02
28.6
24.12
19.46
14.39
8.77
2.62
-3.84
-10.39
-16.86
-23.23
-29.74
-36.81
-44.94
-54.54
-65.59
-77.33
-88.21
-96.15
-99.11
-95.81
-86.21
-71.64
-54.25
-36.41
-19.94
-5.7
6.29
16.53
25.5
33.4
40.03
45.04
48.22
49.68
49.85
49.3
48.5
47.67
46.86
46.06
45.35
44.9
44.85
45.16
45.51
45.42
44.36
42.0
38.34
33.72
28.7
23.8
19.27
15.04
10.72
5.87
0.16
-6.45
-13.68
-21.06
-28.12
-34.52
-40.27
-45.71
-51.54
-58.57
-67.37
-77.9
-89.19
-99.28
-105.83
-106.75
-101.0
-88.99
-72.4
-53.57
-34.8
-17.67
-2.87
9.64
20.3
29.56
37.67
44.65
50.42
54.87
58.03
60.01
61.04
61.37
61.2
60.65
59.8
58.67
57.27
55.67
53.93
52.1
50.17
48.05
45.54
42.45
38.7
34.37
29.72
25.1
20.73
16.58
12.35
7.63
2.06
-4.43
-11.6
-18.92
-25.81
-31.86
-36.93
-41.3
-45.56
-50.45
-56.67
-64.6
-74.1
-84.34
-93.89
-100.84
-103.36
-100.1
-90.76
-76.26
-58.51
-39.81
-22.16
-6.74
6.23
17.15
26.6
34.93
42.16
48.02
52.28
54.86
55.97
55.98
55.4
54.68
54.08
53.71
53.47
53.24
52.92
52.55
52.23
51.95
51.51
50.48
48.31
44.64
39.51
33.4
27.06
21.24
16.31
12.11
8.06
3.5
-2.03
-8.47
-15.38
-22.05
-27.96
-32.85
-36.86
-40.46
-44.24
-48.85
-54.81
-62.43
-71.6
-81.58
-90.88
-97.54
-99.53
-95.54
-85.46
-70.49
-52.8
-34.74
-18.19
-4.06
7.65
17.43
25.73
32.68
38.09
41.67
43.4
43.61
42.87
41.78
40.68
39.71
38.83
38.06
37.57
37.59
38.29
39.57
41.03
42.05
42.02
40.52
37.46
33.12
28.07
22.98
18.38
14.41
10.82
7.05
2.53
-3.0
-9.32
-15.86
