0
-31.04
-20.86
-10.45
-0.65
8.07
15.44
21.39
25.87
28.86
30.44
30.82
30.3
29.23
27.91
26.55
25.29
24.25
23.55
23.27
23.45
24.04
24.88
25.69
26.2
26.18
25.53
24.25
22.51
20.48
18.3
16.07
13.74
11.22
8.44
5.34
1.93
-1.71
-5.51
-9.34
-13.07
-16.58
-19.85
-23.0
-26.34
-30.27
-35.06
-40.66
-46.56
-51.81
-55.3
-56.02
-53.44
-47.59
-39.12
-29.06
-18.58
-8.71
-0.12
6.89
12.34
16.35
19.05
20.54
20.9
20.33
19.14
17.71
16.43
15.53
15.11
15.15
15.62
16.51
17.75
19.22
20.68
21.83
22.35
22.05
20.92
19.11
16.84
14.29
11.56
8.64
5.47
2.03
-1.59
-5.27
-8.84
-12.19
-15.28
-18.13
-20.83
-23.56
-26.63
-30.36
-34.97
-40.37
-45.99
-50.84
-53.68
-53.48
-49.71
-42.55
-32.82
-21.64
-10.21
0.56
10.04
17.94
24.21
28.89
32.1
34.06
34.96
35.02
34.44
33.37
31.93
30.32
28.76
27.51
26.82
26.79
27.35
28.3
29.29
30.0
30.12
29.47
27.92
25.48
22.27
18.53
14.6
10.84
7.45
4.41
1.48
-1.64
-5.14
-8.94
-12.8
-16.41
-19.62
-22.55
-25.58
-29.13
-33.55
-38.91
-44.99
-51.19
-56.73
-60.68
-62.13
-60.45
-55.44
-47.49
-37.42
-26.27
-15.0
-4.31
5.35
13.73
20.61
25.83
29.3
31.07
31.41
30.7
29.39
27.87
26.41
25.16
24.15
23.36
22.75
22.3
22.05
22.04
22.27
22.66
23.04
23.2
22.92
22.09
20.64
18.63
16.15
13.39
10.52
7.7
4.95
2.19
-0.75
-3.99
-7.54
-11.23
-14.8
-17.99
-20.67
-22.91
-24.94
-27.14
-29.91
-33.53
-38.01
-43.01
-47.75
-51.18
-52.23
-50.19
-44.94
-36.97
-27.19
-16.61
-6.08
3.83
12.79
20.53
26.84
31.52
34.47
35.77
35.73
34.75
33.28
31.7
30.25
29.08
28.23
27.66
27.34
27.25
27.4
27.81
28.43
29.09
29.51
29.41
28.6
27.12
25.15
22.94
20.67
18.36
15.88
13.05
9.8
6.17
2.32
-1.51
-5.16
-8.54
-11.66
-14.59
-17.48
-20.5
-23.88
-27.8
-32.45
-37.8
-43.56
-49.06
-53.34
-55.34
-54.26
-49.84
-42.49
-33.13
-22.96
-13.0
-3.95
3.91
10.53
15.86
19.83
22.27
23.11
22.51
20.9
18.85
16.94
15.54
14.8
14.64
14.93
15.57
16.49
17.64
18.91
20.07
20.82
20.91
20.21
18.8
16.9
14.79
12.69
10.65
8.63
6.5
4.16
1.52
-1.44
-4.69
-8.13
-11.6
-14.9
-17.88
-20.51
-22.98
-25.65
-28.94
-33.17
-38.35
-44.05
-49.39
-53.29
-54.72
-53.01
-48.06
-40.35
-30.77
-20.36
-10.0
-0.28
8.48
16.16
22.61
27.68
31.25
33.28
33.9
33.39
32.19
30.68
29.17
27.85
26.72
25.75
24.93
24.32
24.02
24.12
24.58
25.21
25.68
25.66
24.9
23.33
21.03
18.22
15.14
11.99
8.91
5.94
3.06
0.19
-2.81
-6.1
-9.73
-13.63
-17.59
-21.33
-24.6
-27.35
-29.73
-32.11
-34.9
-38.43
-42.81
-47.86
-53.06
-57.62
-60.58
-61.04
-58.37
-52.42
-43.64
-32.96
-21.54
-10.43
-0.38
8.31
15.62
21.69
26.58
30.28
32.71
33.89
33.95
33.19
31.97
30.67
29.56
28.8
28.46
28.49
28.86
29.47
30.26
31.13
31.96
32.56
32.7
32.15
30.8
28.73
26.15
23.35
20.59
17.96
15.39
12.71
9.73
6.36
2.59
-1.46
-5.62
-9.65
-13.3
-16.44
-19.14
-21.68
-24.52
-28.1
-32.69
-38.25
-44.36
-50.3
-55.17
-58.07
-58.27
-55.39
-49.5
-41.16
-31.24
-20.75
-10.53
-1.12
7.22
14.37
20.21
24.58
27.3
28.32
27.86
26.32
24.29
22.34
20.87
20.09
20.01
20.51
21.45
22.69
24.09
25.52
26.79
27.68
28.0
27.61
26.52
24.88
22.89
20.72
18.45
16.08
13.56
10.9
8.09
5.16
2.09
-1.11
-4.46
-7.89
-11.26
-14.46
-17.44
-20.32
-23.28
-26.57
-30.36
-34.76
-39.71
-44.99
-50.12
-54.35
-56.81
-56.7
-53.6
-47.64
-39.47
-30.02
-20.21
-10.71
-1.95
5.84
12.46
17.74
21.54
23.79
24.53
23.98
22.47
20.45
18.38
16.69
15.67
15.38
15.72
16.46
17.41
18.44
19.52
20.57
21.4
21.78
21.4
20.14
18.04
15.36
12.46
9.61
6.88
4.14
1.12
-2.42
-6.49
-10.85
-15.1
-18.93
-22.26
-25.32
-28.53
-32.3
-36.81
-41.92
-47.15
-51.83
-55.18
-56.5
-55.25
-51.19
-44.41
-35.44
-25.12
-14.47
-4.48
4.16
11.17
16.58
20.63
23.56
25.48
26.39
26.27
25.26
23.72
22.16
21.1
20.81
21.26
22.15
23.1
23.84
24.28
24.51
24.6
24.55
24.2
23.28
21.64
19.28
16.39
13.3
10.28
7.45
4.72
1.91
-1.17
-4.51
-7.91
-11.09
-13.82
-16.15
-18.39
-21.01
-24.45
-28.89
-34.24
-40.19
-46.32
-52.12
-56.97
-60.09
-60.69
-58.12
-52.23
-43.44
-32.73
-21.31
-10.27
-0.33
8.19
15.29
21.05
25.52
28.68
30.52
31.08
30.56
29.26
27.55
25.82
24.35
23.33
22.85
22.93
23.52
24.57
25.97
27.49
28.82
29.56
29.41
28.24
26.18
23.52
20.67
17.9
15.33
12.85
10.22
7.17
3.56
-0.59
-5.06
-9.47
-13.42
-16.66
-19.13
-21.05
-22.85
-25.04
-28.08
-32.24
-37.47
-43.32
-48.98
-53.35
-55.29
-54.03
-49.34
-41.66
-31.97
-21.36
-10.78
-0.79
8.43
16.87
24.45
30.92
35.93
39.14
40.48
40.17
38.65
36.48
34.12
31.9
29.97
28.42
27.28
26.62
26.45
26.69
27.19
27.73
28.07
28.01
27.36
26.03
24.0
21.38
18.36
15.21
12.14
9.26
6.55
3.87
1.06
-2.0
-5.34
-8.96
-12.75
-16.56
-20.3
-23.91
-27.45
-31.12
-35.16
-39.72
-44.64
-49.34
-52.9
-54.32
-52.83
-48.23
-40.87
-31.59
-21.4
-11.17
-1.52
7.19
14.76
21.01
25.72
28.75
30.06
29.83
28.44
26.41
24.28
22.45
21.18
20.53
20.47
20.91
21.78
22.96
24.29
25.47
26.11
25.86
24.52
22.19
19.24
16.16
13.35
10.92
8.73
6.44
3.79
0.7
-2.66
-6.02
-9.15
-12.02
-14.75
-17.55
-20.65
-24.22
-28.42
-33.28
-38.68
-44.17
-48.97
-52.1
-52.62
-50.01
-44.29
-35.99
-26.07
-15.54
-5.37
3.76
11.39
17.3
21.5
24.14
25.48
25.75
25.21
24.03
22.42
20.65
19.02
17.78
17.13
17.08
17.54
18.33
19.23
20.03
20.5
20.47
19.76
18.35
16.28
13.76
11.01
8.22
5.49
2.75
-0.14
-3.38
-7.0
-10.89
-14.76
-18.3
-21.31
-23.9
-26.42
-29.35
-33.1
-37.79
-43.16
-48.59
-53.18
-55.94
-56.02
-52.91
-46.6
-37.65
-27.02
-15.9
-5.33
3.98
11.79
18.12
23.15
27.0
29.67
31.15
31.51
30.96
29.79
28.3
26.75
25.3
24.15
23.47
23.5
24.31
25.8
27.62
29.3
30.4
30.67
30.06
28.68
26.74
24.42
21.85
19.15
16.41
13.64
10.77
7.69
4.31
0.65
-3.17
-6.97
-10.63
-14.09
-17.45
-20.91
-24.73
-29.14
-34.2
-39.72
-45.14
-49.59
-52.13
-51.98
-48.78
-42.69
-34.33
-24.55
-14.22
-4.09
5.33
13.65
20.62
26.07
29.89
32.02
32.57
31.82
30.2
28.22
26.35
24.91
23.96
23.39
23.04
22.81
22.71
22.82
23.15
23.56
23.8
23.54
22.6
20.94
18.75
16.27
13.76
11.31
8.9
6.41
3.73
0.82
-2.24
-5.36
-8.46
-11.52
-14.56
-17.64
-20.82
-24.22
-27.91
-31.94
-36.28
-40.65
-44.58
-47.38
-48.32
-46.85
-42.76
-36.25
-27.92
-18.58
-9.06
-0.01
8.12
15.11
20.8
25.11
27.96
29.38
29.52
28.65
27.16
25.42
23.75
22.32
21.23
20.45
19.88
19.42
19.04
18.73
18.55
18.55
18.6
18.48
17.89
16.63
14.74
12.47
10.17
8.06
6.16
4.26
2.11
-0.45
-3.4
-6.6
-9.87
-13.09
-16.23
-19.29
-22.34
-25.51
-28.95
-32.82
-37.09
-41.45
-45.26
-47.72
-48.12
-46.06
-41.52
-34.89
-26.78
-17.87
-8.84
-0.28
7.27
13.5
18.19
21.31
22.89
23.07
22.03
20.1
17.72
15.39
13.57
12.52
12.27
12.67
13.51
14.59
15.74
16.75
17.42
17.53
16.95
15.69
13.91
11.85
9.68
7.49
5.23
2.87
0.32
-2.43
-5.36
-8.43
-11.55
-14.62
-17.58
-20.53
-23.63
-27.14
-31.2
-35.61
-39.79
-42.83
-43.81
-42.08
-37.51
-30.51
-21.85
-12.43
-3.06
5.65
13.22
19.31
23.68
26.24
27.16
26.75
25.47
23.7
21.75
19.77
17.89
16.25
15.02
14.35
14.27
14.65
15.25
15.79
16.04
15.92
15.42
14.55
13.34
11.8
9.98
7.93
5.69
3.27
0.62
-2.34
-5.63
-9.17
-12.79
-16.28
-19.48
-22.39
-25.23
-28.36
-32.12
-36.75
-42.11
-47.67
-52.51
-55.52
-55.74
-52.65
-46.38
-37.67
-27.63
-17.37
-7.75
0.75
8.0
14.01
18.85
22.55
25.12
26.62
27.18
27.0
26.29
25.26
24.03
22.72
21.44
20.41
19.88
20.08
21.01
22.45
23.97
25.03
25.19
24.26
22.33
19.7
16.76
13.81
11.06
8.54
6.19
3.85
1.33
-1.53
-4.77
-8.3
-11.9
-15.34
-18.49
-21.41
-24.34
-27.63
-31.53
-36.03
-40.79
-45.16
-48.29
-49.39
-47.95
-43.84
-37.37
-29.18
-20.02
-10.64
-1.62
6.61
13.74
19.56
23.92
26.76
28.14
28.28
27.55
26.4
25.32
24.72
24.82
25.6
26.8
28.09
29.15
29.83
30.1
30.06
29.76
29.16
28.15
26.56
24.35
21.67
18.72
15.76
12.9
10.05
6.98
3.45
-0.66
-5.25
-9.95
-14.31
-17.98
-20.83
-23.07
-25.18
-27.69
-31.01
-35.25
-40.14
-45.01
-48.94
-50.94
-50.15
-46.17
-39.17
-29.89
-19.47
-9.06
0.46
8.66
15.51
21.19
25.82
29.42
31.93
33.32
33.77
33.57
33.08
32.47
31.71
30.58
28.91
26.66
23.99
21.28
18.9
17.05
15.75
14.77
13.81
12.62
11.07
9.1
6.81
4.35
1.97
-0.05
-1.48
-2.3
-2.79
-3.47
-4.91
-7.43
-10.98
-15.19
-19.58
-23.86
-28.08
-32.48
-37.28
-42.39
-47.3
-51.2
-53.23
-52.69
-49.31
-43.24
-35.11
-25.77
-16.13
-6.93
1.4
8.68
14.83
19.78
23.34
25.32
25.63
24.43
22.07
19.09
16.04
13.42
11.56
10.62
10.62
11.43
12.77
14.34
15.81
16.85
17.21
16.69
15.23
12.9
9.9
6.54
3.09
-0.26
-3.44
-6.44
-9.25
-11.86
-14.31
-16.69
-19.18
-21.99
-25.29
-29.13
-33.38
-37.7
-41.51
-44.07
-44.64
-42.69
-38.09
-31.18
-22.68
-13.45
-4.25
4.37
12.08
18.6
23.7
27.17
28.92
29.05
27.87
25.81
23.26
20.54
17.92
15.62
13.84
12.73
12.29
12.38
12.75
13.13
13.25
12.94
12.12
10.79
9.03
7.01
4.88
2.75
0.64
-1.54
-3.96
-6.73
-9.89
-13.41
-17.2
-21.09
-24.89
-28.42
-31.64
-34.7
-37.93
-41.65
-45.87
-50.13
-53.47
-54.75
-53.08
-48.18
-40.45
-30.8
-20.33
-10.04
-0.64
7.47
14.15
19.39
23.25
25.81
27.18
27.47
26.83
25.49
23.79
22.06
20.66
19.83
19.64
20.07
20.97
22.11
23.24
24.13
24.59
24.53
23.91
22.74
21.03
18.82
16.19
13.23
10.06
6.73
3.24
-0.46
-4.41
-8.55
-12.75
-16.82
-20.67
-24.35
-28.08
-32.13
-36.68
-41.63
-46.51
-50.54
-52.76
-52.33
-48.82
-42.34
-33.54
-23.42
-13.02
-3.13
5.73
13.36
19.68
24.65
28.21
30.36
31.17
30.86
29.78
28.3
26.77
25.46
24.52
24.03
23.96
24.27
24.82
25.52
26.18
26.58
26.54
25.96
24.85
23.36
21.64
19.8
17.76
15.37
12.47
9.03
5.16
1.09
-2.95
-6.8
-10.38
-13.63
-16.54
-19.13
-21.52
-23.99
-26.85
-30.29
-34.21
-38.14
-41.33
-42.94
-42.29
-39.05
-33.34
-25.68
-16.81
-7.56
1.37
9.48
16.45
22.13
26.43
29.32
30.85
31.2
30.67
29.61
28.28
26.9
25.58
24.47
23.71
23.47
23.81
24.58
25.48
26.17
26.38
26.03
25.11
23.69
21.83
19.62
17.21
14.77
12.46
10.28
8.08
5.68
3.0
0.11
-2.78
-5.42
-7.68
-9.62
-11.43
-13.36
-15.63
-18.46
-22.0
-26.25
-30.98
-35.64
-39.42
-41.52
-41.28
-38.42
-33.16
-26.05
-17.83
-9.31
-1.12
6.25
12.44
17.21
20.41
22.0
22.09
21.03
19.26
17.25
15.41
13.92
12.83
12.08
11.63
11.5
11.64
12.02
12.5
12.93
13.21
13.27
13.08
12.55
11.6
10.13
8.16
5.82
3.35
0.94
-1.3
-3.42
-5.54
-7.83
-10.36
-13.13
-16.08
-19.18
-22.47
-26.02
-29.84
-33.76
-37.31
-39.77
-40.36
-38.5
-34.01
-27.29
-19.13
-10.46
-2.11
5.35
11.62
16.58
20.17
22.44
23.5
23.55
22.91
21.83
20.56
19.27
18.1
17.16
16.58
16.48
16.87
17.74
18.94
20.27
21.48
22.24
22.21
21.18
19.11
16.2
12.87
9.57
6.65
4.21
2.13
0.15
-1.98
-4.41
-7.16
-10.13
-13.2
-16.26
-19.26
-22.25
-25.37
-28.78
-32.54
-36.56
-40.51
-43.87
-45.97
-46.22
-44.19
-39.76
-33.16
-24.89
-15.69
-6.36
2.32
9.74
15.6
19.83
22.57
24.04
24.45
23.97
22.76
21.06
19.16
17.41
16.13
15.49
15.52
16.08
16.94
17.91
18.79
19.46
19.88
19.98
19.71
19.03
17.91
16.35
14.39
12.14
9.69
7.17
4.65
2.15
-0.32
-2.76
-5.15
-7.48
-9.72
-11.91
-14.13
-16.5
-19.17
-22.29
-26.02
-30.41
-35.3
-40.26
-44.5
-47.06
-47.07
-44.02
-38.05
-29.84
-20.47
-11.06
-2.46
4.9
10.91
15.68
19.33
21.93
23.51
24.12
23.92
23.14
22.01
20.71
19.34
17.99
16.77
15.9
15.59
15.96
16.97
18.35
19.7
20.63
20.84
20.24
18.94
17.13
15.06
12.98
11.05
9.37
7.89
6.46
4.84
2.86
0.43
-2.42
-5.56
-8.8
-11.97
-14.96
-17.72
-20.32
-22.96
-25.92
-29.45
-33.54
-37.81
-41.45
-43.46
-42.99
-39.65
-33.7
-25.89
-17.29
-8.83
-1.19
5.32
10.59
14.62
17.42
18.97
19.33
18.72
17.5
16.09
14.82
13.88
13.19
12.58
11.96
11.41
11.17
11.5
12.47
13.79
14.99
15.57
15.29
14.23
12.72
11.11
9.59
8.11
6.49
4.56
2.26
-0.31
-2.99
-5.59
-8.0
-10.2
-12.23
-14.21
-16.3
-18.67
-21.44
-24.68
-28.37
-32.34
-36.28
-39.65
-41.81
-42.1
-40.12
-35.84
-29.67
-22.29
-14.48
-6.86
0.15
6.34
11.56
15.67
18.5
19.95
20.01
18.9
16.96
14.65
12.4
10.58
9.4
9.0
9.32
10.25
11.65
13.31
14.99
16.43
17.3
17.35
16.45
14.64
12.19
9.46
6.81
4.4
2.25
0.17
-2.04
-4.53
-7.28
-10.19
-13.07
-15.8
-18.36
-20.83
-23.35
-26.04
-29.0
-32.21
-35.59
-38.9
-41.78
-43.7
-44.01
-42.13
-37.75
-31.05
-22.6
-13.32
-4.19
4.02
10.84
16.04
19.58
21.53
22.0
21.25
19.61
17.54
15.47
13.73
12.53
11.92
11.84
12.14
12.67
13.23
13.72
14.08
14.31
14.36
14.17
13.63
12.63
11.14
9.18
6.91
4.5
2.16
0.03
-1.81
-3.39
-4.87
-6.46
-8.31
-10.49
-12.94
-15.49
-17.97
-20.33
-22.68
-25.27
-28.35
-32.05
-36.21
-40.38
-43.82
-45.74
-45.41
-42.56
-37.28
-30.14
-21.92
-13.46
-5.41
1.79
7.89
12.8
16.5
18.99
20.35
20.67
20.16
19.07
17.73
16.44
15.45
14.89
14.85
15.36
16.4
17.9
19.7
21.52
23.06
24.01
24.18
23.5
22.08
20.09
17.76
15.27
12.76
10.27
7.84
5.41
2.95
0.43
-2.15
-4.73
-7.27
-9.73
-12.14
-14.56
-17.03
-19.63
-22.47
-25.69
-29.51
-34.01
-39.04
-44.09
-48.28
-50.66
-50.43
-47.26
-41.31
-33.14
-23.55
-13.33
-3.23
6.11
14.15
20.47
24.86
27.38
28.31
28.1
27.21
25.97
24.6
23.19
21.78
20.45
19.37
18.69
18.55
18.95
19.75
20.77
21.85
22.84
23.62
24.07
23.92
22.96
21.12
18.52
15.51
12.46
9.64
7.03
4.48
1.7
-1.38
-4.7
-8.04
-11.15
-13.95
-16.47
-18.92
-21.53
-24.5
-27.94
-31.82
-35.96
-40.0
-43.39
-45.44
-45.49
-43.05
-37.99
-30.65
-21.74
-12.15
-2.68
6.05
13.72
20.19
25.31
28.93
30.9
31.22
30.11
27.97
25.35
22.7
20.37
18.55
17.41
17.06
17.57
18.86
20.64
22.44
23.73
24.1
23.4
21.76
19.51
17.03
14.63
12.44
10.4
8.36
6.06
3.34
0.17
-3.35
-6.96
-10.39
-13.37
-15.84
-17.95
-20.05
-22.6
-25.89
-29.94
-34.4
-38.55
-41.49
-42.36
-40.55
-35.86
-28.56
-19.35
-9.24
0.67
9.46
16.56
21.84
25.51
27.89
29.24
29.68
29.2
27.87
25.9
23.62
21.44
19.68
18.52
18.01
18.11
18.72
19.72
20.96
22.24
23.32
23.93
23.78
22.69
20.63
17.82
14.65
11.56
8.75
6.19
3.6
0.71
-2.61
-6.19
-9.7
-12.86
-15.6
-18.12
-20.72
-23.64
-27.04
-30.9
-35.15
-39.63
-44.01
-47.73
-50.07
-50.26
-47.74
-42.43
-34.71
-25.38
-15.37
-5.55
3.49
11.4
18.02
23.28
27.14
29.59
30.72
30.67
29.71
28.17
26.34
24.53
22.96
21.78
21.07
20.85
21.08
21.66
22.45
23.28
23.97
24.32
24.2
23.53
22.29
20.56
18.51
16.36
14.29
12.34
10.47
8.48
6.2
3.47
0.28
-3.26
-6.94
-10.5
-13.7
-16.48
-18.93
-21.39
-24.26
-27.91
-32.39
-37.33
-42.02
-45.51
-46.91
-45.65
-41.53
-34.88
-26.33
-16.8
-7.22
1.66
9.34
15.66
20.67
24.46
27.07
28.45
28.54
27.45
25.47
23.04
20.63
18.6
17.16
16.39
16.26
16.72
17.63
18.79
19.97
20.95
21.55
21.66
21.22
20.2
18.64
16.66
14.48
12.36
10.5
8.9
7.41
5.76
3.71
1.11
-2.0
-5.41
-8.87
-12.1
-14.98
-17.48
-19.83
-22.35
-25.32
-28.87
-32.77
-36.44
-39.09
-39.93
-38.41
-34.44
-28.31
-20.64
-12.18
-3.7
4.22
11.13
16.77
20.93
23.57
24.69
24.45
23.16
21.19
18.97
16.82
14.98
13.6
12.74
12.44
12.67
13.39
14.49
15.79
17.06
18.04
18.53
18.33
17.44
15.93
14.04
12.01
10.04
8.17
6.29
4.25
1.89
-0.82
-3.77
-6.75
-9.56
-12.06
-14.25
-16.24
-18.22
-20.52
-23.39
-26.95
-31.05
-35.14
-38.42
-40.06
-39.37
-36.14
-30.63
-23.53
-15.68
-7.86
-0.68
5.49
10.41
14.02
16.29
17.34
17.38
16.73
15.69
14.51
13.36
12.37
11.62
11.2
11.22
11.73
12.71
14.01
15.44
16.75
17.73
18.18
17.98
17.04
15.34
13.01
10.29
7.48
4.89
2.65
0.7
-1.15
-3.17
-5.48
-8.1
-10.87
-13.61
-16.25
-18.84
-21.6
-24.74
-28.35
-32.2
-35.76
-38.27
-39.0
-37.47
-33.62
-27.87
-20.89
-13.41
-6.08
0.69
6.7
11.8
15.92
18.97
20.9
21.68
21.39
20.19
18.36
16.22
14.14
12.4
11.24
10.71
10.85
11.59
12.82
14.35
15.93
17.2
17.8
17.4
15.92
13.5
10.49
7.37
4.49
2.07
0.05
-1.77
-3.64
-5.75
-8.16
-10.77
-13.38
-15.82
-17.94
-19.77
-21.43
-23.18
-25.26
-27.93
-31.23
-34.95
-38.62
-41.52
-42.88
-42.08
-38.84
-33.29
-25.99
-17.7
-9.24
-1.28
5.7
11.48
16.0
19.28
21.44
22.57
22.79
22.26
21.17
19.76
18.3
17.02
16.08
15.57
15.46
15.72
16.21
16.84
17.51
18.07
18.42
18.42
17.97
17.03
15.65
13.99
12.24
10.52
8.87
7.16
5.17
2.78
0.03
-2.84
-5.55
-7.88
-9.82
-11.58
-13.45
-15.66
-18.24
-21.19
-24.41
-27.89
-31.59
-35.31
-38.6
-40.71
-40.85
-38.45
-33.48
-26.42
-18.18
-9.72
-1.78
5.22
11.16
16.02
19.76
22.26
23.44
23.37
22.3
20.67
18.94
17.46
16.41
15.82
15.61
15.7
16.07
16.66
17.4
18.17
18.79
19.11
18.97
18.31
17.13
15.49
13.52
11.37
9.14
6.92
4.78
2.74
0.82
-1.05
-2.94
-4.92
-7.04
-9.26
-11.49
-13.57
-15.46
-17.19
-18.99
-21.13
-23.87
-27.3
-31.21
-35.2
-38.58
-40.59
-40.56
-38.09
-33.2
-26.38
-18.42
-10.22
-2.52
4.23
9.86
14.43
17.99
20.54
22.03
22.41
21.68
20.04
17.76
15.27
12.97
11.2
10.22
10.1
10.73
11.85
13.18
14.41
15.34
15.83
15.84
15.41
14.6
13.46
12.02
10.33
8.42
6.37
4.23
2.03
-0.23
-2.6
-5.11
-7.74
-10.32
-12.69
-14.69
-16.34
-17.83
-19.49
-21.64
-24.48
-27.96
-31.8
-35.49
-38.36
-39.75
-39.11
-36.16
-31.0
-24.07
-16.06
-7.78
0.1
7.02
12.65
16.85
19.62
21.11
21.57
21.25
20.42
19.23
17.85
16.46
15.3
14.55
14.39
14.78
15.54
16.45
17.23
17.74
17.89
17.65
16.99
15.89
14.35
12.43
10.25
7.92
5.59
3.33
1.18
-0.87
-2.92
-5.06
-7.4
-9.97
-12.71
-15.47
-18.04
-20.29
-22.16
-23.76
-25.35
-27.29
-29.86
-33.15
-36.86
-40.26
-42.41
-42.38
-39.65
-34.27
-26.82
-18.24
-9.48
-1.26
6.0
12.15
17.14
20.93
23.47
24.79
25.0
24.32
23.07
21.59
20.15
18.99
18.25
17.95
18.02
18.34
18.76
19.17
19.52
19.75
19.85
19.76
19.47
18.94
18.17
17.17
15.88
14.21
12.11
9.6
6.84
4.08
1.52
-0.78
-2.95
-5.18
-7.61
-10.25
-12.94
-15.57
-18.07
-20.54
-23.15
-26.11
-29.52
-33.32
-37.31
-41.14
-44.29
-46.14
-46.12
-43.83
-39.17
-32.4
-24.07
-14.89
-5.59
3.13
10.73
16.79
21.11
23.68
24.71
24.54
23.53
22.09
20.55
19.17
18.17
17.66
17.64
18.06
18.79
19.68
20.6
21.48
22.29
22.98
23.46
23.57
23.22
22.34
20.99
19.27
17.32
15.28
13.16
10.99
8.74
6.43
4.11
1.79
-0.52
-2.91
-5.5
-8.33
-11.36
-14.51
-17.65
-20.83
-24.15
-27.8
-31.88
-36.29
-40.61
-44.15
-46.19
-46.05
-43.37
-38.25
-31.16
-22.88
-14.26
-6.02
1.36
7.65
12.82
16.89
19.84
21.7
22.48
22.34
21.52
20.3
18.98
17.76
16.83
16.28
16.13
16.38
16.96
17.73
18.55
19.27
19.75
19.82
19.33
18.2
16.5
14.44
12.33
10.45
8.89
7.55
6.18
4.47
2.23
-0.61
-3.91
-7.39
-10.74
-13.73
-16.25
-18.41
-20.5
-22.91
-25.94
-29.69
-33.91
-38.04
-41.3
-42.89
-42.18
-38.87
-33.11
-25.49
-16.91
-8.34
-0.51
6.15
11.56
15.72
18.69
20.37
20.7
19.78
17.97
15.8
13.89
12.63
12.13
12.29
12.87
13.68
14.66
15.79
17.11
18.48
19.71
20.45
20.44
19.51
17.78
15.55
13.19
10.93
8.8
6.62
4.21
1.48
-1.45
-4.3
-6.87
-9.12
-11.19
-13.4
-16.03
-19.3
-23.27
-27.87
-32.88
-37.85
-42.18
-45.12
-46.01
-44.38
-40.2
-33.83
-25.96
-17.44
-9.07
-1.43
5.13
10.55
14.87
18.16
20.46
21.75
22.04
21.51
20.43
19.19
18.13
17.52
17.45
17.9
18.75
19.83
20.93
21.85
22.45
22.66
22.47
21.9
20.92
19.47
17.53
15.21
12.7
10.26
8.08
6.14
4.26
2.15
-0.42
-3.49
-6.93
-10.47
-13.76
-16.6
-18.95
-20.96
-22.93
-25.21
-28.04
-31.49
-35.4
-39.35
-42.7
-44.68
-44.56
-41.84
-36.43
-28.74
-19.65
-10.25
-1.53
5.9
11.84
16.44
19.9
22.33
23.72
24.06
23.46
22.21
20.68
19.28
18.25
17.75
17.8
18.33
19.24
20.35
21.44
22.28
22.75
22.83
22.62
22.23
21.75
21.16
20.35
19.2
17.6
15.6
13.28
10.83
8.37
5.93
3.42
0.71
-2.27
-5.47
-8.68
-11.68
-14.36
-16.79
-19.16
-21.72
-24.64
-27.99
-31.69
-35.55
-39.25
-42.34
-44.24
-44.39
-42.38
-38.05
-31.61
-23.58
-14.63
-5.54
2.99
10.41
16.41
20.85
23.78
25.31
25.58
24.77
23.18
21.27
19.56
18.52
18.35
18.91
19.87
20.86
21.66
22.24
22.69
23.06
23.32
23.35
22.99
22.15
20.8
19.03
16.96
14.76
12.55
10.36
8.21
6.0
3.67
1.22
-1.29
-3.73
-6.01
-8.08
-9.98
-11.87
-13.99
-16.62
-20.03
-24.3
-29.25
-34.34
-38.8
-41.81
-42.71
-41.21
-37.37
-31.52
-24.23
-16.16
-7.99
-0.35
6.31
11.73
15.85
18.78
20.62
21.46
21.4
20.54
19.09
17.35
15.69
14.51
14.09
14.6
16.0
18.04
20.34
22.43
23.92
24.53
24.16
22.83
20.68
17.98
15.02
12.1
9.43
7.05
4.84
2.59
0.11
-2.67
-5.68
-8.73
-11.7
-14.5
-17.13
-19.69
-22.3
-25.1
-28.23
-31.72
-35.36
-38.67
-40.9
-41.25
-39.2
-34.63
-27.96
-19.96
-11.54
-3.4
4.02
10.52
16.09
20.65
24.14
26.43
27.46
27.3
26.16
24.4
22.41
20.62
19.32
18.72
18.84
19.55
20.67
21.94
23.1
23.94
24.31
24.1
23.32
21.98
20.23
18.21
16.09
13.97
11.89
9.86
7.75
5.49
3.04
0.4
-2.35
-5.11
-7.77
-10.2
-12.34
-14.28
-16.2
-18.4
-21.2
-24.81
-29.24
-34.16
-39.02
-43.08
-45.59
-45.95
-43.85
-39.28
-32.59
-24.44
-15.69
-7.17
0.47
6.89
12.1
16.27
19.51
21.85
23.22
23.53
22.86
21.46
19.7
18.01
16.7
16.01
16.05
16.85
18.29
20.09
21.9
23.37
24.3
24.63
24.4
23.7
22.52
20.88
18.86
16.63
14.4
12.38
10.58
8.91
7.17
5.17
2.75
-0.07
-3.19
-6.37
-9.35
-11.89
-13.9
-15.48
-16.88
-18.49
-20.64
-23.6
-27.47
-32.15
-37.28
-42.23
-46.11
-48.04
-47.33
-43.74
-37.6
-29.58
-20.56
-11.39
-2.74
4.89
11.18
16.0
19.38
21.51
22.66
23.08
22.89
22.19
21.04
19.64
18.25
17.27
16.95
17.41
18.49
19.85
21.09
21.93
22.26
22.11
21.64
20.91
19.92
18.54
16.67
14.33
11.72
9.19
7.06
5.42
4.14
2.91
1.39
-0.56
-2.86
-5.29
-7.58
-9.64
-11.53
-13.44
-15.53
-17.93
-20.73
-23.97
-27.73
-32.0
-36.51
-40.68
-43.63
-44.41
-42.34
-37.33
-29.92
-21.19
-12.26
-4.03
3.07
8.99
13.85
17.71
20.48
22.03
22.29
21.41
19.74
17.69
15.63
13.84
12.44
11.51
11.08
11.17
11.75
12.75
14.01
15.31
16.34
16.83
16.57
15.5
13.79
11.75
9.7
7.85
6.22
4.7
3.13
1.37
-0.64
-2.91
-5.39
-8.01
-10.65
-13.19
-15.51
-17.65
-19.76
-22.1
-24.93
-28.33
-32.05
-35.56
-38.07
-38.8
-37.17
-33.03
-26.67
-18.79
-10.25
-1.86
5.76
12.21
17.27
20.9
23.12
24.05
23.89
22.87
21.3
19.48
17.7
16.26
15.36
15.11
15.46
16.21
17.11
17.93
18.56
18.99
19.24
19.26
18.95
18.18
16.91
15.22
13.26
11.26
9.32
7.41
5.42
3.21
0.72
-1.98
-4.71
-7.3
-9.63
-11.72
-13.7
-15.72
-17.94
-20.46
-23.36
-26.72
-30.59
-34.91
-39.33
-43.24
-45.78
-46.14
-43.83
-38.87
-31.81
-23.51
-14.87
-6.62
0.74
6.99
12.01
15.81
18.45
20.02
20.68
20.56
19.79
18.57
17.12
15.7
14.62
14.07
14.18
14.93
16.22
17.83
19.5
20.92
21.76
21.85
21.11
19.7
17.84
15.77
13.62
11.42
9.2
6.94
4.76
2.75
0.97
-0.65
-2.24
-3.99
-6.01
-8.26
-10.62
-12.9
-15.02
-16.99
-19.04
-21.49
-24.6
-28.44
-32.76
-36.97
-40.33
-42.09
-41.66
-38.85
-33.77
-26.87
-18.8
-10.31
-2.12
5.17
11.17
15.72
18.92
20.93
21.95
22.11
21.49
20.21
18.51
16.76
15.33
14.54
14.45
14.94
15.74
16.59
17.34
17.96
18.54
19.1
19.57
19.74
19.32
18.17
16.3
13.97
11.51
9.22
7.17
5.29
3.4
1.37
-0.82
-3.12
-5.44
-7.78
-10.19
-12.71
-15.35
-18.07
-20.85
-23.75
-26.88
-30.28
-33.89
-37.42
-40.39
-42.19
-42.23
-40.13
-35.75
-29.35
-21.45
-12.86
-4.41
3.2
9.47
14.14
17.19
18.74
19.04
18.38
17.11
15.58
14.07
12.78
11.82
11.26
11.09
11.33
11.98
13.0
14.33
15.8
17.19
18.2
18.54
18.03
16.63
14.5
11.95
9.26
6.7
4.34
2.17
0.11
-2.0
-4.26
-6.72
-9.35
-12.01
-14.52
-16.72
-18.59
-20.28
-22.07
-24.28
-27.06
-30.37
-33.84
-36.84
-38.62
-38.48
-35.96
-31.05
-24.19
-16.22
-8.05
-0.48
6.05
11.39
15.61
18.74
20.8
21.75
21.68
20.78
19.44
18.02
16.83
15.98
15.44
15.11
14.93
14.87
15.03
15.6
16.74
18.46
20.61
22.77
24.34
24.8
23.82
21.45
18.09
14.29
10.54
7.12
4.05
1.22
-1.46
-4.03
-6.49
-8.8
-11.02
-13.28
-15.7
-18.44
-21.53
-24.92
-28.53
-32.2
-35.77
-39.01
-41.64
-43.24
-43.38
-41.66
-37.86
-32.1
-24.83
-16.7
-8.44
-0.7
6.12
11.75
16.1
19.2
21.14
22.05
22.09
21.41
20.19
18.66
17.08
15.76
14.95
14.77
15.16
15.9
16.8
17.71
18.58
19.41
20.17
20.71
20.82
20.29
19.06
17.22
15.01
12.73
10.57
8.68
7.01
5.38
3.59
1.41
-1.23
-4.26
-7.42
-10.41
-13.0
-15.15
-17.03
-18.95
-21.22
-24.12
-27.71
-31.89
-36.25
-40.19
-42.9
-43.66
-41.91
-37.63
-31.18
-23.31
-14.87
-6.61
0.94
7.43
12.67
16.57
19.17
20.6
21.12
20.97
20.34
19.38
18.26
17.17
16.39
16.1
16.38
17.12
18.11
19.09
19.86
20.32
20.45
20.24
19.72
18.92
17.85
16.49
14.8
12.77
10.44
7.99
5.6
3.42
1.48
-0.36
-2.26
-4.31
-6.47
-8.6
-10.56
-12.3
-13.9
-15.56
-17.49
-19.9
-22.91
-26.53
-30.52
-34.45
-37.64
-39.35
-38.96
-36.12
-30.99
-24.08
-16.17
-8.05
-0.42
6.28
11.82
16.18
19.45
21.69
22.97
23.25
22.55
20.97
18.79
16.41
14.28
12.77
12.0
11.92
12.32
13.02
13.88
14.85
15.89
16.88
17.64
17.95
17.64
16.69
15.2
13.38
11.41
9.42
7.34
5.1
2.56
-0.29
-3.32
-6.3
-9.02
-11.37
-13.42
-15.41
-17.62
-20.31
-23.62
-27.48
-31.58
-35.34
-38.05
-38.97
-37.61
-33.9
-28.25
-21.35
-13.97
-6.67
0.15
6.24
11.45
15.57
18.46
20.08
20.49
19.87
18.45
16.5
14.34
12.36
10.96
10.46
10.96
12.3
14.07
15.82
17.18
17.93
18.03
17.56
16.59
15.25
13.63
11.76
9.7
7.46
5.07
2.54
-0.11
-2.87
-5.73
-8.62
-11.42
-13.97
-16.14
-17.93
-19.47
-21.04
-22.96
-25.5
-28.73
-32.52
-36.46
-39.95
-42.23
-42.59
-40.53
-35.96
-29.25
-21.14
-12.54
-4.25
3.18
9.49
14.62
18.52
21.16
22.52
22.67
21.86
20.44
18.81
17.25
15.95
14.97
14.39
14.26
14.66
15.62
17.05
18.69
20.16
21.07
21.16
20.38
18.87
16.9
14.75
12.58
10.4
8.19
5.86
3.4
0.88
-1.68
-4.26
-6.88
-9.54
-12.22
-14.83
-17.34
-19.79
-22.33
-25.17
-28.5
-32.36
-36.55
-40.53
-43.53
-44.65
-43.24
-39.02
-32.3
-23.86
-14.7
-5.73
2.38
9.27
14.78
18.84
21.47
22.77
22.99
22.45
21.49
20.35
19.16
18.03
17.1
16.55
16.51
17.08
18.12
19.45
20.83
22.06
23.04
23.64
23.79
23.37
22.37
20.82
18.89
16.77
14.61
12.49
10.33
8.03
5.41
2.41
-0.92
