0
-58.12
-64.4
-68.67
-69.99
-67.74
-61.79
-52.59
-41.11
-28.58
-16.25
-5.03
4.58
12.45
18.6
23.08
25.85
26.95
26.62
25.41
24.11
23.44
23.85
25.34
27.5
29.71
31.35
32.0
31.5
29.92
27.5
24.54
21.31
17.99
14.58
10.99
7.08
2.79
-1.79
-6.46
-10.91
-14.93
-18.44
-21.55
-24.54
-27.71
-31.39
-35.86
-41.33
-47.8
-54.91
-61.82
-67.29
-69.94
-68.64
-62.96
-53.32
-40.89
-27.22
-13.78
-1.64
8.66
16.97
23.39
28.07
31.22
33.02
33.76
33.77
33.43
33.1
33.05
33.36
33.96
34.62
35.09
35.19
34.85
34.12
33.05
31.61
29.67
27.04
23.63
19.52
14.97
10.25
5.57
0.99
-3.56
-8.19
-12.87
-17.54
-22.09
-26.51
-30.93
-35.61
-40.86
-46.94
-53.93
-61.61
-69.36
-76.15
-80.71
-81.83
-78.74
-71.35
-60.35
-46.93
-32.48
-18.19
-4.89
6.94
17.05
25.28
31.5
35.67
37.95
38.75
38.7
38.5
38.68
39.46
40.74
42.19
43.43
44.24
44.55
44.43
43.91
42.9
41.24
38.73
35.35
31.28
26.84
22.38
18.09
13.99
9.9
5.6
0.9
-4.17
-9.41
-14.49
-19.11
-23.22
-27.05
-31.18
-36.24
-42.74
-50.76
-59.82
-68.93
-76.75
-81.9
-83.24
-80.12
-72.59
-61.35
-47.62
-32.81
-18.23
-4.83
6.89
16.69
24.44
30.07
33.56
35.12
35.22
34.59
34.02
34.13
35.14
36.89
39.0
40.96
42.41
43.1
42.97
42.02
40.29
37.82
34.64
30.81
26.47
21.79
16.97
12.2
7.54
2.96
-1.63
-6.28
-10.99
-15.62
-20.01
-24.06
-27.82
-31.56
-35.7
-40.71
-46.91
-54.28
-62.27
-69.82
-75.47
-77.75
-75.6
-68.67
-57.51
-43.39
-27.91
-12.62
1.34
13.31
23.05
30.5
35.72
38.87
40.25
40.37
39.89
39.48
39.58
40.35
41.58
42.97
44.2
45.09
45.59
45.69
45.33
44.37
42.68
40.16
36.83
32.85
28.45
23.89
19.36
14.95
10.58
6.11
1.36
-3.77
-9.16
-14.54
-19.66
-24.34
-28.71
-33.17
-38.3
-44.62
-52.33
-61.17
-70.38
-78.7
-84.73
-87.1
-84.88
-77.81
-66.4
-51.81
-35.56
-19.13
-3.68
10.1
21.92
31.69
39.4
45.01
48.56
50.25
50.59
50.26
49.94
50.07
50.73
51.7
52.61
53.2
53.41
53.32
53.01
52.43
51.36
49.47
46.52
42.49
37.63
32.38
27.21
22.44
18.18
14.25
10.31
5.99
1.09
-4.32
-10.01
-15.6
-20.82
-25.58
-30.08
-34.72
-40.0
-46.36
-54.06
-62.94
-72.38
-81.18
-87.8
-90.67
-88.62
-81.33
-69.41
-54.24
-37.55
-20.96
-5.57
8.0
19.53
28.96
36.18
41.14
43.9
44.85
44.63
44.03
43.77
44.22
45.36
46.88
48.32
49.36
49.83
49.77
49.25
48.25
46.59
44.02
40.42
35.88
30.78
25.57
20.66
16.18
12.01
7.83
3.37
-1.48
-6.62
-11.75
-16.58
-20.86
-24.58
-27.9
-31.19
-34.94
-39.61
-45.52
-52.58
-60.25
-67.51
-73.05
-75.55
-74.06
-68.26
-58.53
-45.89
-31.65
-17.15
-3.43
8.79
19.13
27.41
33.61
37.78
40.1
40.93
40.71
39.98
39.22
38.77
38.81
39.28
39.99
40.65
40.98
40.76
39.86
38.18
35.7
32.44
28.52
24.11
19.46
14.78
10.15
5.58
0.97
-3.75
-8.57
-13.43
-18.2
-22.81
-27.24
-31.56
-35.96
-40.71
-46.1
-52.4
-59.64
-67.4
-74.78
-80.44
-82.94
-81.16
-74.73
-64.15
-50.61
-35.67
-20.73
-6.83
5.46
15.92
24.43
30.85
35.12
37.34
37.92
37.54
36.93
36.7
37.12
38.11
39.36
40.5
41.33
41.75
41.75
41.29
40.21
38.34
35.55
31.88
27.52
22.87
18.27
14.0
10.07
6.32
2.45
-1.8
-6.54
-11.64
-16.8
-21.67
-26.05
-30.0
-33.89
-38.28
-43.69
-50.42
-58.35
-66.85
-74.79
-80.77
-83.38
-81.6
-75.06
-64.25
-50.32
-34.83
-19.31
-4.93
7.64
18.14
26.5
32.73
36.9
39.26
40.28
40.62
40.96
41.78
43.19
44.93
46.59
47.76
48.31
48.32
47.98
47.44
46.64
45.33
43.2
40.04
35.93
31.2
26.33
21.76
17.66
13.84
9.93
5.53
0.42
-5.28
-11.16
-16.77
-21.77
-26.15
-30.19
-34.42
-39.35
-45.3
-52.26
-59.74
-66.84
-72.34
-74.93
-73.6
-67.9
-58.14
-45.36
-30.98
-16.44
-2.85
9.16
19.35
27.67
34.11
38.6
41.15
41.95
41.43
40.27
39.14
38.61
38.93
40.04
41.59
43.13
44.23
44.63
44.24
43.08
41.23
38.75
35.63
31.92
27.71
23.19
18.56
13.93
9.27
4.47
-0.56
-5.81
-11.11
-16.22
-21.04
-25.62
-30.28
-35.44
-41.42
-48.33
-55.91
-63.48
-70.05
-74.39
-75.37
-72.24
-64.95
-54.18
-41.2
-27.49
-14.35
-2.65
7.22
15.16
21.18
25.29
27.54
28.15
27.6
26.6
25.89
26.02
27.18
29.17
31.51
33.64
35.13
35.7
35.3
34.01
31.99
29.38
26.31
22.88
19.12
15.03
10.62
6.01
1.35
-3.14
-7.29
-11.09
-14.65
-18.26
-22.25
-26.92
-32.49
-39.09
-46.55
-54.39
-61.68
-67.14
-69.46
-67.66
-61.49
-51.53
-39.02
-25.46
-12.15
0.06
10.75
19.79
27.12
32.64
36.2
37.86
37.92
37.01
35.9
35.3
35.57
36.73
38.41
40.11
41.39
41.96
41.71
40.67
38.87
36.35
33.16
29.41
25.24
20.83
16.32
11.75
7.11
2.36
-2.49
-7.39
-12.2
-16.85
-21.3
-25.73
-30.39
-35.66
-41.81
-48.86
-56.49
-63.93
-70.08
-73.7
-73.72
-69.58
-61.36
-49.84
-36.27
-22.03
-8.33
4.03
14.68
23.49
30.47
35.63
39.0
40.76
41.26
41.05
40.71
40.71
41.23
42.15
43.18
43.99
44.39
44.31
43.74
42.66
40.97
38.52
35.31
31.44
27.19
22.87
18.68
14.65
10.64
6.48
2.09
-2.46
-6.98
-11.24
-15.19
-18.87
-22.51
-26.45
-31.08
-36.72
-43.52
-51.2
-59.01
-65.72
-69.94
-70.47
-66.7
-58.77
-47.56
-34.37
-20.55
-7.24
4.77
15.02
23.3
29.54
33.77
36.16
37.05
36.95
36.44
36.09
36.24
36.95
38.0
39.04
39.75
39.92
39.51
38.56
37.11
35.19
32.78
29.92
26.66
23.12
19.37
15.43
11.29
6.95
2.45
-2.09
-6.55
-10.86
-14.93
-18.75
-22.35
-25.84
-29.48
-33.62
-38.68
-44.88
-52.08
-59.54
-66.0
-70.0
-70.25
-66.11
-57.78
-46.21
-32.85
-19.18
-6.4
4.76
13.96
21.15
26.4
29.82
31.6
32.09
31.77
31.22
30.92
31.19
32.06
33.3
34.57
35.57
36.1
36.08
35.54
34.48
32.89
30.73
27.97
24.67
20.99
17.11
13.19
9.3
5.35
1.21
-3.23
-7.93
-12.71
-17.29
-21.4
-25.0
-28.24
-31.52
-35.3
-40.05
-46.02
-53.05
-60.54
-67.35
-72.11
-73.49
-70.65
-63.51
-52.8
-39.79
-25.93
-12.44
-0.14
10.55
19.44
26.47
31.61
34.93
36.65
37.16
36.93
36.45
36.12
36.14
36.57
37.31
38.17
38.98
39.58
39.88
39.8
39.19
37.9
35.79
32.82
29.11
24.93
20.63
16.47
12.59
8.9
5.19
1.24
-3.09
-7.74
-12.48
-17.03
-21.18
-24.89
-28.38
-32.03
-36.23
-41.37
-47.61
-54.87
-62.67
-70.14
-76.05
-79.02
-77.87
-72.07
-62.01
-48.91
-34.44
-20.23
-7.37
3.64
12.8
20.24
26.03
30.13
32.57
33.57
33.64
33.4
33.46
34.14
35.46
37.16
38.86
40.25
41.2
41.7
41.85
41.69
41.15
40.0
37.98
34.94
30.93
26.3
21.52
17.04
13.06
9.5
6.04
2.34
-1.81
-6.36
-11.04
-15.55
-19.72
-23.6
-27.47
-31.71
-36.7
-42.66
-49.62
-57.28
-65.02
-71.84
-76.48
-77.75
-74.85
-67.7
-56.99
-44.03
-30.33
-17.16
-5.3
4.9
13.43
20.26
25.3
28.44
29.73
29.55
28.54
27.53
27.16
27.76
29.23
31.15
33.02
34.44
35.31
35.72
35.82
35.65
35.04
33.68
31.33
28.0
23.94
19.62
15.46
11.66
8.12
4.59
0.79
-3.44
-8.04
-12.83
-17.58
-22.1
-26.27
-30.09
-33.7
-37.44
-41.75
-47.11
-53.72
-61.36
-69.25
-76.1
-80.44
-80.98
-77.01
-68.62
-56.7
-42.68
-28.1
-14.2
-1.73
9.06
18.23
25.85
31.86
36.16
38.73
39.82
39.98
39.91
40.17
41.02
42.36
43.81
45.01
45.74
46.03
45.99
45.71
45.14
44.07
42.25
39.49
35.82
31.44
26.75
22.19
18.08
14.55
11.47
8.47
5.12
1.09
-3.71
-8.99
-14.29
-19.15
-23.32
-26.91
-30.3
-34.03
-38.6
-44.33
-51.31
-59.25
-67.46
-74.89
-80.16
-81.93
-79.28
-72.05
-60.9
-47.14
-32.33
-17.82
-4.51
7.21
17.22
25.52
32.06
36.75
39.66
41.07
41.55
41.75
42.23
43.26
44.75
46.34
47.59
48.18
47.97
47.1
45.78
44.24
42.57
40.67
38.38
35.5
32.02
28.02
23.77
19.54
15.52
11.78
8.28
4.89
1.46
-2.11
-5.87
-9.8
-13.8
-17.79
-21.72
-25.64
-29.78
-34.38
-39.72
-45.93
-52.99
-60.57
-68.02
-74.29
-78.18
-78.46
-74.39
-65.95
-53.99
-39.93
-25.39
-11.71
0.35
10.51
18.77
25.15
29.63
32.19
33.02
32.6
31.64
30.81
30.6
31.16
32.35
33.84
35.34
36.65
37.67
38.36
38.67
38.4
37.34
35.34
32.39
28.71
24.65
20.6
16.82
13.4
10.27
7.26
4.17
0.81
-2.92
-7.07
-11.55
-16.14
-20.58
-24.7
-28.57
-32.51
-37.06
-42.68
-49.62
-57.63
-65.96
-73.4
-78.51
-79.91
-76.69
-68.69
-56.67
-42.05
-26.6
-11.84
1.23
12.21
21.1
28.05
33.17
36.5
38.2
38.64
38.41
38.18
38.41
39.3
40.69
42.24
43.55
44.34
44.49
44.03
43.08
41.72
39.98
37.77
34.95
31.44
27.33
22.92
18.66
14.92
11.84
9.19
6.48
3.17
-1.06
-6.14
-11.65
-17.06
-21.93
-26.17
-29.99
-33.77
-37.97
-42.94
-48.93
-56.0
-63.85
-71.81
-78.72
-83.11
-83.66
-79.57
-70.91
-58.62
-44.24
-29.45
-15.59
-3.43
6.79
15.19
21.96
27.19
30.85
32.93
33.64
33.47
33.11
33.28
34.33
36.21
38.45
40.48
41.92
42.72
43.13
43.43
43.71
43.75
43.15
41.56
38.9
35.38
31.4
27.33
23.42
19.65
15.84
11.81
7.37
2.52
-2.6
-7.74
-12.61
-17.03
-20.99
-24.72
-28.6
-33.11
-38.62
-45.36
-53.29
-62.01
-70.72
-78.26
-83.24
-84.41
-81.01
-73.08
-61.46
-47.61
-33.07
-19.16
-6.66
4.08
13.01
20.16
25.56
29.23
31.32
32.12
32.17
32.08
32.43
33.56
35.5
37.93
40.36
42.33
43.6
44.17
44.17
43.71
42.75
41.04
38.32
34.51
29.77
24.54
19.34
14.61
10.5
6.91
3.51
-0.04
-3.94
-8.17
-12.51
-16.65
-20.41
-23.84
-27.25
-31.09
-35.78
-41.6
-48.55
-56.31
-64.26
-71.49
-76.84
-79.16
-77.54
-71.62
-61.78
-49.09
-34.96
-20.78
-7.57
4.11
14.1
22.39
28.92
33.62
36.47
37.72
37.9
37.73
37.85
38.66
40.18
42.13
44.1
45.75
46.9
47.52
47.69
47.41
46.62
45.16
42.87
39.67
35.69
31.18
26.52
22.01
17.82
13.88
9.99
5.87
1.36
-3.56
-8.77
-14.05
-19.23
-24.17
-28.84
-33.32
-37.84
-42.77
-48.59
-55.67
-64.06
-73.23
-82.02
-88.81
-91.95
-90.25
-83.39
-71.98
-57.43
-41.47
-25.69
-11.19
1.52
12.37
21.5
29.01
34.93
39.23
42.03
43.66
44.67
45.62
46.88
48.5
50.22
51.63
52.43
52.59
52.29
51.79
51.26
50.66
49.74
48.21
45.77
42.32
37.97
33.01
27.85
22.9
18.42
14.47
10.86
7.25
3.32
-1.13
-6.06
-11.27
-16.45
-21.4
-26.01
-30.42
-34.92
-39.85
-45.56
-52.23
-59.71
-67.47
-74.54
-79.71
-81.71
-79.62
-73.05
-62.36
-48.57
-33.09
-17.38
-2.64
10.4
21.4
30.3
37.15
42.05
45.13
46.62
46.94
46.62
46.25
46.32
47.08
48.51
50.34
52.13
53.46
54.01
53.63
52.38
50.39
47.82
44.73
41.14
36.99
32.3
27.23
22.03
17.07
12.61
8.75
5.39
2.27
-0.93
-4.4
-8.19
-12.2
-16.28
-20.32
-24.34
-28.51
-33.05
-38.19
-44.06
-50.6
-57.52
-64.24
-69.93
-73.6
-74.31
-71.45
-64.92
-55.23
-43.32
-30.39
-17.51
-5.47
5.3
14.6
22.37
28.52
33.01
35.87
37.3
37.66
37.48
37.26
37.39
37.99
38.97
40.07
40.95
41.38
41.26
40.62
39.48
37.83
35.6
32.71
29.21
25.24
21.1
17.05
13.3
9.85
6.59
3.32
-0.13
-3.83
-7.75
-11.77
-15.73
-19.54
-23.19
-26.81
-30.66
-35.08
-40.34
-46.58
-53.62
-60.85
-67.25
-71.52
-72.46
-69.29
-61.95
-51.19
-38.33
-24.83
-11.94
-0.41
9.47
17.68
24.26
29.23
32.57
34.39
34.95
34.73
34.24
33.93
34.03
34.56
35.35
36.18
36.81
37.13
37.12
36.86
36.39
35.63
34.39
32.41
29.52
25.78
21.51
17.17
13.2
9.81
6.93
4.22
1.29
-2.19
-6.29
-10.87
-15.66
-20.34
-24.73
-28.84
-32.89
-37.28
-42.41
-48.54
-55.68
-63.43
-70.99
-77.24
-80.95
-81.11
-77.19
-69.35
-58.42
-45.65
-32.31
-19.46
-7.7
2.68
11.62
19.06
24.86
28.9
31.24
32.22
32.42
32.55
33.17
34.55
36.6
38.97
41.22
42.98
44.06
44.43
44.16
43.33
42.02
40.19
37.8
34.77
31.06
26.75
22.11
17.5
13.33
9.77
6.73
3.82
0.58
-3.31
-7.86
-12.75
-17.55
-21.9
-25.77
-29.46
-33.42
-38.15
-43.95
-50.84
-58.54
-66.47
-73.78
-79.38
-82.11
-81.07
-75.83
-66.74
-54.82
-41.56
-28.41
-16.43
-6.12
2.5
9.64
15.46
19.98
23.17
25.13
26.14
26.7
27.31
28.31
29.75
31.47
33.19
34.73
36.0
37.01
37.79
38.23
38.14
37.22
35.25
32.2
28.29
23.95
19.68
15.89
12.72
10.05
7.52
4.72
1.34
-2.72
-7.33
-12.16
-16.85
-21.12
-24.89
-28.36
-31.99
-36.35
-41.93
-48.78
-56.46
-63.99
-70.04
-73.31
-72.8
-68.1
-59.45
-47.71
-34.14
-20.05
-6.55
5.62
16.18
25.08
32.34
37.88
41.61
43.55
44.0
43.6
43.13
43.2
44.03
45.43
46.97
48.21
48.94
49.14
48.91
48.24
47.01
45.02
42.13
38.34
33.87
29.06
24.26
19.81
15.89
12.5
9.51
6.63
3.5
-0.17
-4.51
-9.4
-14.56
-19.64
-24.43
-28.99
-33.63
-38.83
-45.07
-52.55
-61.07
-69.9
-77.9
-83.7
-85.99
-83.89
-77.21
-66.52
-53.02
-38.25
-23.66
-10.32
1.24
10.95
18.97
25.49
30.55
34.13
36.26
37.2
37.46
37.69
38.5
40.14
42.47
45.0
47.14
48.51
49.02
48.83
48.19
47.23
45.85
43.82
40.91
37.1
32.62
27.87
23.29
19.24
15.85
13.01
10.39
7.6
4.28
0.25
-4.42
-9.4
-14.29
-18.79
-22.83
-26.62
-30.55
-35.07
-40.5
-46.94
-54.2
-61.71
-68.57
-73.61
-75.62
-73.68
-67.47
-57.42
-44.67
-30.67
-16.9
-4.41
6.24
14.94
21.79
26.94
30.49
32.58
33.42
33.41
33.08
32.99
33.55
34.87
36.72
38.66
40.23
41.11
41.28
40.9
40.21
39.27
37.95
36.0
33.22
29.61
25.45
21.13
17.01
13.29
9.95
6.85
3.75
0.47
-3.11
-7.0
-11.11
-15.23
-19.16
-22.81
-26.25
-29.8
-33.91
-39.02
-45.35
-52.72
-60.48
-67.55
-72.6
-74.38
-72.08
-65.54
-55.4
-42.82
-29.2
-15.84
-3.6
7.02
15.85
22.82
27.95
31.3
33.06
33.61
33.49
33.3
33.47
34.21
35.44
36.94
38.46
39.76
40.71
41.18
41.03
40.16
38.55
36.25
33.41
30.2
26.73
23.08
19.33
15.59
11.96
8.49
5.1
1.56
-2.32
-6.63
-11.22
-15.83
-20.16
-24.07
-27.69
-31.35
-35.54
-40.65
-46.89
-54.15
-61.91
-69.21
-74.81
-77.35
-75.82
-69.84
-59.9
-47.21
-33.36
-19.85
-7.68
2.74
11.5
18.86
24.94
29.74
33.12
35.02
35.65
35.45
34.98
34.8
35.19
36.13
37.37
38.55
39.4
39.81
39.86
39.63
39.15
38.23
36.57
33.92
30.27
25.89
21.29
17.03
13.48
10.71
8.45
6.23
3.6
0.28
-3.76
-8.26
-12.87
-17.26
-21.27
-25.02
-28.84
-33.18
-38.45
-44.83
-52.18
-59.95
-67.22
-72.85
-75.67
-74.8
-69.91
-61.34
-50.06
-37.38
-24.65
-12.88
-2.65
5.86
12.73
18.05
21.9
24.34
25.56
25.93
26.01
26.33
27.28
28.93
31.07
33.35
35.48
37.27
38.67
39.66
40.1
39.78
38.47
36.05
32.61
28.46
24.03
19.75
15.9
12.51
9.41
6.3
2.89
-0.99
-5.28
-9.76
-14.12
-18.19
-21.93
-25.57
-29.45
-33.96
-39.44
-45.92
-53.11
-60.25
-66.22
-69.7
-69.63
-65.51
-57.63
-46.98
-34.9
-22.74
-11.41
-1.4
7.2
14.36
20.09
24.27
26.87
28.04
28.21
27.97
27.94
28.5
29.72
31.36
33.08
34.54
35.57
36.11
36.18
35.74
34.71
32.99
30.6
27.62
24.28
20.79
17.32
13.91
10.49
6.91
3.07
-1.07
-5.42
-9.86
-14.26
-18.55
-22.75
-27.02
-31.63
-36.9
-43.11
-50.33
-58.3
-66.24
-73.01
-77.24
-77.78
-74.01
-66.07
-54.79
-41.48
-27.47
-13.9
-1.48
9.44
18.74
26.39
32.38
36.74
39.63
41.35
42.35
43.1
43.95
45.02
46.2
47.23
47.88
48.07
47.9
47.52
47.03
46.29
45.02
42.88
39.73
35.65
31.03
26.33
21.94
18.01
14.41
10.85
7.01
2.72
-1.99
-6.95
-11.93
-16.78
-21.44
-26.05
-30.79
-35.96
-41.77
-48.36
-55.61
-63.09
-69.99
-75.18
-77.44
-75.81
-69.92
-60.16
-47.6
-33.68
-19.77
-6.89
4.43
14.02
21.86
27.96
32.29
34.91
36.08
36.3
36.22
36.45
37.31
38.75
40.42
41.88
42.76
42.96
42.59
41.8
40.73
39.29
37.29
34.5
30.88
26.58
21.97
17.45
13.31
9.65
6.29
2.97
-0.54
-4.34
-8.29
-12.17
-15.74
-18.96
-21.98
-25.16
-28.95
-33.71
-39.63
-46.51
-53.78
-60.43
-65.23
-66.98
-64.85
-58.66
-49.0
-37.08
-24.34
-12.09
-1.15
8.12
15.69
21.62
25.92
28.62
29.84
29.93
29.4
28.79
28.46
28.53
28.89
29.39
29.91
30.4
30.82
31.1
31.03
30.39
29.01
26.83
23.97
20.62
17.02
13.38
9.78
6.22
2.63
-1.11
-5.01
-9.01
-13.01
-16.93
-20.78
-24.68
-28.88
-33.64
-39.14
-45.37
-52.04
-58.57
-64.03
-67.38
-67.67
-64.33
-57.4
-47.55
-35.88
-23.58
-11.67
-0.8
8.7
16.74
23.25
28.24
31.74
33.9
35.03
35.47
35.61
35.71
35.94
36.36
36.92
37.56
38.13
38.49
38.44
37.8
36.46
34.4
31.66
28.38
24.72
20.84
16.86
12.79
8.6
4.23
-0.33
-5.01
-9.65
-14.07
-18.17
-21.97
-25.66
-29.54
-33.96
-39.23
-45.47
-52.54
-59.91
-66.61
-71.36
-72.92
-70.44
-63.81
-53.71
-41.42
-28.36
-15.74
-4.29
5.68
14.08
20.88
26.02
29.5
31.51
32.43
32.8
33.1
33.6
34.33
35.13
35.81
36.26
36.48
36.5
36.31
35.77
34.68
32.89
30.38
27.3
23.9
20.45
17.07
13.72
10.25
6.51
2.42
-1.93
-6.37
-10.67
-14.66
-18.33
-21.78
-25.25
-29.04
-33.41
-38.58
-44.61
-51.25
-57.9
-63.56
-67.02
-67.13
-63.26
-55.53
-44.82
-32.51
-20.03
-8.47
1.62
10.1
17.1
22.68
26.85
29.59
31.0
31.38
31.14
30.78
30.69
31.11
32.05
33.37
34.82
36.1
36.94
37.13
36.49
34.92
32.37
28.95
24.86
20.43
16.03
11.86
7.98
4.23
0.42
-3.57
-7.69
-11.82
-15.86
-19.82
-23.89
-28.32
-33.35
-39.06
-45.34
-51.79
-57.7
-62.05
-63.74
-61.87
-56.12
-46.89
-35.26
-22.6
-10.14
1.27
11.28
19.75
26.62
31.81
35.27
37.12
37.73
37.66
37.49
37.63
38.26
39.27
40.43
41.41
41.95
41.83
40.94
39.34
37.14
34.52
31.58
28.33
24.75
20.83
16.59
12.11
7.48
2.75
-2.09
-7.01
-11.9
-16.61
-21.03
-25.17
-29.27
-33.71
-38.89
-45.03
-51.96
-59.03
-65.15
-68.98
-69.3
-65.38
-57.27
-45.84
-32.49
-18.82
-6.07
5.04
14.35
22.02
28.26
33.08
36.43
38.28
38.81
38.46
37.81
37.39
37.53
38.24
39.28
40.31
40.99
41.08
40.5
39.21
37.25
34.64
31.43
27.69
23.6
19.4
15.35
11.59
8.08
4.59
0.86
-3.28
-7.74
-12.23
-16.45
-20.3
-23.98
-27.94
-32.7
-38.58
-45.55
-53.18
-60.66
-66.94
-70.87
-71.43
-68.04
-60.72
-50.2
-37.72
-24.69
-12.33
-1.37
7.89
15.48
21.48
25.97
28.98
30.63
31.2
31.14
30.93
30.98
31.52
32.58
33.95
35.34
36.41
36.86
36.52
35.32
33.34
30.75
27.75
24.53
21.21
17.86
14.5
11.12
7.68
4.14
0.42
-3.51
-7.61
-11.79
-15.93
-19.98
-24.02
-28.29
-33.1
-38.64
-44.76
-50.83
-55.87
-58.65
-58.24
-54.16
-46.66
-36.63
-25.3
-13.9
-3.39
5.69
13.19
19.11
23.53
26.48
28.01
28.32
27.76
26.88
26.21
26.12
26.64
27.52
28.39
28.86
28.77
28.09
26.92
25.34
23.35
20.9
17.97
14.57
10.77
6.64
2.27
-2.25
-6.8
-11.24
-15.41
-19.26
-22.89
-26.54
-30.57
-35.31
-40.93
-47.32
-53.99
-60.09
-64.5
-66.12
-64.17
-58.45
-49.44
-38.2
-26.01
-14.05
-3.16
6.26
14.11
20.39
25.13
28.32
30.06
30.61
30.39
29.91
29.63
29.82
30.52
31.55
32.68
33.59
34.04
33.82
32.83
31.04
28.56
25.55
22.23
18.82
15.44
12.12
8.79
5.32
1.57
-2.51
-6.87
-11.34
-15.76
-20.04
-24.24
-28.6
-33.43
-38.99
-45.43
-52.63
-60.19
-67.38
-73.14
-76.32
-75.96
-71.56
-63.31
-52.09
-39.25
-26.15
-13.88
-3.06
6.13
13.73
19.88
24.62
28.04
30.28
31.65
32.52
33.31
34.31
35.69
37.44
39.4
41.36
42.98
43.97
44.03
43.03
40.93
37.87
34.05
29.71
25.05
20.26
15.51
10.89
6.45
2.11
-2.25
-6.74
-11.37
-16.04
-20.6
-24.97
-29.22
-33.57
-38.38
-43.98
-50.49
-57.72
-64.98
-71.22
-75.09
-75.39
-71.43
-63.36
-52.12
-39.15
-25.97
-13.64
-2.65
7.01
15.48
22.82
28.89
33.46
36.49
38.21
39.16
39.95
41.05
42.6
44.41
46.06
47.15
47.42
46.81
45.43
43.48
41.1
38.37
35.25
31.68
27.57
22.92
17.81
12.41
6.98
1.77
-3.01
-7.32
-11.29
-15.24
-19.56
-24.64
-30.72
-37.76
-45.31
-52.57
-58.47
-61.86
-61.86
-58.05
-50.63
-40.38
-28.4
-15.88
-3.81
7.12
16.54
24.32
30.39
34.76
37.43
38.53
38.42
37.62
36.81
36.54
37.06
38.24
39.62
40.64
40.86
40.1
38.47
36.22
33.61
30.8
27.81
24.54
20.84
16.58
11.75
6.44
0.9
-4.58
-9.73
-14.45
-18.87
-23.26
-28.0
-33.41
-39.66
-46.72
-54.29
-61.72
-68.04
-72.05
-72.6
-69.01
-61.26
-50.13
-36.95
-23.18
-10.01
1.87
12.2
20.92
27.98
33.26
36.7
38.41
38.74
38.27
37.61
37.22
37.31
37.86
38.66
39.44
39.89
39.82
39.1
37.78
35.91
33.62
30.93
27.82
24.19
20.0
15.26
10.17
4.95
-0.11
-4.81
-9.03
-12.82
-16.35
-19.9
-23.82
-28.47
-34.13
-40.87
-48.43
-56.13
-62.93
-67.56
-68.85
-66.08
-59.22
-49.05
-36.86
-24.09
-11.99
-1.26
7.87
15.45
21.59
26.32
29.56
31.35
31.91
31.71
31.33
31.25
31.72
32.68
33.86
34.88
35.43
35.37
34.67
33.42
31.77
29.8
27.5
24.83
21.69
18.06
13.98
9.61
5.17
0.85
-3.23
-7.06
-10.69
-14.27
-18.01
-22.13
-26.86
-32.35
-38.5
-44.85
-50.55
-54.47
-55.5
-52.87
-46.44
-36.82
-25.14
-12.77
-0.97
9.43
18.06
24.86
29.92
33.35
35.19
35.56
34.75
33.25
31.7
30.67
30.51
31.22
32.44
33.66
34.4
34.4
33.63
32.22
30.35
28.09
25.39
22.13
18.25
13.79
8.96
4.03
-0.73
-5.19
-9.34
-13.28
-17.16
-21.16
-25.49
-30.38
-36.01
-42.43
-49.33
-56.02
-61.38
-64.2
-63.51
-58.94
-50.89
-40.38
-28.7
-17.06
-6.26
3.33
11.62
18.63
24.26
28.37
30.84
31.76
31.5
30.63
29.77
29.39
29.64
30.39
31.33
32.16
32.64
32.65
32.12
30.96
29.08
26.43
23.07
19.18
15.01
10.73
6.44
2.16
-2.09
-6.26
-10.26
-14.05
-17.7
-21.37
-25.29
-29.66
-34.6
-40.13
-46.13
-52.28
-57.96
-62.3
-64.35
-63.28
-58.74
-50.93
-40.63
-28.92
-16.94
-5.6
4.51
13.11
20.14
25.69
29.9
32.93
34.96
36.16
36.74
36.88
36.8
36.69
36.68
36.82
37.08
37.34
37.41
37.12
36.3
34.82
32.61
29.65
26.03
21.95
17.68
13.54
9.7
6.19
2.83
-0.64
-4.43
-8.59
-12.98
-17.41
-21.72
-25.89
-30.06
-34.49
-39.42
-44.97
-51.06
-57.23
-62.68
-66.37
-67.24
-64.57
-58.27
-48.91
-37.63
-25.75
-14.4
-4.29
4.31
11.46
17.28
21.8
24.97
26.7
27.03
26.26
24.9
23.57
22.83
22.96
23.89
25.28
26.69
27.74
28.22
28.05
27.23
25.73
23.51
20.54
16.91
12.8
8.49
4.23
0.15
-3.69
-7.32
-10.8
-14.2
-17.57
-21.08
-24.87
-29.12
-34.0
-39.53
-45.58
-51.78
-57.48
-61.75
-63.62
-62.25
-57.29
-48.98
-38.21
-26.22
-14.27
-3.29
6.21
14.08
20.4
25.24
28.67
30.81
31.84
32.14
32.16
32.31
32.84
33.82
35.12
36.45
37.51
38.04
37.9
37.09
35.73
33.94
31.77
29.15
25.95
22.07
17.53
12.51
7.3
2.11
-2.94
-7.91
-12.88
-17.93
-23.07
-28.35
-33.85
-39.78
-46.35
-53.63
-61.33
-68.72
-74.67
-77.93
-77.48
-72.88
-64.48
-53.33
-40.86
-28.41
-16.88
-6.6
2.54
10.77
18.11
24.35
29.14
32.34
34.11
34.94
35.43
36.02
36.85
37.8
38.62
39.12
39.21
38.87
38.04
36.64
34.58
31.88
28.7
25.25
21.69
18.07
14.24
10.06
5.41
0.33
-4.99
-10.3
-15.37
-20.07
-24.44
-28.68
-33.09
-38.04
-43.86
-50.61
-58.01
-65.36
-71.59
-75.5
-76.0
-72.45
-64.86
-53.92
-40.86
-27.12
-13.98
-2.29
7.62
15.82
22.5
27.82
31.79
34.43
35.89
36.49
36.69
36.94
37.46
38.27
39.19
40.06
40.77
41.26
41.45
41.16
40.16
38.25
35.41
31.79
27.74
23.57
19.49
15.55
11.65
7.66
3.46
-0.98
-5.64
-10.43
-15.28
-20.12
-24.98
-30.02
-35.48
-41.63
-48.51
-55.81
-62.69
-67.96
-70.32
-68.85
-63.31
-54.3
-43.01
-30.85
-19.0
-8.16
1.43
9.77
16.8
22.34
26.1
27.97
28.17
27.27
26.11
25.43
25.72
27.02
28.99
31.07
32.74
33.68
33.79
33.18
32.0
30.37
28.35
25.91
22.99
19.56
15.62
11.26
6.56
1.65
-3.34
-8.33
-13.26
-18.17
-23.17
-28.45
-34.25
-40.74
-47.92
-55.43
-62.5
-67.94
-70.49
-69.1
-63.33
-53.59
-40.97
-26.94
-12.95
-0.03
11.26
20.78
28.57
34.65
39.04
41.79
43.12
43.47
43.38
43.34
43.61
44.22
44.98
45.66
46.05
46.01
45.46
44.3
42.47
39.92
36.72
33.0
28.94
24.72
20.43
16.09
11.6
6.88
1.86
-3.41
-8.77
-14.02
-19.01
-23.74
-28.41
-33.45
-39.34
-46.42
-54.67
-63.5
-71.79
-78.07
-80.87
-79.21
-72.82
-62.23
-48.67
-33.64
-18.59
-4.61
7.66
17.97
26.32
32.77
37.38
40.29
41.73
42.17
42.15
42.24
42.79
43.84
45.15
46.34
47.14
47.37
46.99
46.01
44.34
41.94
38.76
34.92
30.66
26.26
21.94
17.82
13.83
9.82
5.64
1.23
-3.38
-8.06
-12.64
-17.02
-21.22
-25.46
-30.14
-35.73
-42.54
-50.57
-59.33
-67.82
-74.7
-78.57
-78.3
-73.39
-64.15
-51.63
-37.37
-22.95
-9.57
2.12
11.96
20.1
26.64
31.61
34.94
36.71
37.2
36.98
36.66
36.73
37.37
38.5
39.83
41.06
41.95
42.36
42.19
41.35
39.81
37.56
34.61
31.03
26.91
22.42
17.74
13.1
8.69
4.61
0.84
-2.73
-6.25
-9.93
-13.95
-18.5
-23.81
-30.09
-37.37
-45.35
-53.23
-59.83
-63.81
-64.06
-60.08
-52.1
-41.1
-28.42
-15.4
-3.07
7.94
17.34
25.03
30.97
35.14
37.56
38.47
38.22
37.35
36.39
35.74
35.6
35.86
36.26
36.42
36.06
35.05
33.44
31.41
29.1
26.54
23.59
20.1
15.92
11.11
5.86
0.49
-4.7
-9.47
-13.69
-17.38
-20.7
-23.95
-27.55
-31.9
-37.29
-43.69
-50.71
-57.53
-63.0
-65.86
-65.07
-60.14
-51.32
-39.6
-26.4
-13.15
-0.91
9.78
18.88
26.52
32.78
37.58
40.82
42.5
42.89
42.55
42.07
41.95
42.36
43.19
44.11
44.76
44.85
44.22
42.8
40.63
37.8
34.41
30.6
26.46
22.08
17.54
12.87
8.16
3.45
-1.22
-5.82
-10.37
-14.92
-19.56
-24.45
-29.77
-35.7
-42.31
-49.42
-56.5
-62.68
-66.86
-67.97
-65.28
-58.62
-48.48
-35.97
-22.49
-9.37
2.42
12.47
20.79
27.6
33.06
37.19
39.85
40.99
40.79
39.67
38.22
36.97
36.21
35.95
35.98
36.01
35.81
35.25
34.29
32.95
31.2
28.95
26.13
22.7
18.72
14.33
9.74
5.16
0.72
-3.52
-7.58
-11.55
-15.56
-19.72
-24.2
-29.16
-34.72
-40.92
-47.55
-54.12
-59.76
-63.44
-64.13
-61.2
-54.61
-45.02
-33.54
-21.43
-9.78
0.68
9.62
16.91
22.51
26.34
28.41
28.88
28.14
26.85
25.7
25.23
25.63
26.73
28.05
29.08
29.39
28.9
27.72
26.14
24.4
22.59
20.58
18.17
15.12
11.38
7.08
2.49
-2.05
-6.26
-10.07
-13.56
-17.0
-20.69
-24.93
-29.89
-35.56
-41.64
-47.55
-52.43
-55.35
-55.45
-52.3
-46.01
-37.22
-26.95
-16.29
-6.13
2.99
10.85
17.45
22.8
26.89
29.73
31.34
31.87
31.62
30.91
30.09
29.4
28.98
28.86
28.99
29.18
29.2
28.77
27.64
25.74
23.1
19.86
16.19
12.2
7.92
3.4
-1.29
-6.02
-10.61
-14.93
-18.93
-22.69
-26.36
-30.16
-34.29
-38.94
-44.21
-49.96
-55.76
-60.85
-64.24
-64.96
-62.31
-56.18
-47.11
-36.1
-24.37
-12.99
-2.7
6.17
13.58
19.63
24.42
27.96
30.29
31.49
31.85
31.74
31.58
31.7
32.22
33.04
33.89
34.43
34.36
33.52
31.86
29.43
26.35
22.74
18.74
14.48
10.14
5.84
1.73
-2.14
-5.75
-9.14
-12.38
-15.53
-18.72
-22.06
-25.67
-29.66
-34.1
-39.03
-44.4
-50.04
-55.54
-60.2
-63.09
-63.23
-60.0
-53.39
-44.07
-33.18
-21.96
-11.37
-1.89
6.32
13.25
18.82
22.89
25.37
26.41
26.41
25.93
25.47
25.34
25.67
26.42
27.44
28.52
29.43
29.87
29.6
28.45
26.42
23.67
20.45
17.04
13.65
10.35
7.11
3.83
0.4
-3.24
-7.09
-11.05
-15.01
-18.81
-22.42
-25.94
-29.61
-33.74
-38.62
-44.35
-50.66
-56.85
-61.88
-64.61
-64.11
-60.02
-52.65
-42.87
-31.88
-20.86
-10.68
-1.83
5.49
11.29
15.61
18.5
20.11
20.71
20.7
20.6
20.84
21.67
23.06
24.7
26.13
26.94
26.89
26.05
24.66
23.01
21.28
19.42
17.19
14.29
10.53
5.93
0.74
-4.6
-9.65
-14.13
-18.02
-21.55
-25.14
-29.24
-34.24
-40.33
-47.44
-55.22
-62.94
-69.57
-73.94
-75.02
-72.26
-65.72
-56.16
-44.71
-32.56
-20.65
-9.52
0.58
9.54
17.21
23.45
28.11
31.23
33.01
33.83
34.19
34.54
35.21
36.32
37.81
39.42
40.78
41.54
41.47
40.48
38.64
