0
-15.21
-19.95
-24.17
-27.99
-31.64
-35.45
-39.86
-45.27
-51.87
-59.3
-66.47
-71.63
-72.83
-68.54
-58.31
-42.98
-24.48
-5.24
12.57
27.42
38.6
46.0
49.82
50.38
48.13
43.67
37.82
31.55
25.8
21.27
18.31
16.78
16.26
16.19
16.19
16.11
16.05
16.17
16.37
16.27
15.21
12.63
8.35
2.68
-3.62
-9.68
-14.85
-18.99
-22.4
-25.7
-29.58
-34.59
-40.95
-48.4
-56.07
-62.53
-65.98
-64.76
-57.93
-45.72
-29.56
-11.74
5.36
19.93
31.06
38.68
43.14
44.78
43.74
40.09
34.11
26.55
18.59
11.57
6.6
4.12
3.84
4.88
6.16
6.8
6.35
4.88
2.78
0.5
-1.71
-3.92
-6.42
-9.59
-13.76
-19.07
-25.5
-32.83
-40.53
-47.66
-52.91
-54.81
-52.16
-44.49
-32.35
-17.18
-0.94
14.48
27.66
37.76
44.46
47.71
47.64
44.49
38.84
31.63
24.05
17.31
12.31
9.31
7.99
7.54
7.12
6.09
4.32
2.05
-0.28
-2.36
-4.17
-6.04
-8.49
-12.11
-17.34
-24.36
-32.85
-41.91
-50.03
-55.29
-55.92
-50.85
-40.22
-25.37
-8.48
8.17
22.74
34.2
42.19
46.77
48.09
46.33
41.9
35.52
28.28
21.43
15.99
12.46
10.7
10.03
9.6
8.79
7.39
5.65
3.98
2.65
1.56
0.21
-2.1
-6.04
-11.98
-19.88
-29.17
-38.72
-46.9
-51.87
-52.02
-46.49
-35.58
-20.74
-4.13
11.99
25.86
36.51
43.67
47.48
48.2
46.11
41.6
35.31
28.21
21.43
15.95
12.32
10.49
9.88
9.65
9.04
7.71
5.72
3.43
1.24
-0.68
-2.56
-4.87
-8.29
-13.42
-20.54
-29.44
-39.18
-48.15
-54.36
-55.86
-51.48
-41.21
-26.39
-9.32
7.49
22.0
33.18
40.91
45.63
47.82
47.72
45.39
40.99
35.07
28.62
22.86
18.78
16.76
16.49
17.11
17.63
17.31
15.89
13.6
10.9
8.23
5.81
3.53
1.01
-2.27
-6.8
-12.9
-20.67
-29.78
-39.44
-48.32
-54.7
-56.83
-53.43
-44.24
-30.17
-13.2
4.21
19.78
31.99
40.31
45.0
46.79
46.41
44.45
41.33
37.38
33.05
28.8
25.11
22.3
20.45
19.45
19.1
19.16
19.4
19.57
19.33
18.29
16.15
12.79
8.39
3.39
-1.73
-6.64
-11.27
-15.91
-21.05
-27.24
-34.78
-43.47
-52.38
-59.89
-64.03
-63.0
-55.91
-43.14
-26.36
-8.07
9.18
23.52
34.11
41.08
45.14
47.09
47.49
46.63
44.7
41.94
38.82
35.91
33.71
32.39
31.75
31.32
30.55
29.18
27.3
25.29
23.55
22.21
21.0
19.32
16.52
12.2
6.41
-0.36
-7.32
-13.72
-19.08
-23.36
-26.92
-30.39
-34.49
-39.81
-46.51
-54.2
-61.81
-67.72
-70.16
-67.75
-60.02
-47.65
-32.22
-15.78
-0.18
13.34
24.24
32.51
38.39
42.17
44.11
44.52
43.78
42.38
40.73
39.18
37.9
36.91
36.11
35.31
34.37
33.22
31.95
30.74
29.75
28.92
27.91
26.23
23.48
19.57
14.83
9.93
5.49
1.81
-1.25
-4.18
-7.51
-11.48
-15.95
-20.52
-24.74
-28.38
-31.52
-34.5
-37.72
-41.6
-46.45
-52.39
-59.22
-66.22
-72.12
-75.26
-74.1
-67.82
-56.67
-42.01
-25.85
-10.2
3.47
14.48
22.8
28.82
32.91
35.44
36.67
36.93
36.58
36.01
35.54
35.36
35.45
35.71
35.93
36.01
35.9
35.7
35.55
35.55
35.61
35.51
34.91
33.54
31.29
28.3
24.89
21.44
18.24
15.42
12.89
10.42
7.75
4.75
1.43
-2.03
-5.35
-8.35
-11.0
-13.52
-16.22
-19.4
-23.13
-27.28
-31.51
-35.47
-38.96
-41.98
-44.76
-47.65
-51.1
-55.5
-61.05
-67.58
-74.33
-80.01
-82.99
-81.81
-75.71
-65.01
-51.04
-35.69
-20.84
-7.82
2.8
11.06
17.32
21.95
25.19
27.24
28.27
28.56
28.46
28.3
28.31
28.57
29.03
29.58
30.06
30.39
30.54
30.56
30.47
30.25
29.83
29.1
27.9
26.08
23.59
20.44
16.81
13.02
9.44
6.34
3.78
1.56
-0.74
-3.51
-6.95
-11.0
-15.37
-19.68
-23.65
-27.16
-30.3
-33.24
-36.28
-39.7
-43.86
-49.0
-55.13
-61.83
-68.09
-72.55
-73.77
-70.72
-63.19
-51.91
-38.33
-24.15
-10.87
0.54
9.73
16.72
21.76
25.13
27.05
27.81
27.69
27.11
26.46
26.14
26.36
27.14
28.31
29.54
30.54
31.15
31.35
31.26
30.97
30.43
29.45
27.81
25.42
22.43
19.15
15.95
13.03
10.35
7.68
4.76
1.48
-2.08
-5.69
-9.18
-12.46
-15.58
-18.6
-21.54
-24.37
-27.02
-29.49
-31.88
-34.4
-37.33
-40.93
-45.5
-51.22
-58.03
-65.41
-72.25
-76.97
-77.97
-74.14
-65.37
-52.66
-37.78
-22.68
-8.92
2.65
11.82
18.75
23.63
26.58
27.71
27.26
25.69
23.7
21.99
21.09
21.26
22.43
24.31
26.49
28.53
30.06
30.8
30.63
29.62
27.99
26.01
23.91
21.72
19.29
16.38
12.75
8.37
3.41
-1.77
-6.73
-11.11
-14.73
-17.69
-20.4
-23.44
-27.5
-33.08
-40.37
-49.0
-58.08
-66.44
-72.91
-76.79
-78.04
-77.32
-75.71
-74.24
-73.4
-72.81
-71.3
-67.29
-59.28
-46.41
-28.63
-6.61
18.61
45.92
74.38
103.12
131.17
157.29
180.03
197.87
209.71
215.19
214.82
209.95
202.38
194.01
186.41
180.3
175.33
169.89
161.48
147.48
126.13
97.3
62.64
24.96
-12.81
-48.37
-80.44
-108.37
-131.63
-149.5
-161.25
-166.72
-166.7
-162.91
-157.39
-151.68
-146.37
-141.05
-134.86
-127.07
-117.53
-106.76
-95.65
-85.18
-76.11
-68.97
-63.92
-60.83
-59.14
-57.73
-54.96
-49.05
-38.57
-23.02
-3.17
19.18
41.77
62.65
80.74
95.95
108.86
120.2
130.38
139.39
146.89
152.6
156.62
159.62
162.86
168.14
177.46
192.54
214.05
240.85
269.72
295.79
313.81
319.84
312.48
293.23
265.5
233.13
198.8
163.25
125.56
84.0
36.73
-17.73
-80.21
-150.25
-225.31
-300.27
-367.96
-420.91
-453.85
-465.66
-459.88
-443.15
-422.6
-403.2
-386.56
-371.28
-354.56
-333.96
-308.43
-278.35
-245.07
-210.15
-175.01
-140.86
-108.83
-80.06
-55.87
-37.27
-24.64
-17.36
-13.71
-11.31
-7.82
-1.7
7.26
18.06
28.99
38.43
45.45
50.08
53.02
55.17
57.04
58.54
58.99
57.58
53.78
47.65
39.91
31.59
23.66
16.69
10.64
5.03
-0.78
-7.4
-15.19
-24.28
-34.48
-45.2
-55.29
-63.02
-66.43
-63.92
-54.89
-40.1
-21.62
-2.1
15.99
31.11
42.79
51.45
57.73
62.13
64.77
65.57
64.52
61.84
58.05
53.69
49.29
45.22
41.65
38.67
36.2
34.04
31.9
29.41
26.34
22.66
18.55
14.28
10.03
5.83
1.5
-3.25
-8.7
-15.09
-22.42
-30.23
-37.51
-42.64
-43.8
-39.54
-29.42
-14.26
4.07
23.2
40.98
56.0
67.61
75.69
80.29
81.51
79.52
74.81
68.37
61.53
55.67
51.74
49.97
49.86
50.45
50.78
50.27
48.81
46.67
44.19
41.55
38.68
35.32
31.1
25.65
18.62
9.79
-0.82
-12.71
-24.73
-35.1
-41.7
-42.76
-37.37
-25.94
-10.11
7.7
25.0
39.84
51.2
58.91
63.3
64.79
63.7
60.29
54.92
48.31
41.49
35.58
31.39
29.1
28.19
27.67
26.53
24.19
20.66
16.44
12.18
8.3
4.81
1.36
-2.61
-7.6
-13.95
-21.78
-30.93
-40.87
-50.49
-58.1
-61.7
-59.56
-50.95
-36.58
-18.52
0.4
17.54
31.21
40.93
47.17
50.79
52.42
52.32
50.47
46.9
42.01
36.59
31.62
27.92
25.86
25.24
25.36
25.4
24.66
22.79
19.87
16.21
12.16
7.96
3.65
-0.82
-5.53
-10.56
-16.05
-22.26
-29.46
-37.78
-46.79
-55.29
-61.4
-63.08
-58.82
-48.32
-32.72
-14.32
4.18
20.48
33.2
42.02
47.29
49.67
49.79
48.14
45.18
41.45
37.53
33.99
31.18
29.23
27.99
27.2
26.62
26.02
25.3
24.32
22.88
20.7
17.48
13.05
7.49
1.16
-5.34
-11.4
-16.67
-21.21
-25.51
-30.4
-36.65
-44.57
-53.63
-62.37
-68.67
-70.35
-65.93
-55.22
-39.46
-20.98
-2.46
13.88
26.75
35.93
41.94
45.51
47.25
47.47
46.29
43.92
40.79
37.55
34.93
33.43
33.06
33.4
33.73
33.39
32.03
29.7
26.74
23.57
20.45
17.42
14.33
10.9
6.88
2.23
-2.97
-8.4
-13.73
-18.63
-22.95
-26.67
-30.01
-33.32
-37.07
-41.77
-47.79
-55.1
-62.99
-70.02
-74.23
-73.76
-67.52
-55.67
-39.65
-21.73
-4.24
11.03
23.21
32.16
38.2
41.76
43.22
42.9
41.24
38.83
36.35
34.4
33.35
33.22
33.77
34.61
35.4
35.94
36.16
36.04
35.55
34.59
33.08
31.01
28.48
25.68
22.74
19.72
16.62
13.4
10.05
6.58
3.02
-0.57
-4.13
-7.54
-10.72
-13.64
-16.43
-19.33
-22.65
-26.51
-30.76
-35.01
-38.78
-41.83
-44.26
-46.6
-49.56
-53.79
-59.63
-66.89
-74.71
-81.64
-85.87
-85.61
-79.74
-68.16
-51.99
-33.27
-14.42
2.46
16.03
25.87
32.21
35.63
36.74
36.06
34.13
31.55
29.06
27.35
26.87
27.66
29.28
31.05
32.36
32.89
32.75
32.26
31.74
31.25
30.57
29.28
27.02
23.68
19.42
14.67
9.99
5.82
2.36
-0.52
-3.21
-6.2
-9.84
-14.15
-18.82
-23.33
-27.23
-30.36
-32.9
-35.34
-38.25
-42.19
-47.47
-54.04
-61.33
-68.19
-73.06
-74.25
-70.51
-61.48
-47.95
-31.61
-14.6
1.12
14.26
24.28
31.28
35.59
37.61
37.65
36.08
33.42
30.34
27.6
25.77
25.07
25.34
26.11
26.9
27.38
27.52
27.47
27.43
27.49
27.46
26.98
25.68
23.3
19.81
15.49
10.77
6.16
1.99
-1.61
-4.81
-7.93
-11.31
-15.16
-19.48
-24.06
-28.57
-32.68
-36.27
-39.44
-42.55
-46.12
-50.64
-56.32
-62.85
-69.28
-74.14
-75.77
-72.88
-64.93
-52.5
-37.02
-20.41
-4.49
9.42
20.63
28.96
34.5
37.48
38.21
37.14
34.91
32.27
29.9
28.23
27.39
27.19
27.37
27.68
28.02
28.41
28.92
29.51
30.04
30.16
29.49
27.66
24.57
20.39
15.62
10.87
6.66
3.17
0.17
-2.83
-6.29
-10.45
-15.14
-19.92
-24.31
-28.04
-31.18
-34.01
-37.01
-40.62
-45.24
-51.06
-57.94
-65.1
-71.13
-74.22
-72.73
-65.82
-53.88
-38.49
-21.81
-5.97
7.6
18.28
26.04
31.15
33.77
34.02
32.13
28.57
24.14
19.85
16.59
14.93
14.94
16.23
18.13
19.93
21.11
21.47
21.12
20.29
19.16
17.74
15.81
13.06
9.25
4.43
-1.08
-6.69
-11.84
-16.18
-19.68
-22.67
-25.67
-29.21
-33.7
-39.3
-45.81
-52.65
-58.71
-62.6
-62.84
-58.39
-49.07
-35.73
-20.0
-3.88
10.86
23.07
32.24
38.33
41.48
41.89
39.85
35.89
30.9
25.91
21.89
19.36
18.27
18.15
18.32
18.3
17.95
17.41
16.9
16.46
15.79
14.37
11.73
7.64
2.31
-3.71
-9.74
-15.24
-19.99
-24.19
-28.33
-33.13
-39.21
-46.84
-55.68
-64.59
-71.85
-75.48
-73.9
-66.44
-53.68
-37.25
-19.36
-2.18
12.67
24.34
32.67
37.94
40.6
41.08
39.8
37.18
33.76
30.12
26.85
24.4
22.99
22.54
22.76
23.27
23.75
23.87
23.36
21.96
19.51
15.97
11.53
6.52
1.32
-3.8
-8.79
-13.81
-19.21
-25.44
-32.84
-41.4
-50.5
-58.77
-64.29
-65.14
-60.07
-49.06
-33.5
-15.69
1.78
16.87
28.46
36.43
41.32
43.87
44.69
44.15
42.47
39.87
36.68
33.33
30.28
27.86
26.24
25.37
25.01
24.83
24.48
23.65
22.09
19.62
16.22
11.99
7.17
2.02
-3.22
-8.39
-13.47
-18.65
-24.28
-30.75
-38.24
-46.36
-53.98
-59.32
-60.47
-56.06
-45.92
-31.24
-14.2
2.75
17.65
29.41
37.84
43.2
45.95
46.47
45.17
42.6
39.45
36.48
34.25
32.96
32.41
32.18
31.89
31.31
30.48
29.5
28.45
27.17
25.34
22.56
18.59
13.53
7.77
1.92
-3.44
-8.0
-11.81
-15.29
-19.1
-23.94
-30.25
-37.95
-46.28
-53.78
-58.59
-58.97
-53.87
-43.38
-28.79
-12.21
4.09
18.27
29.38
37.29
42.46
45.52
46.94
47.0
45.85
43.76
41.16
38.66
36.8
35.88
35.8
36.13
36.28
35.8
34.52
32.57
30.27
27.9
25.49
22.88
19.77
15.92
11.29
6.06
0.61
-4.65
-9.36
-13.36
-16.68
-19.55
-22.32
-25.39
-29.16
-34.0
-40.09
-47.26
-54.8
-61.39
-65.41
-65.31
-60.17
-50.12
-36.38
-20.87
-5.64
7.71
18.33
26.11
31.38
34.57
36.03
35.96
34.62
32.37
29.8
27.58
26.27
26.11
26.91
28.17
29.26
29.72
29.37
28.32
26.84
25.18
23.43
21.53
19.29
16.48
12.92
8.55
3.52
-1.85
-7.13
-11.89
-15.89
-19.14
-21.88
-24.47
-27.27
-30.58
-34.66
-39.67
-45.52
-51.72
-57.21
-60.52
-60.19
-55.38
-46.22
-33.88
-20.16
-6.85
4.78
14.09
21.0
25.61
27.98
28.16
26.37
23.17
19.44
16.2
14.18
13.67
14.44
15.87
17.28
18.14
18.25
17.69
16.69
15.49
14.2
12.73
10.81
8.15
4.58
0.18
-4.65
-9.35
-13.44
-16.74
-19.46
-22.14
-25.42
-29.8
-35.45
-42.13
-49.16
-55.46
-59.68
-60.53
-57.14
-49.38
-38.04
-24.63
-10.91
1.61
11.99
19.89
25.36
28.61
29.8
29.16
27.09
24.22
21.29
18.93
17.52
17.03
17.15
17.5
17.78
17.84
17.66
17.24
16.52
15.33
13.45
10.65
6.84
2.1
-3.28
-8.85
-14.09
-18.65
-22.44
-25.76
-29.2
-33.43
-38.97
-45.86
-53.48
-60.58
-65.52
-66.74
-63.23
-54.95
-42.85
-28.57
-13.98
-0.64
10.51
19.17
25.46
29.66
32.06
32.85
32.27
30.68
28.67
26.85
25.74
25.55
26.1
26.9
27.4
27.26
26.44
25.2
23.84
22.5
20.99
18.82
15.55
10.94
5.19
-1.11
-7.2
-12.45
-16.6
-19.89
-22.93
-26.52
-31.39
-37.91
-45.92
-54.64
-62.65
-68.21
-69.65
-65.88
-56.8
-43.43
-27.64
-11.6
2.85
14.64
23.5
29.71
33.74
36.01
36.78
36.35
35.1
33.53
32.12
31.21
30.93
31.15
31.61
31.96
31.91
31.29
30.11
28.61
27.03
25.56
24.06
22.12
19.18
14.89
9.31
2.93
-3.46
-9.16
-13.86
-17.7
-21.17
-24.89
-29.36
-34.92
-41.68
-49.49
-57.8
-65.52
-71.09
-72.85
-69.52
-60.76
-47.35
-31.04
-13.95
1.98
15.5
26.08
33.74
38.82
41.67
42.71
42.37
41.18
39.71
38.46
37.77
37.7
38.1
38.68
39.11
39.23
39.02
38.57
38.01
37.31
36.26
34.55
31.91
28.26
23.77
18.87
14.0
9.52
5.49
1.72
-2.18
-6.51
-11.38
-16.53
-21.56
-26.02
-29.79
-33.11
-36.55
-40.76
-46.24
-53.12
-61.0
-68.93
-75.42
-78.75
-77.37
-70.4
-58.1
-41.85
-23.83
-6.33
8.87
20.91
29.79
35.97
39.99
42.22
42.91
42.36
41.03
39.55
38.51
38.26
38.82
39.95
41.29
42.51
43.49
44.19
44.58
44.57
43.97
42.62
40.46
37.63
34.37
30.95
27.52
24.11
20.65
17.1
13.49
9.88
6.38
3.02
-0.25
-3.52
-6.92
-10.5
-14.23
-18.06
-21.89
-25.62
-29.12
-32.35
-35.32
-38.29
-41.65
-45.98
-51.74
-58.99
-67.12
-74.81
-80.2
-81.38
-77.06
-67.05
-52.34
-34.88
-16.95
-0.51
13.21
23.75
31.21
35.97
38.37
38.74
37.47
35.16
32.58
30.47
29.38
29.42
30.31
31.52
32.58
33.27
33.65
33.93
34.29
34.64
34.64
33.85
31.93
28.83
24.81
20.37
15.99
12.03
8.56
5.46
2.4
-0.92
-4.75
-9.13
-13.91
-18.73
-23.13
-26.77
-29.55
-31.79
-34.1
-37.29
-41.97
-48.26
-55.6
-62.71
-67.86
-69.33
-65.94
-57.44
-44.61
-29.07
-12.79
2.41
15.27
25.19
32.13
36.39
38.34
38.35
36.83
34.31
31.43
28.86
27.14
26.45
26.66
27.33
28.03
28.49
28.69
28.76
28.74
28.52
27.79
26.26
23.79
20.56
16.92
13.25
9.76
6.42
3.02
-0.66
-4.71
-9.07
-13.53
-17.84
-21.81
-25.31
-28.36
-31.17
-34.14
-37.84
-42.81
-49.22
-56.62
-63.78
-68.92
-70.3
-66.78
-58.29
-45.85
-31.24
-16.35
-2.75
8.62
17.38
23.51
27.15
28.48
27.8
25.52
22.27
18.8
15.85
13.97
13.39
13.96
15.24
16.66
17.77
18.39
18.59
18.56
18.38
17.89
16.69
14.38
10.73
5.91
0.4
-5.09
-9.97
-13.87
-16.83
-19.19
-21.51
-24.37
-28.27
-33.44
-39.71
-46.41
-52.33
-56.0
-56.06
-51.74
-43.19
-31.48
-18.29
-5.37
5.92
14.87
21.28
25.3
27.09
26.81
24.69
21.15
16.83
12.54
9.01
6.72
5.74
5.8
6.39
6.98
7.12
6.53
5.12
2.97
0.25
-2.83
-6.08
-9.43
-12.93
-16.78
-21.25
-26.57
-32.78
-39.59
-46.26
-51.69
-54.6
-53.87
-48.9
-39.89
-27.83
-14.32
-1.06
10.57
19.77
26.38
30.56
32.56
32.54
30.67
27.26
22.94
18.55
14.94
12.59
11.51
11.27
11.23
10.86
9.89
8.35
6.44
4.36
2.16
-0.26
-3.19
-7.01
-12.1
-18.7
-26.76
-35.74
-44.54
-51.63
-55.33
-54.36
-48.23
-37.52
-23.69
-8.67
5.72
18.18
28.08
35.32
40.07
42.51
42.82
41.2
38.08
34.1
30.07
26.72
24.46
23.28
22.79
22.38
21.49
19.79
17.27
14.13
10.69
7.19
3.69
0.08
-3.89
-8.53
-14.1
-20.78
-28.55
-37.08
-45.56
-52.73
-57.04
-57.09
-52.09
-42.18
-28.5
-12.82
2.91
17.12
28.88
37.86
44.17
48.11
49.99
50.22
49.19
47.39
45.27
43.13
41.12
39.25
37.44
35.67
33.98
32.45
31.11
29.83
28.32
26.15
22.95
18.5
12.87
6.46
-0.17
-6.4
-11.85
-16.44
-20.54
-24.85
-30.25
-37.41
-46.45
-56.6
-66.1
-72.6
-73.86
-68.53
-56.72
-40.06
-21.15
-2.69
13.26
25.75
34.87
41.34
45.94
49.25
51.52
52.83
53.28
53.14
52.76
52.46
52.39
52.43
52.32
51.81
50.84
49.56
48.25
47.13
46.22
45.31
44.05
42.14
39.4
35.81
31.49
26.63
21.47
16.27
11.36
6.99
3.28
0.11
-2.88
-6.16
-10.15
-14.98
-20.47
-26.16
-31.5
-36.09
-39.8
-42.87
-45.78
-49.19
-53.7
-59.74
-67.33
-75.92
-84.21
-90.33
-92.26
-88.48
-78.56
-63.34
-44.81
-25.42
-7.4
7.81
19.67
28.37
34.5
38.71
41.53
43.35
44.47
45.16
45.68
46.22
46.93
47.73
48.46
48.8
48.55
47.72
46.57
45.54
44.93
44.71
44.39
43.27
40.76
36.69
31.47
25.9
20.76
16.54
13.19
10.25
7.11
3.3
-1.29
-6.46
-11.77
-16.8
-21.27
-25.13
-28.56
-31.91
-35.67
-40.34
-46.25
-53.43
-61.28
-68.64
-73.86
-75.31
-71.84
-63.31
-50.61
-35.45
-19.78
-5.25
7.1
16.94
24.41
29.85
33.56
35.76
36.62
36.37
35.4
34.15
33.09
32.51
32.5
32.92
33.53
34.06
34.37
34.45
34.33
33.99
33.32
32.07
30.02
27.13
23.54
19.62
15.79
12.35
9.37
6.65
3.86
0.64
-3.18
-7.57
-12.27
-16.88
-21.01
-24.39
-27.04
-29.28
-31.71
-35.03
-39.79
-46.12
-53.51
-60.85
-66.57
-69.08
-67.22
-60.63
-49.92
-36.45
-22.06
-8.46
3.11
12.08
18.48
22.7
25.22
26.44
26.67
26.21
25.41
24.69
24.4
24.71
25.56
26.66
27.68
28.37
28.72
28.8
28.74
28.55
28.04
26.94
25.01
22.19
18.64
14.71
10.77
7.09
3.7
0.5
-2.71
-6.09
-9.63
-13.17
-16.5
-19.46
-22.08
-24.59
-27.39
-30.94
-35.6
-41.49
-48.34
-55.38
-61.41
-65.03
-64.97
-60.55
-51.93
-40.14
-26.79
-13.58
-1.88
7.57
14.61
19.52
22.68
24.45
25.1
24.9
24.19
23.33
22.7
22.54
22.9
23.65
24.53
25.32
25.85
26.12
26.2
26.1
25.74
24.88
23.27
20.73
17.37
13.52
9.65
6.15
3.12
0.35
-2.57
-5.99
-10.03
-14.48
-18.94
-23.02
-26.52
-29.57
-32.53
-35.91
-40.16
-45.54
-51.88
-58.48
-64.14
-67.37
-66.84
-61.8
-52.47
-39.93
-25.89
-12.09
0.1
9.9
17.16
22.08
25.03
26.38
26.5
25.82
24.83
23.99
23.58
23.72
24.25
24.94
25.53
25.91
26.08
26.13
26.15
26.12
25.86
25.1
23.57
21.13
17.92
14.24
10.49
6.92
3.58
0.25
-3.4
-7.59
-12.28
-17.17
-21.81
-25.85
-29.25
-32.29
-35.49
-39.41
-44.51
-50.89
-58.18
-65.46
-71.38
-74.43
-73.37
-67.6
-57.47
-44.18
-29.49
-15.2
-2.68
7.32
14.73
19.87
23.2
25.2
26.25
26.66
26.77
26.85
27.1
27.6
28.24
28.84
29.29
29.59
29.9
30.44
31.27
32.19
32.8
32.59
31.18
28.5
24.81
20.55
16.2
12.07
8.24
4.58
0.84
-3.23
-7.73
-12.6
-17.57
-22.31
-26.51
-30.12
-33.32
-36.61
-40.62
-45.85
-52.37
-59.59
-66.32
-70.92
-71.87
-68.17
-59.72
-47.41
-32.77
-17.57
-3.36
8.79
18.4
25.43
30.1
32.77
33.85
33.8
33.05
32.08
31.24
30.78
30.77
31.12
31.69
32.35
33.08
33.91
34.85
35.74
36.24
35.92
34.44
31.72
28.07
23.94
19.83
16.06
12.59
9.18
5.46
1.22
-3.54
-8.61
-13.62
-18.29
-22.45
-26.16
-29.64
-33.32
-37.65
-43.01
-49.45
-56.41
-62.75
-66.82
-67.02
-62.32
-52.75
-39.42
-24.2
-9.08
4.35
15.2
23.26
28.77
32.14
33.83
34.26
33.82
32.91
31.89
31.08
30.71
30.95
31.77
33.03
34.48
35.8
36.74
37.16
37.01
36.27
34.89
32.78
29.92
26.41
22.51
18.49
14.56
10.71
6.79
2.59
-2.0
-6.9
-11.81
-16.43
-20.57
-24.27
-27.89
-31.95
-36.97
-43.17
-50.27
-57.27
-62.68
-64.82
-62.4
-55.02
-43.4
-29.15
-14.31
-0.66
10.66
19.32
25.55
29.73
32.17
32.98
32.26
30.29
27.65
25.13
23.44
23.04
23.85
25.43
27.1
28.25
28.58
28.13
27.19
26.08
24.97
23.8
22.31
20.2
17.24
13.37
8.72
3.59
-1.66
-6.65
-11.1
-14.91
-18.19
-21.23
-24.41
-28.15
-32.79
-38.44
-44.82
-51.14
-56.15
-58.36
-56.57
-50.29
-40.03
-27.18
-13.57
-0.91
9.63
17.55
22.89
25.9
26.89
26.2
24.28
21.72
19.19
17.29
16.35
16.32
16.89
17.66
18.32
18.78
19.11
19.36
19.43
19.04
17.82
15.47
11.95
7.55
2.74
-1.97
-6.22
-9.98
-13.45
-17.11
-21.43
-26.79
-33.19
-40.2
-46.82
-51.69
-53.38
-50.91
-44.1
-33.73
-21.3
-8.63
2.77
11.98
18.8
23.43
26.25
27.51
27.36
25.96
23.58
20.66
17.77
15.38
13.79
13.07
13.05
13.41
13.76
13.73
13.09
11.74
9.72
7.15
4.12
0.69
-3.11
-7.21
-11.55
-16.1
-20.97
-26.42
-32.61
-39.38
-45.99
-51.11
-53.24
-51.21
-44.68
-34.34
-21.69
-8.5
3.7
13.94
21.83
27.38
30.77
32.2
31.93
30.29
27.76
24.88
22.18
20.04
18.64
17.94
17.8
17.96
18.11
17.94
17.14
15.48
12.91
9.56
5.72
1.69
-2.31
-6.26
-10.29
-14.61
-19.5
-25.21
-31.83
-39.21
-46.66
-53.02
-56.76
-56.51
-51.59
-42.29
-29.91
-16.27
-3.21
7.96
16.62
22.79
26.82
29.19
30.33
30.61
30.29
29.58
28.63
27.57
26.5
25.57
24.85
24.37
24.07
23.81
23.37
22.49
20.91
18.44
15.01
10.73
5.91
0.93
-3.85
-8.27
-12.43
-16.67
-21.48
-27.27
-34.16
-41.79
-49.18
-54.91
-57.43
-55.61
-49.16
-38.75
-25.84
-12.2
0.63
11.7
20.65
27.54
32.56
35.81
37.37
37.41
36.32
34.69
33.23
32.48
32.59
33.32
34.07
34.22
33.46
31.87
29.89
28.06
26.63
25.45
23.97
21.53
17.65
12.35
6.14
-0.21
-5.95
-10.64
-14.29
-17.3
-20.29
-23.94
-28.78
-35.08
-42.63
-50.59
-57.59
-61.93
-62.09
-57.27
-47.75
-34.8
-20.3
-6.14
6.34
16.48
24.23
29.87
33.75
36.13
37.29
37.53
37.18
36.6
36.08
35.8
35.81
36.06
36.43
36.76
36.89
36.64
35.91
34.61
32.73
30.28
27.32
23.96
20.37
16.73
13.16
9.62
5.94
1.87
-2.74
-7.83
-13.09
-18.11
-22.57
-26.38
-29.79
-33.25
-37.31
-42.41
-48.67
-55.75
-62.74
-68.18
-70.42
-68.07
-60.59
-48.55
-33.52
-17.59
-2.72
9.77
19.44
26.49
31.47
34.85
36.98
38.02
38.17
37.75
37.21
36.99
37.37
38.35
39.64
40.84
41.65
41.95
41.79
41.29
40.51
39.38
37.82
35.81
33.44
30.88
28.23
25.49
22.63
19.58
16.41
13.21
10.06
7.0
4.01
1.07
-1.82
-4.68
-7.56
-10.58
-13.86
-17.42
-21.21
-25.05
-28.81
-32.47
-36.21
-40.33
-45.19
-51.09
-57.98
-65.33
-71.97
-76.32
-76.76
-72.29
-62.97
-49.96
-35.18
-20.59
-7.68
2.88
11.03
17.0
21.01
23.2
23.72
23.0
21.7
20.61
20.38
21.24
23.03
25.21
27.18
28.53
29.14
29.21
29.03
28.83
28.55
27.92
26.55
24.25
21.1
17.45
13.77
10.38
7.36
4.48
1.46
-1.96
-5.81
-9.89
-13.85
-17.33
-20.19
-22.48
-24.54
-26.89
-30.1
-34.62
-40.53
-47.42
-54.28
-59.66
-61.98
-60.06
-53.54
-43.02
-29.97
-16.21
-3.38
7.42
15.83
21.95
26.09
28.51
29.41
29.0
27.66
25.96
24.52
23.81
24.01
24.92
26.17
27.37
28.29
28.9
29.29
29.51
29.48
28.93
27.54
25.08
21.61
17.41
12.96
8.73
4.96
1.63
-1.46
-4.62
-8.0
-11.66
-15.44
-19.16
-22.68
-25.96
-29.12
-32.43
-36.24
-40.91
-46.68
-53.44
-60.57
-66.91
-70.97
-71.32
-67.09
-58.34
-46.07
-31.96
-17.82
-5.09
5.46
13.72
19.97
24.54
27.62
29.26
29.52
28.67
27.25
25.92
25.26
25.49
26.48
27.83
29.12
30.08
30.7
31.07
31.26
31.11
30.35
28.69
26.02
22.53
18.63
14.81
11.36
8.28
5.31
2.05
-1.78
-6.2
-10.98
-15.73
-20.04
-23.75
-26.9
-29.83
-33.04
-37.14
-42.55
-49.35
-57.06
-64.57
-70.31
-72.67
-70.45
-63.34
-51.93
-37.63
-22.21
-7.38
5.58
15.92
23.44
28.35
31.13
32.36
32.59
32.25
31.69
31.13
30.8
30.85
31.37
32.32
33.49
34.61
35.44
35.83
35.68
34.97
33.63
31.59
28.84
25.5
21.8
18.0
14.27
10.6
6.83
2.75
-1.75
-6.56
-11.45
-16.08
-20.24
-23.88
-27.18
-30.47
-34.25
-39.0
-45.05
-52.29
-59.97
-66.69
-70.64
-70.23
-64.63
-54.15
-40.16
-24.63
-9.47
3.91
14.81
23.1
28.93
32.52
34.14
34.17
33.13
31.68
30.41
29.71
29.7
30.23
31.06
31.98
32.87
33.68
34.34
34.75
34.73
34.06
32.59
30.28
27.24
23.65
19.77
15.77
11.72
7.59
3.3
-1.24
-5.99
-10.79
-15.44
-19.73
-23.67
-27.44
-31.45
-36.17
-42.02
-49.04
-56.76
-64.02
-69.16
-70.52
-66.93
-58.22
-45.36
-30.15
-14.6
-0.4
11.51
20.81
27.64
32.24
34.81
35.55
34.71
32.77
30.33
28.11
26.67
26.34
27.11
28.66
30.49
32.08
33.08
33.28
32.7
31.43
29.6
27.29
24.56
21.43
17.86
13.8
9.28
4.38
-0.71
-5.74
-10.44
-14.67
-18.42
-21.82
-25.13
-28.72
-33.07
-38.55
-45.26
-52.66
-59.51
-64.08
-64.67
-60.28
-51.04
-38.19
-23.65
-9.31
3.46
13.98
22.12
27.95
31.52
32.84
32.1
29.78
26.7
23.79
21.77
20.92
21.06
21.67
22.22
22.4
22.2
21.84
21.47
21.09
20.4
18.98
16.45
12.67
7.83
2.42
-2.99
-7.88
-11.98
-15.34
-18.28
-21.37
-25.17
-30.14
-36.35
-43.3
-49.9
-54.64
-55.97
-52.85
-45.14
-33.75
-20.36
-6.87
5.13
14.77
21.88
26.69
29.51
30.51
29.77
27.44
23.97
20.07
16.57
14.13
13.03
13.07
13.7
14.31
14.37
13.62
12.08
9.91
7.32
4.46
1.4
-1.85
-5.33
-9.1
-13.19
-17.72
-22.83
-28.59
-34.89
-41.16
-46.39
-49.21
-48.37
-43.18
-33.87
-21.59
-8.09
4.88
16.02
24.75
31.11
35.42
37.98
38.86
37.96
35.33
31.28
26.54
22.03
18.6
16.73
16.3
16.75
17.27
17.18
16.05
13.9
10.96
7.57
4.05
0.52
-3.07
-6.9
-11.31
-16.67
-23.22
-30.96
-39.35
-47.4
-53.65
-56.63
-55.24
-49.14
-38.92
-25.94
-11.96
1.33
12.7
21.52
27.77
31.75
33.91
34.61
34.1
32.55
30.19
27.45
24.85
22.93
21.98
21.92
22.26
22.36
21.69
20.06
17.66
14.82
11.82
8.71
5.35
1.5
-2.92
-7.9
-13.37
-19.41
-26.16
-33.62
-41.34
-48.24
-52.71
-53.25
-48.96
-40.04
-27.74
-13.95
-0.59
10.9
19.84
26.22
30.42
32.98
34.37
34.98
35.02
34.65
33.93
32.9
31.63
30.25
28.92
27.77
26.85
26.06
25.19
23.92
21.97
19.22
15.69
11.58
7.15
2.61
-1.94
-6.49
-11.16
-16.16
-21.82
-28.46
-36.17
-44.53
-52.43
-58.23
-60.26
-57.39
-49.6
-37.98
-24.42
-10.96
0.89
10.42
17.7
23.32
27.87
31.75
34.96
37.31
38.56
38.71
38.04
37.06
36.3
36.05
36.22
36.4
36.18
35.29
33.84
32.16
30.58
29.18
27.65
25.49
22.2
17.57
11.79
5.41
-0.87
-6.47
-11.09
-14.77
-17.84
-20.75
-23.98
-27.98
-33.07
-39.39
-46.71
-54.28
-60.88
-64.98
-65.23
-60.9
-52.23
-40.31
-26.81
-13.41
-1.39
8.59
16.46
22.57
27.34
31.15
34.19
36.51
38.1
39.0
39.41
39.61
39.89
40.42
41.14
41.87
42.44
42.77
42.92
42.95
42.8
42.23
40.93
38.69
35.51
31.69
27.71
24.0
20.8
18.08
15.57
12.92
9.88
6.43
2.76
-0.79
-3.92
-6.52
-8.75
-10.97
-13.61
-16.95
-20.99
-25.47
-29.96
-34.07
-37.6
-40.63
-43.52
-46.81
-51.0
-56.4
-62.91
-69.9
-76.25
-80.51
-81.28
-77.69
-69.69
-58.13
-44.54
-30.63
-17.81
-6.89
1.99
9.14
14.95
19.7
23.47
26.25
28.11
29.28
30.13
31.03
32.2
33.6
35.03
36.23
36.99
37.22
37.0
36.43
35.64
34.7
33.56
32.13
30.26
27.84
24.89
21.56
18.14
14.96
12.21
9.88
7.72
5.32
2.37
-1.26
-5.42
-9.74
-13.83
-17.4
-20.38
-22.98
-25.56
-28.56
-32.34
-37.17
-43.08
-49.81
-56.67
-62.52
-65.99
-65.89
-61.59
-53.36
-42.32
-30.06
-18.11
-7.55
1.19
8.14
13.51
17.5
20.19
21.72
22.3
22.33
22.24
22.35
22.82
23.58
24.47
25.31
26.04
26.66
27.22
27.74
28.11
28.11
27.5
26.1
23.95
21.26
18.4
15.64
13.08
10.54
7.74
4.41
0.57
-3.5
-7.38
-10.72
-13.42
-15.75
-18.17
-21.21
-25.3
-30.63
-37.01
-43.83
-50.02
-54.22
-55.16
-52.11
-45.2
-35.47
-24.5
-13.83
-4.53
3.05
9.04
13.71
17.16
19.31
20.05
19.48
18.0
16.25
14.83
14.13
14.25
15.04
16.23
17.49
18.53
19.11
19.08
18.46
17.34
15.9
14.22
12.29
9.92
6.92
3.27
-0.91
-5.29
-9.53
-13.4
-16.87
-20.05
-23.14
-26.34
-29.86
-33.97
-38.88
-44.61
-50.76
-56.36
-60.04
-60.47
-56.81
-49.11
-38.36
-26.14
-14.06
-3.35
5.38
12.06
16.88
20.1
21.87
22.36
21.84
20.73
19.56
18.81
18.7
19.16
19.83
20.3
20.26
19.64
18.65
17.63
16.86
16.33
15.78
14.74
12.76
9.63
5.49
0.76
-4.05
-8.46
-12.29
-15.57
-18.58
-21.68
-25.3
-29.79
-35.39
-42.01
-49.12
-55.66
-60.22
-61.42
-58.41
-51.18
-40.58
-28.07
-15.21
-3.26
7.01
15.32
21.63
26.03
28.59
29.51
29.15
28.03
26.74
