0
36.15
37.88
39.27
40.28
41.05
41.76
42.57
43.42
44.22
44.74
44.79
44.23
42.97
41.0
38.4
35.32
32.03
28.8
25.88
23.37
21.2
19.13
16.9
14.33
11.41
8.27
5.18
2.37
-0.02
-2.07
-3.98
-6.01
-8.4
-11.27
-14.55
-18.12
-21.77
-25.35
-28.79
-32.17
-35.67
-39.57
-44.21
-49.85
-56.46
-63.57
-70.18
-74.92
-76.42
-73.77
-66.87
-56.53
-44.23
-31.61
-20.03
-10.23
-2.34
3.91
8.86
12.83
15.92
18.18
19.64
20.38
20.52
20.21
19.59
18.82
18.07
17.52
17.37
17.8
18.92
20.78
23.24
25.95
28.39
29.9
30.01
28.57
25.89
22.55
19.21
16.25
13.74
11.41
8.94
6.16
3.17
0.23
-2.4
-4.65
-6.68
-8.75
-11.12
-13.88
-16.95
-20.06
-22.98
-25.56
-27.86
-30.12
-32.69
-35.94
-40.13
-45.33
-51.42
-57.93
-64.11
-68.94
-71.33
-70.42
-65.84
-57.94
-47.64
-36.31
-25.27
-15.52
-7.53
-1.31
3.39
6.9
9.44
11.15
12.06
12.29
12.06
11.69
11.57
12.02
13.21
15.09
17.42
19.87
22.15
24.11
25.66
26.81
27.51
27.62
26.99
25.55
23.37
20.68
17.8
14.91
12.02
9.03
5.71
2.02
-1.95
-5.92
-9.58
-12.68
-15.16
-17.13
-18.86
-20.69
-22.95
-25.86
-29.48
-33.76
-38.49
-43.39
-48.22
-52.84
-57.36
-62.05
-67.41
-73.85
-81.54
-90.09
-98.49
-105.23
-108.67
-107.56
-101.38
-90.58
-76.42
-60.6
-44.78
-30.2
-17.5
-6.79
2.09
9.41
15.28
19.77
23.0
25.22
26.8
28.17
29.65
31.37
33.37
35.61
38.08
40.81
43.76
46.79
49.73
52.32
54.35
55.63
55.99
55.3
53.5
50.66
47.05
43.1
39.22
35.71
32.7
30.07
27.52
24.7
21.32
17.3
12.85
8.36
4.28
0.83
-2.07
-4.83
-7.98
-11.95
-16.91
-22.76
-29.17
-35.79
-42.3
-48.55
-54.53
-60.44
-66.69
-73.84
-82.43
-92.7
-104.23
-115.74
-125.25
-130.51
-129.64
-121.77
-107.33
-87.9
-65.75
-43.17
-21.94
-3.12
12.89
26.09
36.6
44.63
50.42
54.32
56.78
58.28
59.26
60.11
61.17
62.7
64.9
67.84
71.46
75.55
79.78
83.75
87.06
89.34
90.35
89.97
88.31
85.57
82.03
77.89
73.22
68.04
62.38
56.42
50.45
44.79
39.65
35.02
30.76
26.65
22.53
18.29
13.94
9.5
4.98
0.37
-4.39
-9.45
-15.0
-21.2
-28.06
-35.4
-42.91
-50.24
-57.2
-63.87
-70.62
-78.02
-86.75
-97.27
-109.52
-122.61
-134.69
-143.23
-145.61
-139.93
-125.69
-104.03
-77.31
-48.53
-20.47
4.79
26.09
42.99
55.59
64.34
69.84
72.82
73.97
73.9
73.08
71.87
70.57
69.41
68.7
68.66
69.49
71.25
73.75
76.6
79.21
81.01
81.5
80.45
77.88
74.0
69.15
63.59
57.55
51.14
44.44
37.56
30.65
23.93
17.62
11.91
6.76
1.97
-2.8
-7.86
-13.34
-19.14
-24.93
-30.38
-35.29
-39.77
-44.21
-49.27
-55.72
-64.19
-74.84
-87.07
-99.25
-108.93
-113.41
-110.51
-99.42
-80.92
-57.26
-31.37
-6.03
16.7
35.82
51.12
62.88
71.45
77.07
79.85
79.94
77.72
73.9
69.44
65.35
62.41
60.99
61.02
62.2
64.19
66.73
69.64
72.7
75.47
77.32
77.56
75.72
71.66
65.73
58.6
51.11
43.97
37.54
31.76
26.24
20.5
14.22
7.44
0.53
-5.95
-11.59
-16.29
-20.32
-24.21
-28.53
-33.7
-39.82
-46.7
-53.87
-60.84
-67.18
-72.77
-77.88
-83.15
-89.49
-97.75
-108.36
-120.91
-133.98
-145.16
-151.55
-150.54
-140.62
-121.95
-96.39
-67.02
-37.19
-9.71
13.72
32.5
46.76
57.03
63.84
67.64
68.89
68.18
66.23
63.83
61.73
60.39
59.98
60.38
61.35
62.71
64.48
66.79
69.66
72.84
75.72
77.47
77.31
74.88
70.31
64.2
57.34
50.42
43.82
37.62
31.63
25.59
19.34
12.8
6.08
-0.5
-6.61
-11.92
-16.38
-20.22
-23.93
-28.14
-33.31
-39.64
-46.9
-54.6
-62.11
-68.91
-74.82
-80.1
-85.49
-92.01
-100.69
-112.04
-125.58
-139.64
-151.45
-157.79
-155.87
-144.3
-123.56
-95.91
-64.74
-33.63
-5.38
18.37
37.19
51.46
61.87
69.07
73.58
75.84
76.37
75.78
74.69
73.61
72.9
72.69
73.01
73.86
75.3
77.38
80.04
83.01
85.8
87.74
88.2
86.72
83.28
78.2
72.1
65.6
59.11
52.76
46.51
40.31
34.22
28.44
23.13
18.33
13.83
9.33
4.53
-0.61
-5.86
-10.85
-15.27
-19.12
-22.7
-26.55
-31.19
-36.87
-43.49
-50.66
-57.9
-64.87
-71.48
-77.89
-84.45
-91.67
-100.09
-110.28
-122.38
-135.8
-148.81
-158.71
-162.4
-157.4
-142.75
-119.46
-90.2
-58.46
-27.61
-0.12
22.62
40.19
52.89
61.34
66.33
68.63
68.93
67.8
65.77
63.34
61.16
59.79
59.65
60.85
63.13
66.08
69.19
72.07
74.45
76.05
76.61
75.86
73.66
70.04
65.24
59.59
53.38
46.74
39.76
32.48
25.1
17.9
11.17
5.04
-0.65
-6.27
-12.27
-18.88
-26.0
-33.22
-39.98
-45.9
-50.92
-55.4
-59.96
-65.34
-72.18
-80.87
-91.32
-102.71
-113.38
-120.93
-122.8
-116.99
-102.88
-81.56
-55.55
-28.08
-2.1
20.37
38.52
52.38
62.39
68.99
72.46
73.04
71.15
67.52
63.2
59.33
56.81
56.08
57.0
59.04
61.49
63.8
65.67
67.0
67.77
67.87
67.1
65.18
61.93
57.23
51.12
43.77
35.54
26.92
18.47
10.62
3.55
-2.93
-9.23
-15.79
-22.83
-30.21
-37.56
-44.41
-50.45
-55.67
-60.37
-65.15
-70.74
-77.88
-87.06
-98.24
-110.52
-122.14
-130.69
-133.7
-129.35
-117.01
-97.56
-73.12
-46.5
-20.45
2.91
22.38
37.64
48.98
56.91
61.94
64.49
65.02
64.06
62.26
60.33
58.89
58.34
58.8
60.12
62.04
64.2
66.33
68.19
69.59
70.33
70.19
68.93
66.34
62.4
57.34
51.56
45.6
39.87
34.54
29.42
24.15
18.31
11.7
4.47
-2.9
-9.73
-15.41
-19.68
-22.79
-25.48
-28.71
-33.29
-39.51
-47.03
-55.0
-62.48
-68.85
-74.1
-78.86
-84.17
-91.16
-100.6
-112.56
-126.12
-139.31
-149.4
-153.48
-149.3
-136.03
-114.61
-87.51
-58.05
-29.44
-4.04
16.96
33.41
45.82
54.93
61.35
65.56
67.89
68.69
68.4
67.52
66.59
66.06
66.16
66.96
68.39
70.25
72.4
74.65
76.77
78.48
79.4
79.18
77.52
74.27
69.48
63.43
56.64
49.71
43.17
37.32
32.06
27.05
21.88
16.28
10.38
4.57
-0.67
-4.99
-8.41
-11.36
-14.48
-18.4
-23.55
-29.92
-37.09
-44.39
-51.16
-57.05
-62.14
-66.99
-72.39
-79.23
-88.13
-99.2
-111.83
-124.5
-134.88
-140.29
-138.38
-127.92
-109.34
-84.69
-56.99
-29.43
-4.5
16.44
33.09
45.85
55.43
62.41
67.28
70.31
71.75
71.9
71.15
69.96
68.77
67.94
67.62
67.87
68.67
69.96
71.68
73.7
75.64
77.0
77.16
75.64
72.27
67.25
61.14
54.68
48.53
43.04
38.2
33.65
28.88
23.52
17.5
11.1
4.9
-0.62
-5.2
-9.01
-12.53
-16.34
-20.87
-26.27
-32.35
-38.69
-44.82
-50.41
-55.38
-60.02
-64.97
-71.05
-79.0
-89.12
-100.97
-113.16
-123.49
-129.43
-128.78
-120.36
-104.45
-82.69
-57.69
-32.28
-8.83
11.08
26.88
38.62
46.74
51.77
54.26
54.79
53.96
52.45
50.89
49.82
49.56
50.21
51.67
53.74
56.14
58.64
60.99
62.95
64.3
64.78
64.16
62.37
59.47
55.71
51.41
46.81
41.98
36.77
31.0
24.59
17.71
10.81
4.37
-1.24
-5.99
-10.16
-14.19
-18.51
-23.34
-28.61
-34.07
-39.42
-44.5
-49.38
-54.41
-60.1
-66.98
-75.4
-85.26
-95.82
-105.61
-112.56
-114.53
-109.9
-98.26
-80.66
-59.32
-36.96
-15.94
2.25
17.12
28.79
37.59
43.73
47.36
48.66
48.11
46.41
44.33
42.58
41.66
41.76
42.82
44.56
46.59
48.59
50.32
51.82
53.15
54.31
55.11
55.2
54.17
51.77
48.06
43.38
38.22
33.01
28.03
23.39
19.04
14.88
10.88
7.03
3.39
-0.0
-3.12
-6.01
-8.75
-11.43
-14.15
-17.05
-20.3
-24.12
-28.69
-34.0
-39.81
-45.64
-51.02
-55.69
-59.77
-63.77
-68.44
-74.51
-82.42
-92.01
-102.39
-111.87
-118.26
-119.36
-113.64
-100.84
-82.19
-60.05
-37.22
-16.14
1.68
15.78
26.38
34.06
39.37
42.73
44.52
45.08
44.8
44.01
42.98
41.95
41.09
40.62
40.79
41.77
43.68
46.42
49.69
53.0
55.8
57.52
57.79
56.47
53.63
49.56
44.65
39.36
34.12
29.34
25.24
21.84
18.87
15.89
12.49
8.43
3.87
-0.78
-4.96
-8.35
-10.94
-13.1
-15.45
-18.6
-22.99
-28.67
-35.22
-41.92
-47.94
-52.73
-56.2
-58.87
-61.67
-65.64
-71.54
-79.61
-89.35
-99.56
-108.41
-113.78
-113.71
-106.98
-93.59
-74.88
-53.18
-31.22
-11.29
5.23
17.91
27.04
33.24
37.14
39.29
40.16
40.18
39.76
39.22
38.82
38.74
39.14
40.13
41.79
44.12
47.01
50.25
53.48
56.31
58.3
59.1
58.49
56.5
53.34
49.38
45.02
40.58
36.19
31.85
27.37
22.54
17.28
11.73
6.25
1.31
-2.75
-5.93
-8.65
-11.53
-15.19
-19.91
-25.54
-31.56
-37.35
-42.49
-46.88
-50.85
-55.02
-60.21
-67.16
-76.14
-86.71
-97.48
-106.31
-110.83
-109.15
-100.56
-85.77
-66.66
-45.69
-25.18
-6.79
8.64
20.9
30.18
36.82
41.14
43.53
44.39
44.21
43.43
42.53
41.86
41.65
42.05
43.11
44.85
47.23
50.18
53.55
57.03
60.29
62.88
64.44
64.66
63.38
60.67
56.81
52.3
47.7
43.53
39.99
36.95
34.03
30.83
27.17
23.24
19.48
16.33
13.97
12.22
10.64
8.71
6.09
2.77
-1.02
-4.88
-8.45
-11.53
-14.21
-16.83
-19.9
-23.87
-28.91
-34.89
-41.28
-47.47
-52.98
-57.62
-61.57
-65.38
-69.79
-75.56
-83.24
-92.85
-103.56
-113.68
-120.8
-122.52
-117.15
-104.45
-85.71
-63.4
-40.32
-18.87
-0.55
14.16
25.41
33.68
39.45
43.15
45.14
45.84
45.69
45.13
44.55
44.27
44.5
45.37
46.95
49.18
51.95
55.13
58.51
61.85
64.87
67.2
68.43
68.2
66.36
63.08
58.83
54.26
49.98
46.33
43.25
40.44
37.5
34.13
30.3
26.24
22.27
18.7
15.71
13.2
10.94
8.62
6.02
3.06
-0.16
-3.44
-6.62
-9.7
-12.83
-16.26
-20.22
-24.84
-30.07
-35.65
-41.26
-46.56
-51.36
-55.66
-59.75
-64.17
-69.6
-76.62
-85.46
-95.66
-105.91
-114.21
-118.24
-116.11
-106.96
-91.34
-71.16
-49.02
-27.52
-8.54
7.05
19.2
28.32
34.85
39.1
41.25
41.55
40.44
38.56
36.6
35.11
34.46
34.76
35.97
38.01
40.79
44.18
47.97
51.81
55.22
57.63
58.6
57.88
55.53
51.96
47.75
43.55
39.73
36.3
32.93
29.12
24.48
18.94
12.78
6.53
0.75
-4.26
-8.52
-12.35
-16.19
-20.44
-25.25
-30.52
-35.93
-41.1
-45.87
-50.36
-55.08
-60.74
-68.02
-77.22
-87.96
-99.03
-108.5
-114.16
-114.07
-107.26
-94.02
-75.93
-55.31
-34.59
-15.68
0.39
13.36
23.47
31.11
36.59
40.15
42.06
42.67
42.43
41.77
41.09
40.61
40.49
40.83
41.78
43.45
45.88
48.99
52.44
55.79
58.5
60.09
60.3
59.11
56.78
53.71
50.33
46.88
43.42
39.8
35.83
31.42
26.66
21.83
17.32
13.44
10.34
7.88
5.74
3.45
0.68
-2.7
-6.57
-10.63
-14.62
-18.47
-22.42
-26.87
-32.16
-38.38
-45.2
-52.11
-58.57
-64.38
-69.69
-75.0
-80.96
-88.23
-97.3
-108.2
-120.33
-132.24
-141.68
-146.13
-143.45
-132.69
-114.53
-91.07
-65.18
-39.68
-16.59
3.04
19.02
31.59
41.11
47.91
52.35
54.84
55.96
56.27
56.33
56.54
57.21
58.6
60.9
64.17
68.34
73.08
77.96
82.45
86.14
88.69
89.85
89.46
87.44
83.91
79.17
73.73
68.09
62.54
57.15
51.79
46.32
40.77
35.28
30.1
25.38
21.08
17.07
13.16
9.25
5.33
1.38
-2.67
-7.05
-12.0
-17.78
-24.44
-31.79
-39.42
-46.81
-53.58
-59.56
-65.01
-70.51
-76.91
-85.09
-95.67
-108.62
-122.89
-136.33
-145.92
-148.61
-142.22
-126.37
-102.61
-74.06
-44.36
-16.64
7.15
26.26
40.83
51.39
58.49
62.64
64.31
64.14
62.81
61.04
59.42
58.41
58.2
58.87
60.37
62.66
65.75
69.61
74.08
78.78
83.0
85.89
86.65
84.91
80.82
75.06
68.57
62.2
56.42
51.25
46.27
40.9
34.73
27.66
20.03
12.48
5.62
-0.19
-5.04
-9.39
-13.82
-18.8
-24.5
-30.76
-37.32
-43.86
-50.29
-56.7
-63.37
-70.77
-79.47
-89.98
-102.39
-115.97
-128.97
-138.71
-142.34
-137.65
-123.94
-102.3
-75.32
-46.29
-18.24
6.69
27.49
44.06
56.78
66.05
72.19
75.41
76.05
74.67
72.09
69.2
66.79
65.37
65.1
65.9
67.59
70.01
72.94
76.13
79.21
81.73
83.22
83.3
81.76
78.55
73.81
67.8
60.96
53.77
46.7
40.11
34.15
28.74
23.67
18.65
13.52
8.24
2.91
-2.29
-7.2
-11.74
-15.96
-20.03
-24.23
-28.88
-34.25
-40.51
-47.6
-55.23
-62.85
-69.97
-76.33
-82.11
-88.06
-95.22
-104.64
-116.71
-130.84
-145.16
-156.82
-162.59
-159.79
-147.15
-125.28
-96.55
-64.47
-32.67
-4.0
19.95
38.83
53.12
63.52
70.64
74.91
76.76
76.74
75.63
74.2
73.07
72.53
72.62
73.26
74.47
76.37
79.06
82.48
86.22
89.6
91.9
92.56
91.35
88.42
84.12
78.87
73.02
66.8
60.39
53.9
47.45
41.11
34.94
28.93
23.08
17.36
11.81
6.46
1.35
-3.52
-8.14
-12.51
-16.66
-20.68
-24.82
-29.42
-34.83
-41.24
-48.52
-56.23
-63.81
-70.73
-76.78
-82.21
-87.66
-94.07
-102.4
-113.2
-126.25
-140.17
-152.45
-159.88
-159.42
-149.21
-129.26
-101.58
-69.59
-37.11
-7.39
17.53
36.9
50.99
60.58
66.55
69.74
70.82
70.37
68.92
66.89
64.66
62.55
60.88
59.96
60.13
61.59
64.36
68.13
72.24
75.87
78.15
78.46
76.52
72.51
66.88
60.31
53.44
46.75
40.39
34.24
27.99
21.35
14.26
6.93
-0.24
-6.84
-12.7
-17.98
-23.06
-28.35
-34.06
-40.09
-46.11
-51.77
-56.88
-61.62
-66.59
-72.66
-80.73
-91.37
-104.26
-117.99
-130.06
-137.47
-137.51
-128.68
-111.18
-86.96
-59.08
-30.84
-4.96
16.94
34.32
47.4
56.81
63.18
67.01
68.67
68.49
66.88
64.39
61.68
59.44
58.19
58.19
59.39
61.53
64.21
67.1
69.92
72.42
74.25
74.95
74.07
71.3
66.67
60.61
53.8
47.03
40.84
35.49
30.87
26.68
22.59
18.32
13.78
8.95
3.96
-1.03
-5.81
-10.21
-14.13
-17.68
-21.13
-24.88
-29.3
-34.61
-40.74
-47.39
-54.15
-60.6
-66.56
-72.08
-77.51
-83.4
-90.43
-99.23
-110.08
-122.55
-135.19
-145.54
-150.65
-147.94
-136.2
-116.13
-90.2
-61.83
-34.33
-10.0
10.14
26.08
38.28
47.23
53.27
56.77
58.22
58.29
57.68
56.98
56.51
56.44
56.8
57.66
59.1
61.2
63.89
67.01
70.22
73.06
75.08
75.89
75.27
73.17
69.74
65.27
60.1
54.62
49.12
43.87
39.01
34.54
30.38
26.42
22.55
18.71
14.89
11.11
7.38
3.74
0.26
-2.99
-6.06
-9.13
-12.55
-16.66
-21.67
-27.5
-33.84
-40.28
-46.5
-52.37
-57.99
-63.61
-69.58
-76.36
-84.49
-94.31
-105.64
-117.44
-127.71
-133.92
-133.66
-125.54
-109.7
-87.88
-62.84
-37.58
-14.55
4.82
20.1
31.62
39.99
45.81
49.52
51.48
52.02
51.65
50.96
50.49
50.57
51.29
52.49
53.98
55.61
57.36
59.25
61.33
63.49
65.5
66.94
67.35
66.36
63.79
59.81
54.88
49.6
44.44
39.6
34.89
29.96
24.52
18.56
12.39
6.47
1.28
-2.97
-6.35
-9.15
-11.83
-14.8
-18.41
-22.76
-27.68
-32.88
-37.93
-42.54
-46.66
-50.55
-54.74
-60.0
-67.06
-76.28
-87.34
-99.0
-109.15
-115.26
-115.16
-107.72
-93.29
-73.64
-51.38
-29.15
-8.99
7.97
21.45
31.65
39.04
44.02
46.98
48.29
48.38
47.69
46.64
45.55
44.62
44.01
43.84
44.32
45.62
47.82
50.79
54.15
57.4
59.93
61.26
61.03
59.09
55.56
50.83
45.51
40.26
35.6
31.67
28.23
24.77
20.81
16.09
10.67
4.92
-0.69
-5.68
-9.79
-13.0
-15.65
-18.27
-21.46
-25.59
-30.69
-36.38
-42.14
-47.6
-52.64
-57.5
-62.62
-68.52
-75.69
-84.39
-94.41
-104.84
-113.98
-119.63
-119.75
-113.19
-100.1
-82.0
-61.22
-40.17
-20.77
-4.1
9.47
20.07
28.02
33.74
37.58
39.9
41.02
41.25
40.89
40.27
39.68
39.37
39.55
40.39
41.97
44.27
47.11
50.1
52.83
54.88
55.95
55.92
54.75
52.52
49.39
45.6
41.47
37.32
33.43
29.93
26.77
23.85
20.95
17.95
14.73
11.27
7.68
4.13
0.9
-1.82
-4.03
-6.0
-8.19
-11.1
-15.05
-20.04
-25.78
-31.73
-37.4
-42.41
-46.71
-50.58
-54.58
-59.42
-65.75
-73.91
-83.71
-94.2
-103.74
-110.2
-111.5
-106.27
-94.31
-76.84
-56.2
-35.15
-16.04
-0.25
11.94
21.05
27.89
33.13
37.1
39.9
41.58
42.27
42.24
41.82
41.33
41.05
41.2
41.96
43.44
45.6
48.25
51.04
53.6
55.59
56.71
56.79
55.81
53.86
51.13
47.9
44.41
40.88
37.4
34.0
30.58
27.05
23.31
19.31
15.1
10.83
6.72
3.0
-0.14
-2.71
-4.87
-6.98
-9.47
-12.69
-16.84
-21.89
-27.54
-33.29
-38.66
-43.31
-47.2
-50.72
-54.5
-59.35
-65.92
-74.45
-84.44
-94.55
-102.66
-106.38
-103.88
-94.47
-79.0
-59.62
-39.11
-19.94
-3.72
9.08
18.78
26.01
31.37
35.21
37.66
38.83
38.9
38.18
37.14
36.32
36.16
36.92
38.54
40.76
43.24
45.77
48.32
50.9
53.44
55.59
56.82
56.63
54.79
51.45
47.16
42.55
38.12
34.14
30.51
26.97
23.17
18.87
14.02
8.84
3.72
-0.86
-4.56
-7.39
-9.73
-12.18
-15.38
-19.7
-25.07
-31.08
-37.14
-42.7
-47.5
-51.63
-55.53
-59.87
-65.39
-72.64
-81.73
-92.05
-102.17
-110.02
-113.4
-110.69
-101.44
-86.59
-68.15
-48.61
-30.14
-14.13
-1.04
9.29
17.32
23.52
28.17
31.53
33.83
35.3
36.2
36.73
37.14
37.62
38.39
39.66
41.56
44.05
46.98
50.11
53.15
55.78
57.66
58.54
58.21
56.68
54.15
50.96
47.49
43.98
40.5
36.95
33.26
29.4
25.45
21.55
17.81
14.26
10.85
7.53
4.34
1.36
-1.29
-3.61
-5.76
-8.11
-11.1
-15.05
-19.96
-25.53
-31.21
-36.43
-40.93
-44.79
-48.44
-52.5
-57.55
-64.02
-72.15
-81.77
-92.15
-101.87
-108.95
-111.27
-107.32
-96.73
-80.52
-60.83
-40.23
-20.97
-4.47
8.77
18.99
26.74
32.62
37.09
40.44
42.89
44.58
45.74
46.6
47.38
48.22
49.16
50.17
51.23
52.39
53.78
55.51
57.51
59.52
61.08
61.67
60.9
58.67
55.26
51.16
46.96
43.08
39.58
36.17
32.41
27.94
22.75
17.26
12.04
7.52
3.76
0.44
-2.99
-6.98
-11.69
-16.95
-22.45
-27.9
-33.12
-38.06
-42.77
-47.38
-52.13
-57.47
-63.95
-72.06
-81.73
-92.07
-101.3
-107.07
-107.21
-100.51
-87.23
-69.08
-48.64
-28.56
-10.71
4.08
15.94
25.4
32.99
38.92
43.18
45.77
46.88
46.94
46.5
46.09
46.05
46.54
47.59
49.13
51.03
53.19
55.5
57.85
60.02
61.67
62.35
61.64
59.38
55.75
51.32
46.76
42.55
38.74
34.99
30.77
25.67
19.69
13.17
6.71
0.85
-4.12
-8.26
-11.91
-15.61
-19.81
-24.78
-30.43
-36.46
-42.43
-48.04
-53.27
-58.38
-63.94
-70.57
-78.81
-88.84
-100.25
-111.81
-121.56
-127.19
-126.66
-119.04
-104.78
-85.69
-64.34
-43.23
-24.16
-7.96
5.33
16.14
24.9
31.95
37.38
41.26
43.68
44.88
45.3
45.45
45.82
46.77
48.43
50.72
53.45
56.35
59.17
61.67
63.65
64.9
65.24
64.64
63.1
60.75
57.74
54.22
50.38
46.33
42.15
37.87
33.49
29.0
24.46
19.94
15.53
11.25
7.09
3.01
-1.01
-4.95
-8.86
-12.86
-17.2
-22.15
-27.86
-34.27
-41.1
-47.96
-54.5
-60.62
-66.44
-72.35
-78.87
-86.62
-96.17
-107.73
-120.86
-134.09
-145.03
-150.8
-149.01
-138.57
-120.2
-96.18
-69.63
-43.51
-19.92
0.18
16.75
30.18
40.93
49.33
55.6
59.96
62.77
64.44
65.43
66.16
66.96
68.08
69.71
71.97
74.95
78.62
82.78
87.05
90.89
93.72
95.05
94.62
92.52
89.05
84.65
79.76
74.62
69.26
63.63
57.71
51.69
45.89
40.64
36.04
31.95
27.99
23.75
19.02
13.84
8.48
3.26
-1.64
-6.25
-10.89
-15.99
-22.02
-29.16
-37.3
-45.99
-54.61
-62.62
-69.84
-76.5
-83.18
-90.66
-99.71
-110.73
-123.58
-137.13
-149.25
-157.1
-157.82
-149.53
-132.1
-107.26
-78.14
-48.2
-20.26
4.04
24.19
40.33
52.81
61.91
67.93
71.26
72.53
72.47
71.8
71.07
70.62
70.58
70.96
71.77
73.03
74.85
77.36
80.49
83.88
86.85
88.51
88.1
85.31
80.37
73.96
66.9
59.79
52.83
45.88
38.65
30.99
23.0
15.05
7.59
0.92
-4.94
-10.29
-15.61
-21.35
-27.71
-34.51
-41.38
-47.87
-53.76
-59.22
-64.79
-71.26
-79.5
-90.15
-103.25
-117.87
-131.92
-142.47
-146.39
-141.38
-126.81
-103.99
-75.75
-45.57
-16.57
9.11
30.44
47.26
59.88
68.77
74.47
77.52
78.43
77.75
76.02
73.88
71.93
70.73
70.59
71.59
73.53
76.1
78.96
81.81
84.37
86.34
87.34
87.0
85.01
81.2
75.62
68.61
60.69
52.51
44.66
37.56
31.29
25.64
20.27
14.86
9.24
3.37
-2.61
-8.52
-14.15
-19.27
-23.79
-27.86
-31.87
-36.4
-42.0
-48.89
-56.85
-65.34
-73.69
-81.43
-88.42
-94.92
-101.55
-109.15
-118.59
-130.39
-144.24
-158.6
-170.74
-177.26
-175.09
-162.54
-140.0
-109.82
-75.61
-41.17
-9.56
17.4
39.05
55.61
67.67
75.94
81.09
83.74
84.5
83.99
82.81
81.5
80.49
80.03
80.28
81.32
83.14
85.65
88.62
91.64
94.21
95.82
96.07
94.75
91.86
87.56
82.13
75.91
69.18
62.2
55.14
48.08
41.11
34.3
27.71
21.36
15.22
9.21
3.26
-2.6
-8.2
-13.36
-18.06
-22.51
-27.16
-32.5
-38.85
-46.17
-54.06
-61.98
-69.42
-76.14
-82.24
-88.15
-94.59
-102.41
-112.4
-124.91
-139.46
-154.37
-166.88
-173.61
-171.63
-159.36
-137.26
-107.77
-74.51
-41.24
-10.92
14.84
35.6
51.63
63.42
71.44
76.12
77.94
77.56
75.76
73.3
70.84
68.85
67.67
67.55
68.67
71.03
74.44
78.38
82.18
85.1
86.52
86.1
83.8
79.9
74.77
68.85
62.43
55.6
48.37
40.65
32.5
24.06
15.62
7.5
-0.06
-7.0
-13.39
-19.4
-25.28
-31.21
-37.32
-43.62
-50.0
-56.32
-62.46
-68.52
-74.88
-82.31
-91.61
-103.33
-117.16
-131.59
-144.01
-151.2
-150.29
-139.77
-120.02
-93.24
-62.8
-32.25
-4.41
19.13
37.88
52.18
62.63
69.8
74.15
76.03
75.93
74.44
72.34
70.32
68.92
68.36
68.58
69.41
70.68
72.33
74.33
76.53
78.59
79.99
80.15
78.7
75.62
71.16
65.81
60.0
53.98
47.85
41.61
35.33
29.15
23.27
17.79
12.72
7.95
3.35
-1.11
-5.42
-9.54
-13.49
-17.34
-21.31
-25.65
-30.58
-36.31
-42.88
-50.11
-57.59
-64.79
-71.26
-76.91
-82.12
-87.69
-94.59
-103.68
-115.27
-128.87
-143.02
-155.25
-162.64
-162.42
-152.93
-134.24
-108.24
-78.15
-47.53
-19.34
4.67
23.9
38.67
49.65
57.59
63.12
66.76
68.96
70.07
70.45
70.38
70.22
70.27
70.78
71.94
73.83
76.46
79.72
83.36
86.94
89.82
91.3
90.86
88.28
83.78
77.85
71.11
64.13
57.37
51.08
45.37
40.18
35.32
30.53
25.55
20.28
14.76
9.2
3.83
-1.15
-5.69
-9.91
-14.07
-18.52
-23.52
-29.24
-35.58
-42.29
-49.0
-55.44
-61.51
-67.32
-73.17
-79.48
-86.79
-95.64
-106.33
-118.49
-130.72
-140.56
-145.07
-141.86
-129.97
-110.37
-85.64
-59.05
-33.52
-10.94
7.9
23.04
34.83
43.63
49.77
53.6
55.57
56.19
56.01
55.52
55.15
55.23
55.9
57.17
58.87
60.84
62.96
65.19
67.45
69.54
71.02
71.31
69.94
66.74
61.99
56.32
50.4
44.7
39.25
33.79
27.98
21.75
15.38
9.41
4.29
0.09
-3.58
-7.44
-12.1
-17.81
-24.31
-31.02
-37.32
-42.88
-47.77
-52.37
-57.25
-62.99
-70.1
-78.91
-89.38
-100.79
-111.61
-119.6
-122.35
-118.04
-106.25
-88.16
-66.3
-43.63
-22.66
-4.83
9.62
21.15
30.43
37.88
43.61
47.63
50.05
51.18
51.51
51.49
51.44
51.46
51.61
51.93
52.55
53.64
55.27
57.39
59.71
61.81
63.17
63.31
61.99
59.24
55.38
50.94
46.46
42.26
38.37
34.59
30.68
26.59
22.48
18.67
15.41
12.7
10.28
7.78
4.88
1.46
-2.32
-6.18
-9.81
-13.02
-15.87
-18.59
-21.6
-25.31
-29.97
-35.58
-41.81
-48.15
-54.07
-59.24
-63.65
-67.74
-72.15
-77.68
-84.92
-93.99
-104.29
-114.36
-122.09
-125.25
-122.15
-112.29
-96.46
-76.56
-55.0
-34.01
-15.24
0.43
12.79
22.05
28.65
33.13
36.07
37.99
39.35
40.46
41.56
42.76
44.14
45.65
47.25
48.91
50.62
52.45
54.45
56.57
58.64
60.32
61.26
61.19
60.04
57.93
55.14
51.9
48.35
44.52
40.4
36.05
31.64
27.44
23.6
20.12
16.83
13.49
9.95
6.27
2.63
-0.73
-3.77
-6.66
-9.72
-13.36
-17.81
-23.1
-28.96
-34.96
-40.65
-45.72
-50.16
-54.27
-58.58
-63.74
-70.3
-78.46
-87.89
-97.6
-105.98
-111.08
-111.12
-105.04
-93.01
-76.4
-57.42
-38.39
-21.12
-6.56
5.17
14.41
21.55
26.87
30.54
32.74
33.81
34.18
34.26
34.36
34.69
35.33
36.39
37.95
40.05
42.65
45.57
48.5
51.06
52.89
53.7
53.34
51.83
49.32
46.08
42.38
38.35
34.06
29.51
24.7
19.77
14.92
10.37
6.28
2.62
-0.79
-4.2
-7.88
-12.01
-16.61
-21.56
-26.65
-31.71
-36.7
-41.75
-47.22
-53.54
-61.18
-70.28
-80.57
-91.12
-100.37
-106.36
-107.29
-102.07
-90.82
-74.9
-56.48
-37.91
-20.94
-6.42
5.66
15.69
24.06
30.89
36.04
39.4
41.05
41.39
40.96
40.36
39.98
40.0
40.52
41.51
43.0
45.01
47.46
50.14
52.68
54.63
55.62
55.48
54.26
52.19
49.56
46.54
43.22
39.58
35.63
31.45
27.21
23.06
19.06
15.17
11.29
7.35
3.37
-0.53
-4.22
-7.69
-11.08
-14.64
-18.65
-23.29
-28.57
-34.31
-40.24
-46.08
-51.6
-56.72
-61.56
-66.44
-71.83
-78.34
-86.48
-96.48
-107.88
-119.44
-129.16
-134.69
-134.0
-126.09
-111.36
-91.48
-68.93
-46.22
-25.3
-7.25
7.66
19.63
29.1
36.47
42.06
46.15
48.97
50.76
51.85
52.61
53.44
54.66
56.46
58.87
61.81
65.21
68.97
72.92
76.71
79.81
81.64
81.76
80.12
77.02
73.06
68.8
64.58
60.49
56.41
52.24
47.94
43.57
39.28
35.23
31.54
28.27
25.3
22.4
19.26
15.6
11.4
6.84
2.33
-1.83
-5.54
-9.08
-12.94
-17.64
-23.42
-30.2
-37.58
-44.99
-51.92
-58.11
-63.65
-68.97
-74.85
-82.14
-91.55
-103.16
-116.16
-128.66
-138.01
-141.49
-137.15
-124.54
-104.93
-80.9
-55.55
-31.53
-10.55
6.79
20.61
31.35
39.41
45.06
48.6
50.43
51.13
51.29
51.46
51.95
52.93
54.42
56.38
58.82
61.7
64.94
68.37
71.67
74.43
76.2
76.57
75.29
72.41
68.24
63.3
58.13
53.11
48.36
43.71
38.86
33.59
27.87
21.93
16.17
10.96
6.48
2.64
-0.98
-4.86
-9.42
-14.83
-20.92
-27.3
-33.51
-39.27
-44.52
-49.52
-54.78
-61.0
-68.83
-78.68
-90.3
-102.5
-113.17
-119.69
-119.75
-112.12
-97.14
-76.63
-53.21
-29.51
-7.52
11.62
27.52
40.16
49.72
56.44
60.63
62.75
63.29
62.78
61.69
60.39
59.18
58.34
58.09
58.56
59.83
61.82
64.29
66.91
69.3
71.09
71.98
71.79
70.43
67.9
64.28
59.77
54.63
49.18
43.7
38.36
33.24
28.3
23.45
18.58
13.62
8.56
3.5
-1.38
-5.84
-9.72
-13.03
-16.03
-19.16
-22.91
-27.62
-33.31
-39.71
-46.37
-52.82
-58.79
-64.29
-69.56
-75.04
-81.33
-89.02
-98.49
-109.55
-121.23
-131.61
-138.19
-138.5
-131.0
-115.67
-94.14
-69.19
-43.89
-20.69
-0.91
15.19
28.06
38.28
46.2
51.92
55.46
56.97
56.91
55.96
54.84
54.12
54.1
54.83
56.26
58.36
61.1
64.43
68.09
71.59
74.32
75.7
75.38
73.42
70.19
66.2
61.93
57.61
53.25
48.75
43.99
39.0
33.98
29.15
24.64
20.46
16.48
12.54
8.54
4.57
0.76
-2.76
-5.98
-9.09
-12.35
-16.05
-20.4
-25.46
-31.15
-37.25
-43.49
-49.62
-55.47
-61.02
-66.5
-72.34
-79.19
-87.67
-98.04
-109.85
-121.63
-131.08
-135.56
-132.96
-122.42
-104.7
-81.94
-57.0
-32.6
-10.75
7.47
21.86
32.7
40.49
45.77
49.07
50.86
51.58
51.65
51.39
51.05
50.77
50.67
50.81
51.36
52.52
54.48
57.26
60.6
63.92
66.5
67.67
67.03
64.55
60.54
55.51
50.02
44.51
39.2
34.06
28.9
23.47
17.68
11.6
5.52
-0.21
-5.32
-9.76
-13.73
-17.57
-21.62
-26.07
-30.94
-36.1
-41.33
-46.52
-51.64
-56.9
-62.71
-69.59
-78.05
-88.24
-99.61
-110.73
-119.37
-123.07
-119.88
-109.1
-91.6
-69.57
-45.83
-22.93
-2.58
14.54
28.47
39.51
47.9
53.71
56.98
57.94
57.12
55.27
53.2
51.59
50.79
50.89
51.8
53.31
55.28
57.6
60.15
62.73
64.96
66.37
66.5
65.05
62.01
57.71
52.64
47.32
42.09
37.14
32.42
27.82
23.21
18.48
13.54
8.39
3.1
-2.15
-7.09
-11.53
-15.4
-18.93
-22.51
-26.62
-31.59
-37.5
-44.04
-50.7
-56.93
-62.36
-67.05
-71.47
-76.49
-83.05
-91.87
-103.08
-115.89
-128.53
-138.5
-143.13
-140.36
-129.38
-111.0
-87.37
-61.39
-35.92
-13.05
6.11
21.35
33.01
41.65
47.8
51.92
54.41
55.66
56.07
56.03
55.98
56.28
57.21
58.8
60.94
63.34
65.74
67.99
70.05
71.85
73.22
73.87
73.45
71.69
68.58
64.35
59.4
54.18
49.01
44.11
39.5
35.1
30.76
26.33
21.68
16.82
11.83
6.87
2.13
-2.23
-6.23
-10.07
-14.09
-18.69
-24.14
-30.45
-37.33
-44.28
-50.81
-56.66
-61.92
-66.94
-72.36
-78.95
-87.42
-98.22
-111.08
-124.74
-136.86
-144.49
-144.91
-136.6
-119.83
-96.64
-70.11
-43.38
-18.84
2.22
19.45
33.02
43.32
50.72
55.66
58.63
60.29
61.22
61.95
62.69
63.45
64.05
64.36
64.49
64.82
65.81
67.82
70.82
74.33
77.52
79.49
79.58
77.5
73.38
67.67
60.97
53.89
46.89
40.19
33.8
27.55
21.34
15.23
9.39
3.98
-1.05
-6.06
-11.54
-17.81
-24.84
-32.15
-39.12
-45.19
-50.24
-54.6
-58.91
-63.92
-70.41
-78.96
-89.75
-102.34
-115.34
-126.52
-133.14
-132.71
-123.85
-106.82
-83.45
-56.6
-29.32
-4.01
17.89
35.91
50.15
60.91
68.51
73.18
75.28
75.3
73.87
71.72
69.54
67.89
67.17
67.54
68.98
71.24
73.95
76.75
79.32
81.38
82.68
82.88
81.64
78.68
74.04
68.09
61.5
54.95
48.89
43.39
38.17
32.8
26.93
