0
15.29
35.34
50.47
60.83
66.96
69.44
68.77
65.53
60.53
54.85
49.61
45.72
43.61
43.16
43.88
45.14
46.48
47.69
48.81
49.94
51.06
51.9
51.98
50.74
47.75
42.88
36.4
28.94
21.32
14.26
8.12
2.81
-2.16
-7.37
-13.24
-19.79
-26.63
-33.2
-38.98
-43.74
-47.64
-51.12
-54.81
-59.36
-65.37
-73.14
-82.4
-92.08
-100.24
-104.41
-102.29
-92.47
-75.1
-51.9
-25.72
0.28
23.44
42.08
55.57
64.05
68.08
68.36
65.72
61.06
55.44
49.89
45.21
41.69
39.16
37.12
35.11
32.98
31.0
29.57
28.89
28.77
28.59
27.6
25.32
21.69
17.22
12.69
8.84
6.06
4.21
2.65
0.49
-3.05
-8.3
-15.02
-22.54
-30.05
-37.0
-43.31
-49.41
-56.05
-64.03
-73.99
-86.03
-99.49
-112.76
-123.44
-128.82
-126.7
-116.17
-97.96
-74.25
-47.95
-21.93
1.56
21.1
35.92
45.74
50.68
51.25
48.39
43.38
37.58
32.11
27.74
24.77
23.19
22.84
23.56
25.22
27.81
31.3
35.51
40.06
44.27
47.29
48.24
46.4
41.41
33.45
23.29
12.32
2.29
-5.0
-8.26
-7.19
-2.59
3.8
9.84
13.64
13.97
10.35
2.75
-8.59
-23.31
-40.65
-59.04
-76.02
-88.5
-93.69
-89.93
-77.38
-57.91
-34.53
-10.44
11.78
30.46
44.77
54.37
59.12
59.11
54.76
47.05
37.55
28.14
20.57
16.02
14.84
16.57
20.22
24.72
29.21
33.22
36.61
39.36
41.26
41.88
40.54
36.63
29.95
20.8
10.07
-1.13
-11.88
-21.67
-30.61
-39.23
-48.21
-58.15
-69.34
-81.55
-93.91
-104.84
-112.17
-113.77
-108.21
-95.43
-76.89
-55.29
-33.65
-14.53
0.52
10.97
17.01
19.1
17.78
13.63
7.46
0.36
-6.44
-11.88
-15.26
-16.49
-15.89
-14.02
-11.37
-8.2
-4.6
-0.64
3.37
6.76
8.7
8.42
5.63
0.71
-5.39
-11.43
-16.32
-19.51
-21.04
-21.48
-21.82
-23.05
-25.89
-30.33
-35.44
-39.34
-39.63
-34.09
-21.58
-2.46
21.38
47.04
71.52
92.37
108.17
118.47
123.58
124.19
121.19
115.52
108.06
99.6
90.77
82.02
73.65
65.82
58.63
52.11
46.35
41.39
37.17
33.47
29.84
25.62
20.21
13.25
4.79
-4.68
-14.4
-23.61
-31.85
-39.09
-45.84
-52.99
-61.5
-71.94
-83.98
-96.03
-105.44
-109.06
-104.28
-90.02
-67.23
-38.64
-7.99
21.06
45.75
64.66
77.48
84.69
87.12
85.76
81.57
75.55
68.65
61.66
55.15
49.38
44.41
40.16
36.62
33.84
31.91
30.76
30.07
29.18
27.26
23.62
17.92
10.36
1.54
-7.71
-16.71
-25.09
-32.96
-40.89
-49.75
-60.39
-73.11
-87.12
-100.28
-109.4
-111.12
-103.11
-84.97
-58.55
-27.34
4.55
33.59
57.45
75.13
86.56
92.22
92.83
89.28
82.65
74.12
64.84
55.75
47.48
40.3
34.3
29.46
25.79
23.28
21.87
21.3
20.97
20.08
17.74
13.39
6.95
-1.14
-10.09
-19.08
-27.65
-35.74
-43.76
-52.41
-62.5
-74.55
-88.35
-102.52
-114.47
-120.88
-118.66
-106.17
-83.95
-54.62
-22.13
9.52
37.3
59.5
75.63
85.84
90.52
90.19
85.55
77.62
67.67
57.0
46.66
37.31
29.26
22.65
17.58
14.21
12.66
12.79
14.06
15.48
15.86
14.1
9.62
2.55
-6.36
-15.93
-25.02
-32.91
-39.45
-45.17
-51.14
-58.56
-68.2
-79.87
-91.95
-101.55
-105.13
-99.66
-83.75
-58.31
-26.35
7.85
39.98
66.77
86.42
98.54
103.73
103.1
98.02
89.99
80.5
70.89
62.01
54.16
47.07
40.26
33.4
26.62
20.5
15.77
12.87
11.57
10.96
9.66
6.43
0.63
-7.55
-17.23
-27.24
-36.66
-45.1
-52.83
-60.62
-69.5
-80.33
-93.33
-107.63
-121.02
-130.23
-131.74
-122.91
-103.06
-73.91
-39.08
-3.01
30.29
58.15
79.36
93.89
102.22
104.94
102.7
96.31
86.88
75.84
64.73
54.88
47.12
41.61
37.88
35.14
32.67
30.08
27.43
25.04
23.11
21.43
19.33
15.88
10.24
2.12
-8.11
-19.5
-30.89
-41.27
-50.16
-57.67
-64.45
-71.46
-79.77
-90.21
-103.04
-117.49
-131.58
-142.17
-145.68
-139.08
-121.03
-92.5
-56.61
-17.82
19.38
51.56
76.86
94.87
106.17
111.7
112.42
109.25
103.14
95.11
86.26
77.58
69.83
63.42
58.43
54.76
52.22
50.56
49.55
48.84
47.94
46.29
43.39
39.02
33.24
26.42
18.97
11.17
3.05
-5.55
-14.77
-24.54
-34.55
-44.29
-53.34
-61.49
-68.9
-75.99
-83.4
-91.86
-102.01
-114.1
-127.38
-139.89
-148.4
-149.26
-139.56
-118.36
-87.24
-49.93
-11.14
24.86
55.2
78.59
94.96
104.81
108.81
107.71
102.48
94.46
85.16
76.04
68.15
61.95
57.33
53.83
50.93
48.34
46.1
44.48
43.74
43.86
44.32
44.2
42.53
38.63
32.47
24.72
16.45
8.75
2.22
-3.22
-8.34
-14.15
-21.41
-30.28
-40.16
-49.95
-58.53
-65.24
-70.09
-73.77
-77.36
-82.12
-89.15
-99.03
-111.42
-124.72
-136.01
-141.55
-137.82
-122.79
-96.78
-62.52
-24.3
13.29
46.6
73.51
93.38
106.46
113.43
115.08
112.21
105.85
97.23
87.71
78.59
70.84
64.97
60.96
58.45
56.95
56.04
55.52
55.35
55.5
55.82
55.93
55.29
53.34
49.67
44.16
37.03
28.8
20.25
12.17
5.09
-0.9
-6.22
-11.63
-17.89
-25.43
-34.1
-43.29
-52.2
-60.16
-66.88
-72.53
-77.6
-82.73
-88.69
-96.2
-105.72
-117.01
-128.74
-138.35
-142.51
-138.03
-123.08
-97.93
-65.05
-28.43
7.65
39.61
65.31
83.93
95.68
101.22
101.42
97.27
89.93
80.77
71.19
62.36
55.05
49.46
45.39
42.42
40.23
38.7
37.91
37.96
38.83
40.18
41.42
41.75
40.47
37.15
31.8
24.96
17.45
10.12
3.48
-2.45
-8.17
-14.39
-21.64
-30.03
-39.15
-48.21
-56.43
-63.32
-68.85
-73.51
-78.04
-83.38
-90.31
-99.26
-109.88
-120.79
-129.6
-133.24
-128.95
-115.2
-92.4
-62.88
-30.24
1.74
30.08
53.05
70.11
81.36
87.16
87.91
84.2
76.95
67.46
57.24
47.63
39.57
33.44
29.14
26.37
24.83
24.34
24.85
26.28
28.37
30.53
31.97
31.84
29.61
25.26
19.3
12.66
6.24
0.55
-4.44
-9.29
-14.76
-21.45
-29.43
-38.26
-47.08
-55.02
-61.52
-66.6
-70.82
-75.21
-80.92
-88.85
-99.23
-111.2
-122.64
-130.44
-131.28
-122.62
-103.69
-75.9
-42.54
-7.79
24.45
51.41
71.81
85.56
93.26
95.72
93.81
88.49
80.88
72.2
63.55
55.74
49.17
43.92
39.85
36.82
34.78
33.72
33.67
34.48
35.79
36.97
37.24
35.88
32.5
27.23
20.7
13.8
7.24
1.31
-4.3
-10.19
-16.94
-24.72
-33.22
-41.8
-49.75
-56.67
-62.51
-67.71
-73.07
-79.59
-88.2
-99.14
-111.52
-123.04
-130.38
-130.16
-120.11
-99.98
-71.75
-38.98
-5.67
24.81
50.32
69.98
83.74
91.96
95.11
93.77
88.75
81.17
72.37
63.68
56.15
50.41
46.53
44.22
43.07
42.75
43.09
44.03
45.42
46.87
47.71
47.2
44.79
40.32
34.19
27.22
20.31
14.07
8.59
3.41
-2.21
-8.86
-16.73
-25.43
-34.19
-42.26
-49.16
-54.94
-60.11
-65.54
-72.21
-80.88
-91.74
-103.92
-115.33
-122.92
-123.44
-114.58
-95.83
-68.89
-37.1
-4.43
25.66
50.9
70.33
83.87
91.95
95.07
93.87
89.16
81.98
73.56
65.14
57.66
51.71
47.43
44.64
43.0
42.25
42.18
42.71
43.63
44.57
44.95
44.16
41.76
37.7
32.3
26.12
19.65
13.14
6.54
-0.39
-7.86
-15.88
-24.2
-32.37
-39.94
-46.63
-52.44
-57.73
-63.16
-69.54
-77.57
-87.38
-98.18
-108.03
-114.2
-113.82
-104.91
-87.15
-62.21
-33.27
-4.06
22.17
43.37
58.83
68.79
73.86
74.7
71.81
65.76
57.41
47.95
38.74
30.98
25.43
22.2
20.91
20.91
21.53
22.33
23.05
23.6
23.92
23.89
23.28
21.78
19.02
14.72
8.78
1.41
-6.84
-15.28
-23.2
-30.15
-36.0
-41.01
-45.71
-50.81
-57.06
-65.01
-74.7
-85.36
-95.22
-101.8
-102.46
-95.35
-80.0
-57.72
-31.15
-3.53
22.2
43.97
60.77
72.39
79.12
81.43
79.87
75.06
67.85
59.24
50.36
42.29
35.85
31.52
29.37
29.09
30.15
31.88
33.62
34.81
35.0
33.98
31.73
28.41
24.25
19.46
14.12
8.2
1.58
-5.73
-13.63
-21.82
-29.93
-37.57
-44.49
-50.64
-56.24
-61.85
-68.23
-76.13
-85.78
-96.51
-106.48
-112.94
-113.03
-104.76
-87.77
-63.58
-35.17
-6.04
20.72
43.04
59.97
71.44
77.88
79.94
78.4
74.18
68.28
61.7
55.26
49.47
44.59
40.71
37.85
36.09
35.44
35.83
36.96
38.33
39.35
39.41
38.09
35.27
31.08
25.89
20.14
14.23
8.34
2.41
-3.78
-10.45
-17.68
-25.31
-32.94
-40.17
-46.68
-52.46
-57.8
-63.33
-69.89
-78.16
-88.18
-98.93
-108.15
-112.84
-110.19
-98.66
-78.73
-52.77
-24.3
3.17
27.12
46.31
60.55
70.18
75.62
77.25
75.56
71.31
65.55
59.42
53.97
49.85
47.26
45.98
45.55
45.5
45.53
45.55
45.63
45.75
45.71
45.05
43.26
39.97
35.21
29.38
23.15
17.16
11.8
7.06
2.57
-2.22
-7.82
-14.4
-21.74
-29.23
-36.1
-41.82
-46.25
-49.76
-53.14
-57.33
-63.19
-71.16
-80.99
-91.45
-100.34
-104.82
-102.2
-90.96
-71.36
-45.62
-17.24
10.07
33.46
51.51
64.19
72.2
76.42
77.49
75.82
71.79
66.09
59.69
53.7
49.04
46.12
44.78
44.45
44.51
44.54
44.48
44.49
44.71
45.05
45.13
44.44
42.53
39.21
34.61
29.07
23.1
17.16
11.62
6.59
1.91
-2.81
-8.04
-14.08
-20.93
-28.16
-35.13
-41.26
-46.3
-50.47
-54.31
-58.52
-63.72
-70.3
-78.28
-87.11
-95.54
-101.63
-103.14
-98.18
-85.9
-66.95
-43.42
-18.2
5.76
26.16
41.79
52.4
58.37
60.44
59.39
55.95
50.81
44.62
38.06
31.88
26.74
23.14
21.29
21.02
21.91
23.46
25.24
26.96
28.39
29.24
29.14
27.71
24.75
20.39
15.11
9.54
4.24
-0.56
-5.08
-9.76
-15.07
-21.16
-27.75
-34.23
-39.92
-44.42
-47.79
-50.61
-53.78
-58.23
-64.6
-72.87
-82.21
-90.93
-96.73
-97.29
-90.94
-77.27
-57.43
-33.8
-9.37
13.11
31.76
45.72
55.01
60.1
61.59
60.1
56.23
50.73
44.47
38.37
33.17
29.36
27.07
26.16
26.3
27.19
28.6
30.36
32.3
34.08
35.19
35.05
33.2
29.52
24.31
18.24
12.05
6.34
1.32
-3.24
-7.87
-13.11
-19.22
-26.04
-32.98
-39.32
-44.52
-48.49
-51.66
-54.83
-58.87
-64.54
-72.12
-81.25
-90.72
-98.46
-102.0
-99.04
-88.31
-70.17
-46.63
-20.77
4.18
25.74
42.62
54.62
62.16
65.88
66.34
64.11
59.87
54.48
48.96
44.25
40.99
39.39
39.19
39.79
40.56
41.04
41.11
40.92
40.7
40.54
40.29
39.54
37.87
34.95
30.74
25.42
19.43
13.27
7.39
2.16
-2.33
-6.32
-10.24
-14.63
-19.85
-25.89
-32.37
-38.65
-44.18
-48.68
-52.22
-55.32
-58.72
-63.29
-69.73
-78.3
-88.35
-98.24
-105.44
-107.16
-101.34
-87.34
-66.35
-40.99
-14.49
10.2
31.05
47.09
58.27
65.01
67.99
67.95
65.7
62.08
57.88
53.83
50.46
48.08
46.75
46.33
46.52
47.02
47.67
48.38
49.09
49.69
49.95
49.54
48.25
46.0
42.93
39.25
35.15
30.74
26.11
21.29
16.42
11.61
6.92
2.29
-2.47
-7.55
-13.01
-18.74
-24.39
-29.62
-34.16
-37.98
-41.34
-44.68
-48.48
-53.24
-59.35
-67.07
-76.19
-85.83
-94.25
-98.98
-97.57
-88.4
-71.49
-48.69
-23.2
1.54
22.8
39.23
50.77
58.06
61.91
62.87
61.34
57.75
52.82
47.48
42.64
38.94
36.6
35.48
35.26
35.61
36.34
37.34
38.47
39.53
40.26
40.36
39.61
37.95
35.44
32.23
28.52
24.45
20.13
15.67
11.11
6.56
2.11
-2.24
-6.55
-10.99
-15.74
-20.89
-26.35
-31.87
-37.08
-41.66
-45.48
-48.67
-51.6
-54.84
-59.05
-64.78
-72.26
-81.03
-89.77
-96.38
-98.45
-93.98
-82.27
-64.18
-41.97
-18.62
3.1
21.3
35.16
44.69
50.35
52.58
51.82
48.54
43.36
37.19
31.08
26.0
22.63
21.21
21.49
22.98
25.11
27.36
29.45
31.24
32.71
33.82
34.48
34.5
33.63
31.63
28.41
24.07
18.94
13.51
8.25
3.51
-0.66
-4.52
-8.43
-12.78
-17.76
-23.29
-28.98
-34.39
-39.07
-42.88
-45.95
-48.71
-51.81
-55.87
-61.39
-68.58
-77.01
-85.53
-92.23
-94.84
-91.36
-80.82
-63.72
-41.97
-18.33
4.42
24.13
39.69
50.78
57.66
60.82
60.82
58.36
54.26
49.41
44.64
40.53
37.47
35.57
34.85
35.22
36.49
38.36
40.46
42.41
43.88
44.72
44.79
44.05
42.41
39.8
36.24
31.83
26.8
21.43
15.95
10.55
5.4
0.66
-3.58
-7.36
-10.93
-14.66
-18.91
-23.79
-29.13
-34.52
-39.47
-43.73
-47.29
-50.42
-53.63
-57.53
-62.79
-69.82
-78.5
-87.79
-95.69
-99.63
-97.27
-87.38
-70.4
-48.34
-24.18
-0.92
19.13
34.8
45.87
52.72
55.98
56.29
54.29
50.71
46.31
41.92
38.26
35.8
34.62
34.55
35.21
36.23
37.39
38.62
39.89
41.11
42.13
42.66
42.46
41.39
39.42
36.66
33.21
29.21
24.74
19.87
14.74
9.54
4.54
-0.01
-3.96
-7.41
-10.73
-14.35
-18.65
-23.69
-29.22
-34.76
-39.81
-44.11
-47.65
-50.76
-54.01
-58.1
-63.63
-70.83
-79.18
-87.23
-92.8
-93.47
-87.49
-74.39
-55.24
-32.36
-8.58
13.57
32.32
46.83
56.95
63.02
65.53
65.15
62.63
58.86
54.7
50.94
48.04
46.22
45.32
45.09
45.25
45.71
46.51
47.7
49.19
50.68
51.65
51.64
50.38
47.93
44.55
40.65
36.48
32.19
27.79
23.29
18.77
14.34
10.15
6.29
2.76
-0.52
-3.77
-7.21
-11.05
-15.36
-20.06
-24.89
-29.54
-33.77
-37.5
-40.89
-44.28
-48.2
-53.24
-59.82
-67.88
-76.54
-84.07
-88.18
-86.76
-78.68
-64.27
-45.31
-24.36
-4.03
13.69
27.75
37.87
44.22
47.17
47.09
44.47
39.92
34.19
28.15
22.61
18.25
15.43
14.22
14.35
15.44
17.06
18.9
20.74
22.48
23.99
25.13
25.68
25.4
24.04
21.47
17.74
13.16
8.24
3.51
-0.68
-4.31
-7.63
-11.03
-14.77
-18.88
-23.18
-27.43
-31.42
-35.04
-38.25
-41.04
-43.53
-46.06
-49.21
-53.69
-59.91
-67.6
-75.61
-81.97
-84.49
-81.39
-71.97
-56.81
-37.64
-16.78
3.41
21.19
35.54
46.19
53.29
57.19
58.2
56.69
53.14
48.26
42.98
38.2
34.62
32.52
31.83
32.19
33.26
34.71
36.32
37.9
39.19
39.9
39.78
38.65
36.46
33.31
29.38
24.91
20.19
15.47
11.0
6.9
3.19
-0.25
-3.61
-7.22
-11.33
-16.05
-21.25
-26.54
-31.44
-35.5
-38.58
-40.87
-42.92
-45.45
-49.2
-54.75
-62.22
-71.08
-79.92
-86.61
-88.79
-84.6
-73.41
-56.21
-35.3
-13.61
6.19
22.31
34.06
41.68
45.92
47.63
47.62
46.43
44.44
41.88
39.0
36.1
33.61
31.92
31.23
31.46
32.28
33.33
34.38
35.43
36.57
37.82
38.94
39.53
39.17
37.66
35.07
31.67
27.74
23.48
18.99
14.34
9.68
5.24
1.16
-2.57
-6.16
-9.94
-14.17
-18.88
-23.83
-28.62
-32.85
-36.28
-38.97
-41.21
-43.5
-46.41
-50.54
-56.29
-63.61
-71.79
-79.28
-83.94
-83.57
-76.67
-63.06
-44.05
-22.07
0.04
19.81
35.6
46.79
53.43
56.09
55.6
52.97
49.28
45.52
42.43
40.31
39.05
38.34
37.9
37.59
37.5
37.78
38.5
39.59
40.78
41.76
42.27
42.12
41.31
39.89
37.93
35.48
32.54
29.08
25.15
20.89
16.51
12.23
8.27
4.65
1.29
-2.01
-5.46
-9.2
-13.25
-17.54
-21.87
-26.05
-29.9
-33.34
-36.49
-39.62
-43.24
-47.9
-54.07
-61.83
-70.64
-79.2
-85.57
-87.62
-83.71
-73.28
-57.17
-37.38
-16.57
2.8
19.0
31.35
39.9
45.07
47.33
47.0
44.45
40.2
35.05
29.91
25.63
22.71
21.26
21.05
21.69
22.82
24.21
25.72
27.27
28.66
29.66
29.97
29.38
27.77
25.18
21.77
17.71
13.23
8.57
4.08
0.05
-3.28
-5.92
-8.21
-10.64
-13.71
-17.67
-22.37
-27.38
-32.19
-36.4
-39.9
-42.83
-45.52
-48.42
-52.04
-56.88
-63.2
-70.72
-78.38
-84.38
-86.57
-83.14
-73.32
-57.74
-38.24
-17.34
2.54
19.62
33.02
42.64
48.78
51.91
52.47
50.94
47.87
43.95
39.89
36.34
33.75
32.31
32.02
32.74
34.3
36.42
38.77
40.9
42.36
42.85
42.25
40.73
38.56
36.01
33.18
30.03
26.51
22.56
18.29
13.85
9.39
5.04
0.9
-3.0
-6.67
-10.22
-13.88
-17.85
-22.28
-27.08
-31.91
-36.37
-40.18
-43.38
-46.37
-49.79
-54.39
-60.64
-68.56
-77.33
-85.41
-90.63
-90.85
-84.65
-71.88
-53.79
-32.73
-11.33
8.18
24.4
36.82
45.46
50.67
52.87
52.58
50.46
47.25
43.7
40.41
37.78
35.98
35.05
34.9
35.42
36.46
37.87
39.53
41.28
42.9
44.03
44.25
43.25
40.94
37.59
33.7
29.78
26.09
22.55
18.85
14.72
10.15
5.45
1.08
-2.57
-5.45
-7.84
-10.18
-12.92
-16.28
-20.23
-24.6
-29.1
-33.49
-37.62
-41.45
-45.15
-49.04
-53.65
-59.47
-66.71
-74.82
-82.45
-87.48
-87.71
-81.54
-68.69
-50.35
-28.92
-7.17
12.49
28.59
40.62
48.8
53.62
55.6
55.25
53.15
50.01
46.62
43.65
41.49
40.2
39.63
39.54
39.77
40.27
40.99
41.88
42.81
43.59
43.98
43.77
42.82
41.05
38.53
35.41
31.9
28.15
24.21
20.07
15.68
11.09
6.45
1.97
-2.19
-6.02
-9.65
-13.29
-17.09
-21.14
-25.34
-29.55
-33.57
-37.24
-40.53
-43.57
-46.69
-50.43
-55.35
-61.81
-69.64
-77.92
-84.95
-88.64
-87.12
-79.43
-65.92
-48.26
-28.88
-10.23
5.86
18.53
27.7
33.72
36.97
37.73
36.22
32.89
28.41
23.73
19.78
17.18
16.16
16.48
17.68
19.3
21.05
22.79
24.49
26.1
27.47
28.35
28.44
27.5
25.41
22.23
18.18
13.63
8.94
4.46
0.37
-3.35
-6.88
-10.5
-14.44
-18.76
-23.32
-27.8
-31.86
-35.24
-37.91
-40.12
-42.35
-45.21
-49.33
-55.11
-62.5
-70.75
-78.34
-83.21
-83.34
-77.46
-65.56
-48.91
-29.65
-10.06
8.04
23.5
35.77
44.67
50.17
52.4
51.76
48.92
44.78
40.29
36.26
33.3
31.73
31.56
32.59
34.36
36.38
38.23
39.64
40.53
40.85
40.57
39.61
37.89
35.35
32.05
28.08
23.55
18.67
13.68
8.88
4.48
0.5
-3.26
-7.09
-11.26
-15.79
-20.49
-25.06
-29.25
-32.96
-36.28
-39.42
-42.73
-46.61
-51.57
-58.0
-65.97
-74.9
-83.39
-89.48
-91.11
-86.82
-76.24
-60.24
-40.66
-19.84
0.05
17.33
31.07
40.99
47.28
50.43
51.06
49.83
47.39
44.35
41.27
38.64
36.82
36.02
36.26
37.42
39.25
41.43
43.61
45.46
46.69
47.14
46.78
45.68
43.95
41.62
38.69
35.14
31.03
26.52
21.9
17.4
13.17
9.22
5.42
1.65
-2.22
-6.27
-10.53
-15.02
-19.66
-24.31
-28.81
-33.01
-36.88
-40.61
-44.55
-49.23
-55.16
-62.57
-71.06
-79.39
-85.55
-87.3
-82.85
-71.63
-54.62
-34.05
-12.68
7.0
23.42
35.95
44.73
50.18
52.84
53.21
51.85
49.42
46.57
43.84
41.54
39.78
38.5
37.66
37.26
37.36
37.98
39.06
40.4
41.64
42.42
42.38
41.33
39.22
36.18
32.4
28.1
23.51
18.87
14.37
10.18
6.37
2.9
-0.43
-3.88
-7.68
-11.95
-16.6
-21.45
-26.23
-30.73
-34.85
-38.6
-42.13
-45.7
-49.68
-54.56
-60.78
-68.43
-76.97
-85.05
-90.66
-91.64
-86.43
-74.73
-57.65
-37.52
-17.08
1.3
16.17
27.12
34.49
38.88
40.82
40.69
38.8
35.64
31.91
28.43
25.9
24.7
24.83
25.95
27.59
29.35
31.01
32.53
33.98
35.38
36.53
37.07
36.59
34.78
31.62
27.41
22.6
17.68
12.99
8.69
4.79
1.25
-2.07
-5.41
-9.05
-13.24
-18.01
-23.09
-27.97
-32.15
-35.41
-37.93
-40.27
-43.17
-47.33
-53.16
-60.59
-68.92
-76.78
-82.3
-83.48
-78.79
-67.8
-51.36
-31.45
-10.61
8.82
25.18
37.71
46.4
51.61
53.93
53.96
52.35
49.73
46.72
43.82
41.38
39.6
38.55
38.21
38.49
39.22
40.21
41.28
42.24
42.94
43.21
42.82
41.57
39.43
36.49
33.03
29.31
25.49
21.52
17.32
12.86
8.31
3.94
-0.01
-3.45
-6.6
-9.79
-13.4
-17.59
-22.3
-27.29
-32.15
-36.56
-40.34
-43.6
-46.7
-50.25
-54.9
-61.17
-69.01
-77.68
-85.59
-90.6
-90.61
-84.21
-71.28
-53.16
-32.29
-11.42
7.14
22.08
33.14
40.74
45.55
48.13
48.87
48.13
46.36
44.16
42.17
40.89
40.54
40.99
41.9
42.87
43.68
44.35
45.05
45.97
47.1
48.13
48.51
47.74
45.63
42.38
38.52
34.64
31.1
27.93
24.9
21.68
18.11
14.18
10.1
6.13
2.49
-0.71
-3.55
-6.27
-9.2
-12.69
-16.92
-21.78
-26.91
-31.83
-36.18
-39.85
-43.1
-46.4
-50.38
-55.58
-62.33
-70.46
-79.11
-86.68
-91.1
-90.36
-83.25
-69.83
-51.59
-30.91
-10.35
7.98
22.87
33.92
41.28
45.43
46.99
46.61
44.96
42.62
40.07
37.64
35.61
34.18
33.48
33.57
34.32
35.52
36.93
38.35
39.63
40.65
41.21
41.05
39.95
37.84
34.88
31.37
27.63
23.86
20.08
16.21
12.13
7.78
3.31
-1.06
-5.06
-8.53
-11.49
-14.19
-16.94
-20.01
-23.54
-27.42
-31.43
-35.32
-38.89
-42.12
-45.2
-48.49
-52.47
-57.58
-63.98
-71.32
-78.46
-83.7
-85.11
-81.24
-71.65
-57.13
-39.45
-20.83
-3.33
11.61
23.3
31.6
36.72
39.03
38.93
36.94
33.68
29.88
26.28
23.42
21.61
20.89
21.12
22.07
23.59
25.59
27.95
30.45
32.69
34.2
34.57
33.64
31.51
28.53
25.14
21.68
18.33
15.05
11.7
8.16
4.34
0.32
-3.72
-7.62
-11.27
-14.71
-18.06
-21.47
-25.02
-28.71
-32.41
-35.98
-39.33
-42.46
-45.54
-48.86
-52.87
-57.97
-64.33
-71.61
-78.79
-84.21
-86.04
-82.77
-73.81
-59.71
-42.03
-22.87
-4.28
12.19
25.64
35.77
42.62
46.5
47.77
46.94
44.63
41.54
38.37
35.69
33.82
32.85
32.7
33.19
34.17
35.48
37.02
38.59
39.97
40.86
41.03
40.33
38.7
36.25
33.16
29.68
26.07
22.55
19.17
15.82
12.31
8.5
4.36
0.05
-4.13
-7.98
-11.41
-14.61
-17.87
-21.52
-25.66
-30.16
-34.67
-38.8
-42.33
-45.4
-48.47
-52.27
-57.48
-64.38
-72.57
-80.86
-87.41
-90.2
-87.56
-78.76
-64.24
-45.59
-25.08
-5.09
12.47
26.46
36.51
42.9
46.25
47.3
46.76
45.22
43.15
40.89
38.7
36.81
35.43
34.73
34.81
35.68
37.25
39.37
41.84
44.35
46.54
47.94
48.14
46.89
44.26
40.63
36.57
32.63
29.12
26.04
23.14
20.09
16.63
12.73
8.57
4.43
0.63
-2.65
-5.49
-8.17
-11.11
-14.68
-18.95
-23.68
-28.42
-32.72
-36.42
-39.72
-43.11
-47.2
-52.55
-59.37
-67.4
-75.7
-82.71
-86.46
-85.17
-77.86
-64.77
-47.35
-27.77
-8.32
9.26
23.87
35.08
42.81
47.22
48.63
47.62
44.9
41.28
37.48
33.99
31.11
29.0
27.76
27.37
27.78
28.88
30.51
32.46
34.46
36.15
37.18
37.23
36.22
34.27
31.68
28.77
25.7
22.48
18.98
15.14
11.02
6.85
2.91
-0.59
-3.64
-6.4
-9.16
-12.23
-15.79
-19.89
-24.33
-28.83
-33.07
-36.88
-40.29
-43.56
-47.09
-51.38
-56.77
-63.27
-70.31
-76.67
-80.6
-80.31
-74.6
-63.37
-47.75
-29.7
-11.45
5.17
19.09
29.91
37.63
42.42
44.46
44.03
41.56
37.66
33.09
28.59
24.83
22.27
21.09
21.24
22.46
24.38
26.65
29.02
31.23
33.08
34.31
34.68
34.03
32.4
29.97
26.98
23.62
19.95
16.0
11.83
7.56
3.35
-0.7
-4.5
-8.1
-11.54
-14.9
-18.33
-21.95
-25.91
-30.25
-34.81
-39.32
-43.51
-47.28
-50.91
-54.95
-60.07
-66.63
-74.32
-81.96
-87.65
-89.32
-85.32
-75.09
-59.4
-40.1
-19.59
-0.09
16.79
30.24
40.09
46.57
50.03
50.96
49.91
47.51
44.4
41.15
38.17
35.77
34.14
33.38
33.54
34.57
36.31
38.52
40.85
42.91
44.31
44.77
44.15
42.53
40.1
37.11
33.76
30.13
26.22
22.01
17.55
12.98
8.52
4.36
0.57
-2.93
-6.34
-9.96
-14.01
-18.54
-23.44
-28.47
-33.35
-37.94
-42.24
-46.41
-50.7
-55.47
-61.1
-67.85
-75.58
-83.42
-89.74
-92.45
-89.6
-80.2
-64.68
-44.89
-23.45
-2.94
14.76
28.76
38.95
45.64
49.24
50.21
49.11
46.63
43.57
40.67
38.47
37.16
36.64
36.73
37.22
38.04
39.21
40.76
42.61
44.43
45.75
46.11
45.27
43.3
40.6
37.67
34.92
32.46
30.14
27.61
24.55
20.76
16.32
11.5
6.74
2.46
-1.07
-3.9
-6.34
-8.89
-11.99
-15.82
-20.25
-24.99
-29.71
-34.25
-38.66
-43.14
-47.99
-53.54
-60.01
-67.34
-74.87
-81.34
-84.91
-83.77
-76.76
-63.84
-46.23
-26.04
-5.66
12.86
28.17
39.61
47.11
50.98
51.8
50.33
47.41
43.86
40.37
37.42
35.28
34.06
33.74
34.18
35.23
36.65
38.23
39.77
41.09
42.02
42.4
42.06
40.92
38.99
36.38
33.27
29.87
26.31
22.62
18.76
14.63
10.21
5.63
1.17
-2.83
-6.11
-8.72
-11.0
-13.47
-16.58
-20.52
-25.14
-30.06
-34.84
-39.19
-43.07
-46.71
-50.56
-55.11
-60.79
-67.69
-75.37
-82.7
-88.03
-89.51
-85.73
-76.16
-61.45
-43.26
-23.74
-4.98
11.45
24.68
34.44
40.86
44.21
44.83
43.16
39.81
35.6
31.41
27.98
25.72
24.7
24.71
25.5
26.86
28.65
30.76
32.98
35.01
36.5
37.17
36.9
35.74
33.79
31.23
28.19
24.84
21.26
17.53
13.64
9.57
5.36
1.16
-2.73
-6.08
-8.8
-11.1
-13.43
-16.25
-19.81
-24.03
-28.52
-32.8
-36.54
-39.69
-42.48
-45.35
-48.85
-53.49
-59.6
-67.07
-75.11
-82.2
-86.27
-85.34
-78.21
-64.97
-47.07
-26.81
-6.67
11.41
26.32
37.67
45.54
50.12
51.71
50.72
47.8
43.85
39.83
36.47
34.16
32.93
32.53
32.72
33.36
34.42
35.9
37.71
39.58
41.13
42.02
42.0
40.98
39.07
36.47
33.45
30.26
27.04
23.85
20.6
17.1
13.2
8.9
4.38
-0.04
-3.99
-7.28
-9.98
-12.42
-15.04
-18.25
-22.18
-26.67
-31.31
-35.64
-39.38
-42.56
-45.48
-48.67
-52.75
-58.21
-65.27
-73.51
-81.85
-88.47
-91.28
-88.46
-79.15
-63.83
-44.24
-22.91
-2.38
15.43
29.46
39.48
45.81
49.0
49.61
48.26
45.57
42.17
38.66
35.56
33.2
31.76
31.24
31.51
32.45
33.92
35.82
38.0
40.28
42.36
43.86
44.38
43.66
41.61
38.43
34.52
30.39
26.44
22.87
19.61
16.4
12.96
9.15
5.09
1.11
-2.43
-5.3
-7.64
-9.84
-12.44
-15.79
-19.89
-24.44
-28.93
-32.95
-36.37
-39.31
-42.15
-45.32
-49.29
-54.47
-61.11
-69.06
-77.48
-84.8
-88.89
-87.76
-80.27
-66.61
-48.35
-27.88
-7.69
10.32
25.09
36.35
44.26
49.14
51.31
51.14
49.14
45.93
42.21
38.62
35.63
33.49
32.3
31.99
32.47
33.62
35.3
37.36
39.58
41.66
43.24
43.92
43.41
41.63
38.76
35.24
31.6
28.18
25.06
21.99
18.58
14.52
9.82
4.79
-0.09
-4.37
-7.87
-10.69
-13.19
-15.77
-18.74
-22.19
-26.01
-29.92
-33.66
-37.08
-40.22
-43.3
-46.72
-50.92
-56.32
-63.05
-70.75
-78.34
-84.07
-85.9
-82.16
-72.23
-56.91
-38.2
-18.63
-0.53
14.62
26.26
34.51
39.76
42.31
42.37
40.19
36.22
31.19
26.0
21.53
18.42
16.92
16.92
18.06
19.92
22.14
24.46
26.69
28.66
30.13
30.9
30.83
29.88
28.06
25.42
21.98
17.81
13.11
8.21
3.45
-0.85
-4.66
-8.14
-11.62
-15.37
-19.45
-23.7
-27.84
-31.59
-34.8
-37.48
-39.85
-42.26
-45.14
-48.97
-54.11
-60.57
-67.85
-74.76
-79.53
-80.24
-75.43
-64.63
-48.68
-29.54
-9.67
8.66
23.9
35.46
43.48
48.39
50.63
50.6
48.62
45.2
41.01
36.73
32.96
30.1
28.25
27.39
27.44
28.27
29.74
31.62
33.62
35.39
36.62
37.06
36.55
35.06
32.61
29.36
25.55
21.48
17.48
13.82
10.66
7.92
5.36
2.58
-0.84
-5.18
-10.45
-16.32
-22.27
-27.75
-32.35
-36.04
-39.01
-41.71
-44.63
-48.25
-53.07
-59.45
-67.47
-76.57
-85.37
-91.77
-93.49
-88.82
-77.35
-60.23
-39.81
-18.9
0.12
15.85
27.88
36.41
41.84
44.48
44.58
42.55
39.06
35.03
31.32
28.51
26.79
25.99
25.92
26.46
27.64
29.53
32.04
34.87
37.54
39.56
40.57
40.5
39.47
37.76
35.61
33.17
30.41
27.21
23.44
19.09
14.32
9.47
4.92
0.9
-2.66
-6.05
-9.66
-13.74
-18.23
-22.86
-27.28
-31.27
-34.87
-38.39
-42.32
-47.17
-53.39
-61.11
-69.95
-78.85
-86.04
-89.42
-87.13
-78.24
-63.16
-43.6
-22.08
-1.19
17.06
31.62
42.26
49.35
53.49
55.24
55.12
53.6
51.21
48.53
46.1
44.33
43.38
43.23
43.72
44.71
46.11
47.85
49.8
51.72
53.24
54.01
53.75
52.35
49.87
46.57
42.71
38.58
34.36
30.11
25.82
21.43
16.97
12.52
8.23
4.18
0.34
-3.44
-7.34
-11.46
-15.76
-20.12
-24.37
-28.41
-32.26
-36.01
-39.86
-44.12
-49.21
-55.58
-63.4
-72.22
-80.78
-87.11
-89.0
-84.79
-73.99
-57.5
-37.4
-16.23
3.62
20.48
33.45
42.37
47.51
49.41
48.74
46.29
42.82
39.07
35.63
32.88
31.02
30.03
29.8
30.18
31.04
32.25
33.61
34.89
35.8
36.13
35.74
34.65
32.91
30.61
27.78
24.41
20.57
16.36
12.01
7.7
3.56
-0.45
-4.41
-8.44
-12.56
-16.72
-20.82
-24.72
-28.35
-31.66
-34.67
-37.45
-40.18
-43.17
-46.87
-51.82
-58.36
-66.26
-74.49
-81.19
-84.17
-81.6
-72.74
-58.33
-40.29
-21.05
-2.76
13.22
26.29
36.3
43.2
46.93
47.56
45.48
41.49
36.66
32.0
28.31
25.97
25.06
25.36
26.56
28.26
30.15
32.04
33.83
35.42
36.63
37.17
36.74
35.21
32.65
29.4
25.78
22.05
18.29
14.51
10.73
7.08
3.71
0.65
-2.23
-5.23
-8.68
-12.8
-17.55
-22.72
-27.86
-32.54
-36.42
-39.47
-42.01
-44.67
-48.29
-53.59
-60.87
-69.72
-78.85
-86.29
-89.76
-87.39
-78.36
-63.25
-43.95
-23.06
-3.15
13.89
27.16
36.55
42.5
45.58
46.41
45.59
43.71
41.36
38.99
36.9
35.25
34.1
33.5
33.51
34.17
35.41
37.05
38.81
40.39
41.46
41.73
41.01
39.27
36.64
33.39
29.78
26.04
22.2
18.23
14.12
9.93
5.81
1.95
-1.59
-4.88
-8.08
-11.35
-14.8
-18.44
-22.23
-26.11
-30.01
-33.83
-37.46
-40.86
-44.21
-47.95
-52.64
-58.74
-66.19
-74.1
-80.79
-84.07
-81.97
-73.43
-58.79
-39.78
-18.98
1.0
18.2
31.68
41.39
47.74
51.24
52.26
51.22
48.63
45.22
41.84
39.11
37.31
36.39
36.09
36.17
36.53
37.2
38.22
39.5
40.81
41.78
42.06
41.41
39.76
37.22
34.01
30.35
26.35
22.13
17.77
