0
-2.67
-4.52
-6.5
-8.65
-10.99
-13.43
-15.9
-18.32
-20.75
-23.31
-26.14
-29.32
-32.75
-36.14
-39.04
-40.88
-41.17
-39.55
-35.93
-30.59
-24.07
-17.08
-10.37
-4.46
0.38
4.16
7.13
9.53
11.6
13.43
15.0
16.25
17.16
17.81
18.33
18.88
19.54
20.32
21.13
21.83
22.36
22.75
23.09
23.46
23.87
24.23
24.34
24.07
23.35
22.24
20.91
19.48
18.01
16.48
14.86
13.14
11.36
9.58
7.84
6.13
4.41
2.62
0.71
-1.3
-3.41
-5.6
-7.86
-10.13
-12.35
-14.45
-16.41
-18.31
-20.35
-22.7
-25.44
-28.42
-31.26
-33.39
-34.21
-33.3
-30.54
-26.17
-20.69
-14.74
-8.93
-3.69
0.75
4.34
7.14
9.29
10.89
12.06
12.87
13.37
13.58
13.55
13.35
13.09
12.86
12.75
12.8
12.99
13.32
13.82
14.48
15.25
15.96
16.38
16.29
15.63
14.5
13.12
11.68
10.24
8.79
7.3
5.81
4.4
3.12
1.93
0.62
-1.03
-3.09
-5.45
-7.86
-10.01
-11.74
-13.05
-14.07
-15.03
-16.17
-17.73
-19.9
-22.72
-25.96
-29.15
-31.65
-32.91
-32.6
-30.66
-27.3
-22.86
-17.74
-12.37
-7.2
-2.56
1.34
4.45
6.84
8.6
9.78
10.4
10.54
10.4
10.28
10.44
10.98
11.78
12.61
13.25
13.66
13.93
14.18
14.45
14.68
14.76
14.6
14.19
13.6
12.92
12.19
11.42
10.59
9.66
8.61
7.42
6.08
4.63
3.13
1.73
0.5
-0.57
-1.6
-2.81
-4.36
-6.3
-8.54
-10.86
-13.08
-15.11
-16.96
-18.75
-20.64
-22.77
-25.23
-28.0
-30.91
-33.6
-35.56
-36.25
-35.33
-32.69
-28.56
-23.41
-17.81
-12.27
-7.19
-2.8
0.78
3.58
5.71
7.35
8.68
9.79
10.69
11.31
11.63
11.69
11.6
11.52
11.53
11.66
11.88
12.17
12.54
13.02
13.56
14.02
14.21
13.95
13.25
12.27
11.23
10.31
9.58
8.94
8.22
7.31
6.12
4.67
3.03
1.29
-0.49
-2.24
-3.95
-5.63
-7.31
-8.99
-10.62
-12.11
-13.43
-14.62
-15.84
-17.28
-19.11
-21.4
-24.15
-27.22
-30.35
-33.13
-35.06
-35.64
-34.57
-31.86
-27.85
-23.08
-18.07
-13.21
-8.7
-4.59
-0.93
2.29
5.01
7.21
8.87
9.98
10.56
10.71
10.56
10.33
10.2
10.33
10.73
11.4
12.29
13.35
14.49
15.61
16.53
17.11
17.25
17.0
16.47
15.8
15.05
14.23
13.3
12.24
11.06
9.79
8.5
7.21
5.94
4.68
3.36
1.9
0.21
-1.74
-3.9
-6.15
-8.33
-10.32
-12.11
-13.8
-15.55
-17.53
-19.83
-22.44
-25.27
-28.09
-30.61
-32.43
-33.2
-32.61
-30.58
-27.23
-22.9
-18.04
-13.08
-8.4
-4.18
-0.47
2.79
5.63
8.03
9.86
10.97
11.32
11.07
10.54
10.11
10.04
10.35
10.9
11.48
12.0
12.51
13.15
13.97
14.86
15.55
15.78
15.43
14.62
13.59
12.63
11.82
11.12
10.34
9.33
8.02
6.48
4.85
3.27
1.83
0.5
-0.83
-2.27
-3.94
-5.86
-7.99
-10.19
-12.35
-14.37
-16.29
-18.2
-20.25
-22.61
-25.39
-28.59
-32.0
-35.23
-37.69
-38.77
-38.02
-35.33
-30.98
-25.61
-19.9
-14.44
-9.5
-5.11
-1.13
2.55
5.92
8.84
11.12
12.7
13.63
14.11
14.4
14.69
15.07
15.55
16.1
16.69
17.31
17.95
18.59
19.17
19.63
19.96
20.16
20.21
20.07
19.65
18.86
17.64
16.07
14.29
12.5
10.82
9.31
7.92
6.56
5.15
3.64
2.05
0.4
-1.32
-3.11
-5.02
-7.05
-9.18
-11.35
-13.51
-15.66
-17.84
-20.17
-22.79
-25.81
-29.24
-32.86
-36.25
-38.81
-39.93
-39.21
-36.6
-32.41
-27.21
-21.55
-15.83
-10.24
-4.9
0.08
4.47
8.07
10.82
12.84
14.34
15.55
16.53
17.22
17.59
17.73
17.86
18.24
19.0
20.1
21.3
22.37
23.15
23.61
23.78
23.7
23.41
22.9
22.2
21.35
20.41
19.36
18.16
16.78
15.24
13.62
12.04
10.56
9.17
7.78
6.28
4.58
2.67
0.62
-1.47
-3.51
-5.49
-7.44
-9.43
-11.56
-13.86
-16.34
-19.05
-22.0
-25.24
-28.68
-32.07
-34.91
-36.58
-36.52
-34.47
-30.54
-25.22
-19.17
-13.04
-7.28
-2.14
2.3
6.02
9.04
11.38
13.09
14.26
15.04
15.61
16.14
16.77
17.55
18.42
19.25
19.94
20.45
20.85
21.29
21.85
22.5
23.07
23.36
23.21
22.63
21.75
20.75
19.75
18.73
17.57
16.15
14.41
12.43
10.4
8.53
6.89
5.46
4.03
2.42
0.47
-1.83
-4.4
-7.07
-9.69
-12.19
-14.49
-16.65
-18.73
-20.81
-23.03
-25.45
-28.03
-30.49
-32.37
-33.13
-32.26
-29.57
-25.19
-19.6
-13.47
-7.45
-1.98
2.75
6.7
9.97
12.59
14.53
15.75
16.26
16.23
15.94
15.68
15.66
15.98
16.54
17.18
17.7
18.0
18.08
18.03
18.0
18.05
18.14
18.14
17.83
17.07
15.83
14.19
12.29
10.27
8.21
6.2
4.33
2.68
1.34
0.25
-0.76
-1.99
-3.63
-5.73
-8.17
-10.68
-12.99
-14.95
-16.54
-17.85
-19.04
-20.33
-21.93
-24.01
-26.61
-29.44
-31.96
-33.46
-33.33
-31.34
-27.67
-22.87
-17.56
-12.26
-7.26
-2.67
1.46
5.07
8.06
10.36
11.96
12.95
13.51
13.8
13.97
14.11
14.26
14.43
14.6
14.8
15.07
15.51
16.14
16.95
17.82
18.55
18.99
19.06
18.78
18.27
17.6
16.79
15.78
14.48
12.83
10.91
8.88
6.98
5.41
4.23
3.3
2.3
0.89
-1.1
-3.63
-6.46
-9.25
-11.8
-14.08
-16.25
-18.53
-21.04
-23.83
-26.84
-30.01
-33.22
-36.25
-38.68
-39.97
-39.6
-37.3
-33.18
-27.74
-21.7
-15.72
-10.26
-5.53
-1.49
2.0
5.1
7.93
10.49
12.7
14.41
15.49
15.92
15.87
15.61
15.48
15.7
16.3
17.16
18.1
18.97
19.75
20.46
21.1
21.61
21.87
21.76
21.31
20.6
19.77
18.84
17.75
16.32
14.44
12.18
9.74
7.4
5.33
3.56
1.91
0.19
-1.75
-3.94
-6.27
-8.58
-10.75
-12.69
-14.41
-15.99
-17.57
-19.33
-21.44
-23.97
-26.85
-29.8
-32.36
-33.94
-33.97
-32.1
-28.3
-22.94
-16.75
-10.53
-4.97
-0.4
3.21
6.15
8.69
10.96
12.84
14.12
14.68
14.62
14.26
13.97
13.96
14.26
14.67
14.95
14.97
14.79
14.61
14.66
14.99
15.53
16.07
16.36
16.24
15.63
14.58
13.2
11.64
10.01
8.38
6.83
5.37
4.02
2.73
1.45
0.07
-1.48
-3.23
-5.1
-6.97
-8.73
-10.34
-11.85
-13.44
-15.3
-17.62
-20.5
-23.85
-27.42
-30.7
-33.1
-34.04
-33.19
-30.55
-26.45
-21.42
-16.04
-10.74
-5.82
-1.47
2.2
5.13
7.33
8.93
10.11
11.06
11.9
12.65
13.3
13.86
14.36
14.89
15.46
16.07
16.66
17.17
17.59
17.93
18.2
18.37
18.4
18.25
17.93
17.48
16.95
16.31
15.44
14.22
12.58
10.59
8.45
6.4
4.59
3.03
1.59
0.05
-1.75
-3.85
-6.19
-8.62
-10.99
-13.19
-15.18
-17.02
-18.83
-20.8
-23.14
-25.99
-29.3
-32.77
-35.81
-37.74
-37.95
-36.15
-32.44
-27.31
-21.48
-15.64
-10.24
-5.47
-1.3
2.42
5.77
8.79
11.41
13.56
15.18
16.28
16.9
17.09
16.92
16.51
16.02
15.63
15.51
15.78
16.43
17.37
18.45
19.47
20.24
20.58
20.37
19.59
18.36
16.9
15.43
14.14
13.06
12.09
11.02
9.64
7.86
5.76
3.53
1.44
-0.36
-1.81
-3.02
-4.18
-5.48
-7.06
-8.96
-11.17
-13.62
-16.24
-18.94
-21.67
-24.41
-27.16
-29.89
-32.47
-34.64
-36.04
-36.29
-35.16
-32.6
-28.77
-24.02
-18.72
-13.26
-7.94
-3.03
1.3
4.93
7.86
10.12
11.78
12.94
13.7
14.17
14.46
14.66
14.82
15.01
15.28
15.68
16.25
16.98
17.76
18.45
18.95
19.21
19.22
19.02
18.63
18.03
17.17
16.05
14.74
13.34
11.98
10.73
9.62
8.58
7.52
6.3
4.82
3.08
1.14
-0.88
-2.83
-4.68
-6.49
-8.35
-10.35
-12.5
-14.78
-17.19
-19.77
-22.52
-25.32
-27.79
-29.41
-29.65
-28.23
-25.24
-21.09
-16.31
-11.37
-6.56
-2.06
2.06
5.67
8.63
10.84
12.25
12.91
12.91
12.42
11.65
10.87
10.34
10.24
10.58
11.23
11.94
12.51
12.87
13.07
13.18
13.26
13.23
13.0
12.48
11.7
10.77
9.83
8.95
8.1
7.15
5.96
4.49
2.77
0.91
-0.98
-2.81
-4.57
-6.28
-8.0
-9.83
-11.81
-13.97
-16.28
-18.73
-21.31
-24.04
-26.87
-29.65
-32.05
-33.6
-33.87
-32.54
-29.62
-25.39
-20.29
-14.81
-9.34
-4.2
0.41
4.35
7.58
10.12
12.02
13.36
14.2
14.58
14.53
14.21
13.81
13.55
13.58
13.96
14.6
15.39
16.17
16.84
17.31
17.54
17.46
17.08
16.41
15.52
14.5
13.39
12.2
10.92
9.56
8.16
6.78
5.41
4.02
2.53
0.84
-1.09
-3.22
-5.47
-7.72
-9.91
-12.01
-14.02
-15.94
-17.83
-19.8
-22.01
-24.63
-27.7
-31.07
-34.34
-36.93
-38.24
-37.87
-35.69
-31.89
-26.91
-21.29
-15.52
-10.0
-4.98
-0.57
3.2
6.32
8.8
10.61
11.81
12.52
12.93
13.23
13.58
13.98
14.38
14.7
14.92
15.12
15.44
15.97
16.71
17.54
18.29
18.78
18.88
18.56
17.87
16.94
15.91
14.91
13.98
13.04
11.99
10.68
9.09
7.24
5.23
3.13
0.97
-1.2
-3.39
-5.52
-7.52
-9.38
-11.16
-12.99
-15.06
-17.49
-20.32
-23.48
-26.8
-30.01
-32.74
-34.55
-35.06
-34.03
-31.47
-27.67
-23.05
-18.06
-13.11
-8.43
-4.18
-0.38
2.95
5.84
8.32
10.41
12.09
13.32
14.05
14.33
14.3
14.18
14.18
14.45
15.03
15.85
16.83
17.9
18.98
20.01
20.79
21.12
20.8
19.76
18.15
16.31
14.66
13.48
12.84
12.52
12.14
11.33
9.89
7.83
5.37
2.78
0.3
-1.97
-4.06
-6.06
-8.03
-10.0
-11.94
-13.88
-15.9
-18.21
-20.94
-24.11
-27.45
-30.47
-32.5
-33.04
-31.77
-28.77
-24.42
-19.23
-13.78
-8.56
-3.88
0.1
3.41
6.17
8.5
10.47
12.07
13.23
13.91
14.13
13.97
13.6
13.2
12.97
13.13
13.82
15.1
16.83
18.71
20.37
21.48
21.91
21.68
20.94
19.86
18.55
17.06
15.47
13.82
12.14
10.42
8.64
6.77
4.85
2.95
1.08
-0.78
-2.79
-5.03
-7.49
-10.07
-12.56
-14.8
-16.78
-18.62
-20.49
-22.57
-24.94
-27.62
-30.49
-33.3
-35.63
-36.95
-36.73
-34.67
-30.83
-25.63
-19.71
-13.73
-8.14
-3.15
1.21
5.0
8.29
11.1
13.42
15.29
16.7
17.68
18.24
18.38
18.18
17.79
17.41
17.26
17.48
18.1
19.01
20.03
20.98
21.66
21.96
21.77
21.08
19.97
18.59
17.14
15.81
14.65
13.62
12.57
11.35
9.91
8.27
6.48
4.63
2.77
0.93
-0.86
-2.61
-4.34
-6.12
-8.01
-10.02
-12.05
-13.98
-15.77
-17.51
-19.41
-21.74
-24.69
-28.19
-31.99
-35.62
-38.5
-40.08
-39.89
-37.71
-33.7
-28.31
-22.21
-16.07
-10.31
-5.14
-0.54
3.55
7.12
10.08
12.39
14.08
15.23
16.01
16.49
16.69
16.65
16.49
16.39
16.55
17.08
17.92
18.89
19.83
20.63
21.27
21.76
22.09
22.18
21.94
21.31
20.32
19.06
17.66
16.2
14.76
13.35
11.97
10.6
9.23
7.83
6.43
5.09
3.89
2.8
1.73
0.44
-1.26
-3.42
-5.87
-8.28
-10.33
-11.91
-13.16
-14.43
-16.06
-18.28
-21.13
-24.49
-28.16
-31.78
-34.93
-37.04
-37.57
-36.11
-32.61
-27.38
-21.03
-14.33
-7.96
-2.41
2.07
5.54
8.17
10.23
11.93
13.32
14.41
15.18
15.65
15.94
16.17
16.43
16.69
16.88
16.98
17.01
17.11
17.38
17.82
18.32
18.72
18.86
18.71
18.31
17.69
16.84
15.7
14.27
12.6
10.81
9.07
7.48
6.01
4.55
2.98
1.23
-0.66
-2.64
-4.61
-6.59
-8.57
-10.55
-12.48
-14.29
-15.88
-17.27
-18.6
-20.1
-21.99
-24.38
-27.14
-29.89
-32.01
-32.89
-32.05
-29.35
-25.03
-19.62
-13.77
-8.08
-2.95
1.42
5.03
7.94
10.23
11.89
12.91
13.3
13.18
12.78
12.34
12.06
12.04
12.23
12.55
12.96
13.52
14.31
15.35
16.5
17.49
18.06
18.09
17.63
16.86
15.96
15.03
14.01
12.86
11.59
10.28
9.06
8.0
7.06
6.13
5.08
3.88
2.52
1.01
-0.67
-2.57
-4.68
-6.9
-9.11
-11.23
-13.32
-15.53
-17.99
-20.71
-23.61
-26.54
-29.39
-32.12
-34.62
-36.59
-37.59
-37.15
-35.01
-31.28
-26.42
-21.04
-15.68
-10.64
-6.04
-1.88
1.8
4.99
7.62
9.69
11.23
12.28
12.94
13.32
13.56
13.81
14.19
14.66
15.16
15.61
16.04
16.56
17.29
18.24
19.21
19.88
19.93
19.23
17.94
16.4
15.0
13.99
13.36
12.92
12.33
11.36
9.89
7.99
5.86
3.78
1.9
0.29
-1.14
-2.54
-4.02
-5.6
-7.25
-8.91
-10.63
-12.51
-14.7
-17.26
-20.12
-23.11
-26.09
-28.97
-31.75
-34.36
-36.57
-37.97
-38.06
-36.47
-33.11
-28.29
-22.58
-16.63
-11.03
-6.14
-2.08
1.25
4.05
6.51
8.72
10.68
12.24
13.33
13.93
14.2
14.37
14.67
15.18
15.83
16.47
16.97
17.34
17.69
18.17
18.81
19.48
19.95
19.99
19.53
18.63
17.47
16.24
15.01
13.75
12.35
10.74
8.94
7.05
5.27
3.77
2.62
1.76
1.0
0.05
-1.29
-3.06
-5.08
-7.06
-8.75
-10.1
-11.29
-12.65
-14.44
-16.76
-19.52
-22.53
-25.62
-28.65
-31.45
-33.73
-35.07
-35.04
-33.33
-29.95
-25.19
-19.57
-13.63
-7.85
-2.53
2.17
6.19
9.52
12.09
13.9
14.95
15.35
15.27
15.01
14.79
14.72
14.83
15.02
15.23
15.44
15.74
16.19
16.75
17.31
17.7
17.83
17.7
17.4
17.04
16.63
16.09
15.34
14.29
12.96
11.37
9.6
7.71
5.75
3.83
2.01
0.36
-1.14
-2.58
-4.06
-5.63
-7.28
-8.96
-10.63
-12.35
-14.22
-16.36
-18.84
-21.62
-24.59
-27.59
-30.4
-32.75
-34.34
-34.82
-33.97
-31.67
-28.02
-23.3
-17.92
-12.37
-7.06
-2.35
1.57
4.68
7.08
8.95
10.41
11.57
12.44
13.03
13.38
13.59
13.79
14.08
14.53
15.09
15.73
16.38
17.02
17.61
18.15
18.62
19.03
19.34
19.52
19.47
19.13
18.43
17.43
16.24
15.0
13.81
12.68
11.49
10.13
8.58
6.89
5.19
3.57
1.98
0.3
-1.68
-4.05
-6.69
-9.34
-11.71
-13.63
-15.15
-16.54
-18.11
-20.1
-22.62
-25.55
-28.73
-31.95
-34.96
-37.49
-39.19
-39.69
-38.63
-35.83
-31.36
-25.6
-19.14
-12.66
-6.76
-1.8
2.17
5.33
7.95
10.23
12.26
14.0
15.36
16.31
16.84
16.99
16.84
16.48
16.07
15.8
15.82
16.19
16.84
17.62
18.35
18.87
19.09
18.95
18.43
17.54
16.38
15.08
13.85
12.8
11.91
11.09
10.2
9.17
8.02
6.82
5.65
4.52
3.43
2.36
1.28
0.16
-1.07
-2.5
-4.16
-6.03
-7.95
-9.75
-11.32
-12.67
-13.97
-15.42
-17.21
-19.45
-22.15
-25.26
-28.57
-31.74
-34.28
-35.69
-35.55
-33.69
-30.24
-25.55
-20.12
-14.46
-8.99
-4.04
0.19
3.61
6.32
8.48
10.27
11.77
12.94
13.72
14.12
14.28
14.46
14.89
15.62
16.54
17.39
17.99
18.28
18.39
18.51
18.79
19.23
19.66
19.9
19.79
19.25
18.31
17.1
15.74
14.34
12.94
11.52
10.06
8.55
7.02
5.51
4.06
2.68
1.28
-0.22
-1.87
-3.69
-5.61
-7.52
-9.33
-11.0
-12.52
-13.96
-15.47
-17.24
-19.49
-22.31
-25.63
-29.07
-32.06
-33.88
-34.01
-32.19
-28.6
-23.69
-18.08
-12.37
-7.02
-2.28
1.73
5.04
7.79
10.14
12.25
14.14
15.75
16.93
17.61
17.81
17.66
17.33
16.95
16.63
16.42
16.4
16.64
17.13
17.8
18.43
18.77
18.66
18.02
16.91
15.48
13.89
12.26
10.69
9.23
7.89
6.63
5.37
4.08
2.8
1.58
0.45
-0.63
-1.79
-3.15
-4.76
-6.58
-8.49
-10.38
-12.26
-14.17
-16.21
-18.42
-20.8
-23.3
-25.94
-28.73
-31.69
-34.71
-37.52
-39.7
-40.75
-40.26
-38.04
-34.2
-29.13
-23.38
-17.52
-12.02
-7.11
-2.84
0.89
4.17
7.02
9.39
11.18
12.35
12.97
13.24
13.41
13.69
14.21
14.99
15.96
17.01
18.08
19.12
20.1
20.96
21.55
21.78
21.58
21.03
20.29
19.59
19.01
18.55
17.98
17.09
15.74
13.95
11.88
9.72
7.63
5.64
3.74
1.89
0.11
-1.61
-3.31
-5.1
-7.11
-9.41
-12.02
-14.82
-17.65
-20.39
-23.0
-25.56
-28.24
-31.2
-34.43
-37.74
-40.64
-42.52
-42.77
-41.02
-37.28
-31.92
-25.53
-18.79
-12.26
-6.3
-1.1
3.31
6.99
10.02
12.49
14.44
15.89
16.89
17.49
17.86
18.16
18.55
19.12
19.84
20.64
21.41
22.13
22.83
23.58
24.42
25.3
26.04
26.46
26.37
25.68
24.45
22.89
21.22
19.6
18.09
16.61
15.01
13.15
11.02
8.74
6.47
4.35
2.41
0.58
-1.3
-3.38
-5.71
-8.22
-10.73
-13.01
-14.91
-16.48
-17.89
-19.5
-21.64
-24.48
-27.89
-31.43
-34.48
-36.4
-36.73
-35.29
-32.19
-27.72
-22.33
-16.47
-10.58
-5.03
-0.1
4.07
7.46
10.16
12.29
13.98
15.29
16.28
16.96
17.38
17.61
17.76
17.92
18.17
18.51
18.91
19.31
19.67
20.0
20.31
20.57
20.68
20.49
19.83
18.63
16.97
15.05
13.11
11.33
9.81
8.52
7.36
6.18
4.84
3.22
1.26
-1.01
-3.49
-6.02
-8.49
-10.8
-12.94
-14.93
-16.79
-18.58
-20.39
-22.38
-24.7
-27.41
-30.31
-32.87
-34.37
-34.13
-31.83
-27.65
-22.23
-16.36
-10.73
-5.67
-1.19
2.82
6.46
9.65
12.26
14.19
15.5
16.32
16.84
17.18
17.38
17.49
17.53
17.65
17.94
18.42
19.01
19.57
19.99
20.24
20.34
20.29
20.06
19.57
18.78
17.73
16.49
15.17
13.79
12.35
10.81
9.17
7.46
5.74
4.0
2.16
0.14
-2.14
-4.63
-7.21
-9.72
-12.05
-14.16
-16.09
-17.94
-19.83
-21.96
-24.48
-27.47
-30.82
-34.2
-37.03
-38.67
-38.56
-36.41
-32.31
-26.71
-20.31
-13.88
-8.01
-3.05
0.99
4.32
7.2
9.76
11.97
13.71
14.94
15.7
16.18
16.57
16.96
17.36
17.73
18.03
18.35
18.75
19.31
19.99
20.69
21.25
21.54
21.46
20.92
19.93
18.56
16.98
15.39
13.94
12.64
11.38
9.96
8.32
6.52
4.72
3.06
1.54
0.02
-1.73
-3.82
-6.18
-8.61
-10.86
-12.79
-14.45
-16.03
-17.78
-19.91
-22.5
-25.54
-28.91
-32.37
-35.5
-37.8
-38.65
-37.64
-34.65
-29.93
-24.08
-17.85
-11.92
-6.72
-2.4
1.11
4.02
6.54
8.87
11.1
13.16
14.93
16.26
17.05
17.33
17.23
16.94
16.63
16.46
16.53
16.88
17.49
18.26
18.98
19.49
19.64
19.37
18.76
17.85
16.74
15.46
14.07
12.73
11.57
10.74
10.17
9.7
9.01
7.84
6.07
3.76
1.11
-1.59
-4.13
-6.35
-8.19
-9.71
-11.06
-12.44
-14.08
-16.1
-18.59
-21.49
-24.67
-27.86
-30.71
-32.74
-33.46
-32.54
-29.89
-25.8
-20.85
-15.62
-10.62
-6.1
-2.12
1.35
4.29
6.7
8.51
9.76
10.54
10.99
11.22
11.36
11.45
11.57
11.77
12.09
12.57
13.25
14.11
15.08
16.06
16.83
17.17
16.94
16.11
14.84
13.36
11.88
10.47
9.15
7.87
6.57
5.28
4.01
2.73
1.33
-0.31
-2.27
-4.51
-6.95
-9.44
-11.85
-14.07
-16.05
-17.81
-19.5
-21.35
-23.63
-26.51
-29.91
-33.4
-36.3
-37.81
-37.33
-34.66
-30.1
-24.29
-18.01
-11.91
-6.35
-1.44
2.87
6.62
9.77
12.17
13.73
14.49
14.71
14.74
14.92
15.36
16.02
16.71
17.27
17.67
17.96
18.27
18.64
19.04
19.34
19.43
19.26
18.87
18.38
17.85
17.24
16.44
15.29
13.75
11.88
9.87
7.91
6.11
4.45
2.85
1.18
-0.59
-2.46
-4.36
-6.27
-8.19
-10.19
-12.31
-14.54
-16.84
-19.14
-21.45
-23.88
-26.57
-29.61
-32.9
-36.04
-38.43
-39.42
-38.55
-35.74
-31.3
-25.78
-19.84
-13.95
-8.47
-3.6
0.55
3.96
6.66
8.77
10.44
11.78
12.83
13.62
14.21
14.72
15.28
15.93
16.6
17.13
17.42
17.52
17.65
18.07
18.88
19.96
21.0
21.67
21.75
21.22
20.18
18.83
17.34
15.83
14.36
12.93
11.48
9.94
8.26
6.45
4.62
2.94
1.45
0.14
-1.17
-2.64
-4.35
-6.28
-8.31
-10.37
-12.46
-14.67
-17.11
-19.84
-22.82
-26.01
-29.3
-32.55
-35.5
-37.78
-38.96
-38.71
-36.89
-33.62
-29.23
-24.08
-18.55
-12.96
-7.6
-2.74
1.41
4.78
7.42
9.45
11.03
12.24
13.13
13.7
14.03
14.21
14.36
14.51
14.67
14.84
15.09
15.54
16.3
17.38
18.66
19.86
20.68
20.88
20.42
19.4
18.08
16.66
15.3
14.0
12.69
11.28
9.76
8.2
6.64
5.13
3.59
1.95
0.12
-1.85
-3.83
-5.67
-7.32
-8.83
-10.38
-12.14
-14.2
-16.54
-19.11
-21.86
-24.77
-27.74
-30.55
-32.77
-33.89
-33.49
-31.38
-27.74
-23.01
-17.73
-12.37
-7.27
-2.58
1.62
5.28
8.36
10.8
12.58
13.7
14.25
14.34
14.16
13.91
13.77
13.85
14.23
14.91
15.84
16.96
18.12
19.17
19.89
20.09
19.71
18.83
17.68
16.5
15.47
14.59
13.75
12.79
11.61
10.2
8.63
6.99
5.34
3.71
2.1
0.51
-1.09
-2.74
-4.53
-6.52
-8.77
-11.24
-13.86
-16.52
-19.12
-21.63
-24.15
-26.79
-29.67
-32.81
-35.97
-38.71
-40.45
-40.68
-39.13
-35.83
-31.13
-25.48
-19.32
-13.05
-6.96
-1.32
3.62
7.68
10.79
13.0
14.43
15.22
15.55
15.6
15.56
15.62
15.9
16.41
17.02
17.57
17.97
18.22
18.43
18.7
19.07
19.47
19.84
20.08
20.17
20.07
19.74
19.1
18.08
16.69
14.96
12.97
10.82
8.67
6.7
5.08
3.87
2.96
2.08
0.92
-0.76
-2.96
-5.46
-8.02
-10.38
-12.48
-14.35
-16.1
-17.87
-19.86
-22.35
-25.54
-29.49
-33.86
-38.03
-41.18
-42.65
-42.09
-39.54
-35.36
-29.98
-23.9
-17.54
-11.34
-5.66
-0.74
3.34
6.64
9.28
11.36
12.92
13.98
14.65
15.14
15.67
16.44
17.46
18.61
19.68
20.53
21.17
21.68
22.19
22.72
23.27
23.73
24.01
24.03
23.78
23.26
22.51
21.58
20.5
19.3
17.99
16.58
15.06
13.42
11.64
9.71
7.66
5.57
3.55
1.68
-0.01
-1.56
-3.07
-4.67
-6.45
-8.41
-10.53
-12.74
-15.01
-17.31
-19.72
-22.27
-25.04
-28.05
-31.22
-34.3
-36.87
-38.43
-38.47
-36.75
-33.3
-28.52
-22.99
-17.24
-11.66
-6.45
-1.63
2.74
6.59
9.78
12.15
13.68
14.45
14.65
14.54
14.35
14.23
14.25
14.47
14.88
15.51
16.36
17.39
18.47
19.43
20.05
20.19
19.82
19.01
17.96
16.87
15.87
14.99
14.18
13.32
12.31
11.09
9.66
8.08
6.37
4.57
2.66
0.61
-1.62
-4.02
-6.52
-8.98
-11.26
-13.3
-15.16
-17.04
-19.21
-21.88
-25.09
-28.64
-32.09
-34.92
-36.59
-36.71
-35.13
-31.94
-27.44
-22.06
-16.33
-10.67
-5.41
-0.68
3.5
7.18
10.36
12.96
14.89
16.08
16.6
16.61
16.39
16.22
16.31
16.71
17.34
18.07
18.76
19.38
19.95
20.53
21.08
21.48
21.51
21.0
19.96
18.6
17.25
16.14
15.33
14.58
13.55
11.98
9.8
7.25
4.66
2.37
0.5
-1.03
-2.45
-3.99
-5.82
-7.98
-10.39
-12.91
-15.42
-17.83
-20.16
-22.53
-25.13
-28.15
-31.62
-35.31
-38.75
-41.29
-42.35
-41.55
-38.86
-34.57
-29.17
-23.23
-17.23
-11.54
-6.35
-1.73
2.3
5.8
8.75
11.16
13.01
14.35
15.26
15.86
16.25
16.53
16.77
17.05
17.48
18.1
18.98
20.06
21.22
22.29
23.1
23.5
23.44
22.91
21.98
20.77
19.41
18.0
16.59
15.14
13.6
11.87
9.97
7.93
5.86
3.82
1.88
0.05
-1.73
-3.52
-5.38
-7.35
-9.43
-11.6
-13.82
-16.04
-18.26
-20.51
-22.93
-25.7
-28.97
-32.72
-36.65
-40.2
-42.62
-43.22
-41.62
-37.86
-32.39
-25.91
-19.07
-12.42
-6.26
-0.77
4.03
8.1
11.45
14.12
16.2
17.76
18.88
19.53
19.68
19.38
18.83
18.29
18.06
18.29
18.95
19.85
20.77
21.54
22.09
22.41
22.48
22.26
21.7
20.85
19.81
18.73
17.68
16.65
15.51
14.09
12.32
10.18
7.77
5.25
2.79
0.53
-1.38
-2.88
-3.98
-4.8
-5.59
-6.59
-8.0
-9.93
-12.36
-15.16
-18.2
-21.4
-24.63
-27.77
-30.6
-32.85
-34.19
-34.34
-33.09
-30.43
-26.53
-21.69
-16.29
-10.74
-5.41
-0.6
3.53
6.91
9.56
11.57
13.02
13.96
14.47
14.65
14.64
14.6
14.65
14.85
15.22
15.71
16.3
16.99
17.75
18.51
19.15
19.47
19.36
18.79
17.88
16.83
15.83
15.0
14.34
13.72
12.96
11.89
10.38
8.42
6.11
3.63
1.15
-1.2
-3.38
-5.49
-7.61
-9.81
-12.1
-14.44
-16.8
-19.18
-21.64
-24.32
-27.3
-30.56
-33.95
-37.06
-39.39
-40.42
-39.82
-37.51
-33.67
-28.66
-22.84
-16.56
-10.1
-3.78
2.01
6.96
10.89
13.84
15.98
17.56
18.67
19.3
19.38
18.97
18.27
17.62
17.36
17.64
18.41
19.47
20.58
21.51
22.12
22.35
22.19
21.69
20.95
20.06
19.12
18.18
17.28
16.37
15.36
14.11
12.5
10.48
8.14
5.69
3.38
1.43
-0.12
-1.37
-2.55
-3.84
-5.37
-7.21
-9.38
-11.89
-14.67
-17.58
-20.44
-23.12
-25.7
-28.4
-31.5
-35.06
-38.77
-41.93
-43.71
-43.44
-40.9
-36.37
-30.48
-23.97
-17.47
-11.35
-5.81
-0.92
3.35
6.97
9.94
12.32
14.18
15.61
16.7
17.48
17.94
18.09
17.96
17.74
17.66
17.91
18.57
19.55
20.68
21.72
22.56
23.12
23.36
23.24
22.71
21.75
20.45
18.94
17.33
15.72
14.08
12.41
10.71
9.03
7.42
5.88
4.36
2.76
1.06
-0.72
-2.6
-4.59
-6.81
-9.32
-12.12
-15.03
-17.77
-20.11
-21.98
-23.51
-25.01
-26.84
-29.23
-32.19
-35.46
-38.54
-40.82
-41.66
-40.61
-37.49
-32.48
-26.06
-18.93
-11.81
-5.26
0.39
5.11
9.01
12.24
14.9
16.96
18.34
19.05
19.2
19.02
18.77
18.61
18.61
18.71
18.86
19.05
19.35
19.88
20.62
21.48
22.23
22.6
22.44
21.73
20.64
19.35
18.02
16.7
15.36
13.97
12.56
11.18
9.87
8.65
7.48
6.29
5.05
3.76
2.43
1.03
-0.5
-2.22
-4.15
-6.24
-8.42
-10.59
-12.73
-14.88
-17.11
-19.57
-22.34
-25.51
-29.02
-32.64
-35.91
-38.19
-38.92
-37.74
-34.74
-30.35
-25.15
-19.64
-14.11
-8.65
-3.31
1.7
6.09
9.52
11.83
13.08
13.56
13.59
13.46
13.33
13.28
13.36
13.61
14.04
14.67
15.49
16.47
17.51
18.49
19.23
19.58
19.48
18.95
18.15
17.23
16.32
15.44
14.57
13.67
12.71
11.57
10.17
8.38
6.23
3.85
1.54
-0.46
-2.02
-3.27
-4.49
-5.97
-7.86
-10.17
-12.77
-15.5
-18.22
-20.86
-23.38
-25.82
-28.3
-30.98
-33.96
-37.15
-40.22
-42.59
-43.66
-42.97
-40.36
-36.0
-30.26
-23.61
-16.54
-9.53
-3.03
2.55
6.96
10.09
12.07
13.2
13.84
14.36
15.04
15.98
17.1
18.21
19.05
19.49
19.61
19.6
19.71
20.11
20.79
21.65
22.51
23.24
23.75
23.94
23.75
23.09
21.97
20.47
18.76
16.99
15.25
13.51
11.75
9.94
8.14
6.44
4.88
3.43
1.96
0.26
-1.78
-4.15
-6.74
-9.34
-11.76
-13.95
-15.92
-17.81
-19.78
-21.96
-24.45
-27.33
-30.68
-34.47
-38.47
-42.24
-45.08
-46.3
-45.38
-42.17
-36.96
-30.37
-23.16
-16.06
-9.59
-4.05
0.49
4.11
6.97
9.27
11.16
12.74
14.06
15.16
16.06
16.75
17.23
17.5
17.63
17.75
18.07
18.73
19.78
21.14
22.58
23.86
24.72
24.99
24.59
23.57
22.12
20.52
19.05
17.93
17.23
16.8
16.39
15.7
14.53
12.75
10.42
7.74
5.01
2.51
0.44
-1.18
-2.52
-3.84
-5.35
-7.14
-9.14
-11.3
-13.56
-15.98
-18.6
-21.41
-24.35
-27.37
-30.44
-33.58
-36.72
-39.54
-41.5
-41.98
-40.53
-37.03
-31.83
-25.54
-18.83
-12.25
-6.17
-0.76
3.89
7.77
10.88
13.21
14.79
15.69
16.01
15.92
15.66
15.5
15.61
16.03
16.66
17.36
18.05
18.77
19.62
20.63
21.69
22.53
22.86
22.52
21.63
20.46
19.35
18.5
17.82
16.99
15.7
13.75
11.26
8.56
6.06
3.99
2.37
1.0
-0.39
-2.04
-3.99
-6.18
-8.44
-10.67
-12.79
-14.8
-16.72
-18.64
-20.69
-23.0
-25.69
-28.75
-31.95
-34.87
-36.94
-37.64
-36.58
-33.71
-29.23
-23.61
-17.39
-11.07
-5.09
0.29
4.89
8.62
11.43
13.33
14.43
14.91
15.01
14.99
15.09
15.4
15.93
16.6
17.3
17.9
18.37
18.71
18.99
19.26
19.55
19.85
20.05
20.05
19.73
19.04
17.99
16.57
14.85
12.91
10.87
8.9
7.17
5.76
4.63
3.59
2.36
0.73
-1.37
-3.89
-6.66
-9.49
-12.25
-14.93
-17.57
-20.21
-22.89
-25.67
-28.6
-31.72
-34.98
-38.15
-40.8
-42.3
-42.13
-39.96
-35.9
-30.4
-24.12
-17.69
-11.52
-5.85
-0.75
3.73
7.52
10.57
12.87
14.51
15.66
16.48
17.08
17.53
17.84
18.06
18.3
18.66
19.22
20.0
20.93
21.86
22.64
23.12
23.25
23.04
22.56
21.91
21.16
20.34
19.39
18.22
16.74
14.94
12.93
10.91
9.05
7.42
5.88
4.17
2.04
-0.52
-3.37
-6.18
-8.72
-10.95
-13.05
-15.25
-17.74
-20.52
-23.49
-26.55
-29.68
-32.89
-36.15
-39.19
-41.53
-42.63
-42.04
-39.6
-35.49
-30.11
-24.0
-17.64
-11.39
-5.52
-0.2
4.44
8.34
11.44
13.79
15.5
16.68
17.51
18.13
18.66
19.14
19.61
20.07
20.56
21.13
21.8
22.59
23.43
24.21
24.81
25.12
25.08
24.7
24.0
23.02
21.81
20.45
19.0
17.51
15.97
14.34
12.58
10.71
8.76
6.84
5.01
3.26
1.51
-0.34
-2.32
-4.42
-6.55
-8.64
-10.68
-12.72
-14.88
-17.27
-19.96
-23.01
-26.34
-29.78
-33.0
-35.52
-36.84
-36.55
-34.49
-30.81
-25.92
-20.32
-14.47
-8.75
-3.38
1.47
5.68
9.18
11.96
14.06
15.56
16.54
17.06
17.18
17.02
16.69
16.38
16.2
16.25
16.55
17.1
17.8
18.57
19.29
19.84
20.18
20.25
20.0
19.37
18.34
16.87
15.02
12.96
10.88
8.93
7.19
5.63
4.2
2.81
1.41
-0.08
-1.69
-3.49
-5.45
-7.5
-9.54
-11.49
-13.35
-15.16
-17.05
-19.15
-21.63
-24.63
-28.12
-31.9
-35.46
-38.15
-39.31
-38.55
-35.84
-31.53
-26.12
-20.15
-14.01
-8.05
-2.58
2.07
5.71
8.31
10.07
11.35
12.46
13.54
14.55
15.36
15.88
16.17
16.34
16.52
16.77
17.11
17.55
18.09
18.73
19.38
19.88
20.07
19.86
19.27
18.43
17.49
16.56
15.69
14.88
14.05
13.14
12.01
10.58
8.79
6.66
4.33
1.95
-0.38
-2.63
-4.85
-7.07
-9.34
-11.59
-13.82
-16.02
