0
0.32
-0.09
-0.62
-1.32
-2.13
-2.94
-3.69
-4.42
-5.27
-6.38
-7.74
-9.16
-10.28
-10.72
-10.28
-8.99
-7.12
-5.05
-3.12
-1.49
-0.21
0.76
1.49
1.97
2.15
2.01
1.59
1.01
0.44
-0.01
-0.27
-0.36
-0.34
-0.27
-0.19
-0.14
-0.12
-0.12
-0.17
-0.28
-0.5
-0.92
-1.57
-2.4
-3.27
-3.98
-4.39
-4.51
-4.45
-4.38
-4.37
-4.42
-4.36
-4.06
-3.48
-2.73
-2.01
-1.54
-1.43
-1.68
-2.2
-2.85
-3.52
-4.12
-4.61
-4.93
-5.02
-4.78
-4.12
-2.95
-1.3
0.74
2.95
5.06
6.85
8.12
8.8
8.91
8.59
8.05
7.51
7.17
7.1
7.28
7.59
7.91
8.14
8.29
8.36
8.39
8.39
8.34
8.19
7.95
7.59
7.1
6.48
5.69
4.77
3.75
2.69
1.67
0.76
0.01
-0.55
-0.95
-1.24
-1.52
-1.82
-2.18
-2.54
-2.9
-3.31
-3.87
-4.68
-5.76
-6.95
-8.07
-8.9
-9.3
-9.25
-8.75
-7.78
-6.33
-4.4
-2.18
0.03
1.88
3.16
3.87
4.23
4.51
4.84
5.19
5.39
5.27
4.81
4.18
3.64
3.46
3.75
4.42
5.23
5.91
6.23
6.14
5.7
5.05
4.36
3.72
3.18
2.71
2.26
1.8
1.34
0.91
0.54
0.25
0.04
-0.16
-0.38
-0.67
-1.09
-1.67
-2.38
-3.25
-4.25
-5.38
-6.56
-7.69
-8.63
-9.29
-9.63
-9.68
-9.46
-8.96
-8.11
-6.85
-5.18
-3.25
-1.29
0.42
1.71
2.54
2.98
3.16
3.17
3.09
2.96
2.81
2.7
2.64
2.59
2.56
2.56
2.62
2.79
3.0
3.15
3.12
2.84
2.36
1.8
1.28
0.82
0.37
-0.16
-0.82
-1.51
-2.11
-2.47
-2.56
-2.47
-2.39
-2.5
-2.88
-3.5
-4.21
-4.82
-5.21
-5.36
-5.38
-5.5
-5.9
-6.71
-7.88
-9.22
-10.44
-11.24
-11.39
-10.84
-9.69
-8.14
-6.5
-5.02
-3.9
-3.2
-2.9
-2.84
-2.84
-2.67
-2.21
-1.42
-0.4
0.7
1.72
2.52
3.04
3.32
3.44
3.53
3.74
4.17
4.8
5.48
5.99
6.09
5.69
4.89
3.94
3.11
2.58
2.31
2.15
1.93
1.6
1.22
0.9
0.68
0.52
0.31
-0.02
-0.46
-0.91
-1.29
-1.65
-2.11
-2.87
-4.0
-5.46
-6.99
-8.27
-9.01
-9.04
-8.29
-6.86
-4.91
-2.69
-0.51
1.38
2.76
3.55
3.84
3.78
3.56
3.3
3.05
2.84
2.67
2.63
2.79
3.17
3.71
4.27
4.68
4.81
4.55
3.87
2.75
1.35
-0.1
-1.2
-1.57
-1.05
0.22
1.81
3.18
3.97
4.08
3.72
3.15
2.53
1.83
0.86
-0.52
-2.33
-4.49
-6.78
-9.0
-10.9
-12.26
-12.86
-12.56
-11.43
-9.75
-7.93
-6.39
-5.3
-4.6
-3.99
-3.16
-1.9
-0.27
1.48
3.08
4.3
5.12
5.61
5.88
6.01
5.98
5.77
5.36
4.79
4.2
3.73
3.53
3.71
4.31
5.23
6.33
7.42
8.35
9.02
9.41
9.56
9.45
9.08
8.4
7.43
6.28
5.12
4.15
3.51
3.19
3.08
3.02
2.84
2.48
1.93
1.24
0.46
-0.33
-1.05
-1.64
-2.05
-2.31
-2.58
-3.05
-3.9
-5.2
-6.83
-8.54
-9.99
-10.91
-11.19
-10.88
-10.09
-8.96
-7.58
-6.01
-4.34
-2.7
-1.27
-0.22
0.35
0.44
0.16
-0.35
-0.88
-1.3
-1.53
-1.58
-1.51
-1.36
-1.16
-0.85
-0.39
0.18
0.76
1.17
1.3
1.16
0.87
0.63
0.55
0.63
0.71
0.61
0.23
-0.44
-1.27
-2.14
-2.92
-3.6
-4.2
-4.74
-5.27
-5.78
-6.24
-6.63
-6.98
-7.34
-7.79
-8.38
-9.11
-9.92
-10.71
-11.36
-11.79
-11.92
-11.68
-11.04
-9.96
-8.45
-6.59
-4.5
-2.39
-0.47
1.1
2.26
3.01
3.38
3.42
3.16
2.66
2.05
1.55
1.36
1.63
2.34
3.36
4.43
5.35
6.05
6.57
7.0
7.35
7.6
7.66
7.48
7.08
6.54
5.9
5.19
4.4
3.53
2.65
1.85
1.23
0.82
0.53
0.24
-0.15
-0.65
-1.2
-1.76
-2.3
-2.89
-3.6
-4.47
-5.5
-6.67
-7.91
-9.17
-10.34
-11.24
-11.62
-11.23
-9.96
-7.89
-5.31
-2.61
-0.13
1.94
3.53
4.67
5.4
5.74
5.72
5.43
5.02
4.68
4.54
4.62
4.86
5.14
5.36
5.51
5.64
5.81
6.08
6.39
6.64
6.71
6.52
6.06
5.43
4.78
4.22
3.8
3.49
3.21
2.9
2.54
2.15
1.77
1.4
1.03
0.64
0.22
-0.19
-0.54
-0.85
-1.19
-1.69
-2.47
-3.6
-5.07
-6.77
-8.5
-10.05
-11.22
-11.84
-11.8
-11.0
-9.41
-7.06
-4.19
-1.13
1.66
3.8
5.09
5.58
5.48
5.11
4.67
4.25
3.86
3.51
3.24
3.14
3.31
3.74
4.3
4.84
5.22
5.33
5.13
4.65
3.96
3.15
2.35
1.67
1.18
0.92
0.83
0.84
0.81
0.62
0.16
-0.6
-1.61
-2.73
-3.76
-4.54
-5.02
-5.24
-5.37
-5.59
-6.08
-6.97
-8.28
-9.9
-11.62
-13.15
-14.14
-14.33
-13.56
-11.91
-9.6
-6.97
-4.36
-2.02
-0.07
1.49
2.74
3.75
4.55
5.14
5.54
5.81
6.04
6.35
6.81
7.43
8.12
8.84
9.52
10.13
10.63
10.96
11.02
10.72
10.07
9.17
8.19
7.31
6.64
6.16
5.79
5.43
5.01
4.48
3.85
3.14
2.38
1.59
0.79
-0.02
-0.92
-2.01
-3.43
-5.22
-7.3
-9.45
-11.35
-12.67
-13.18
-12.77
-11.42
-9.19
-6.2
-2.65
1.21
5.0
8.32
10.83
12.35
12.91
12.74
12.19
11.56
11.04
10.66
10.45
10.46
10.81
11.54
12.46
13.18
13.16
12.05
9.86
7.06
4.32
2.21
0.97
0.44
0.23
-0.0
-0.4
-0.91
-1.39
-1.8
-2.21
-2.77
-3.58
-4.6
-5.66
-6.53
-7.02
-7.15
-7.08
-7.15
-7.64
-8.7
-10.24
-12.02
-13.7
-15.04
-15.88
-16.21
-16.07
-15.49
-14.45
-12.88
-10.71
-7.92
-4.67
-1.23
2.04
4.77
6.73
7.87
8.32
8.34
8.17
7.97
7.81
7.69
7.64
7.71
7.96
8.42
9.06
9.8
10.49
10.98
11.16
10.96
10.4
9.56
8.55
7.47
6.41
5.37
4.36
3.36
2.44
1.68
1.15
0.84
0.62
0.29
-0.33
-1.31
-2.56
-3.9
-5.1
-6.04
-6.74
-7.3
-7.91
-8.7
-9.71
-10.95
-12.32
-13.69
-14.88
-15.75
-16.12
-15.82
-14.77
-12.94
-10.41
-7.4
-4.26
-1.36
0.98
2.56
3.4
3.68
3.67
3.64
3.74
4.01
4.34
4.6
4.69
4.63
4.54
4.62
4.97
5.6
6.33
6.96
7.28
7.19
6.69
5.86
4.82
3.67
2.5
1.38
0.41
-0.34
-0.81
-0.97
-0.89
-0.65
-0.37
-0.15
-0.07
-0.15
-0.35
-0.57
-0.77
-0.96
-1.21
-1.69
-2.52
-3.76
-5.38
-7.2
-9.03
-10.56
-11.52
-11.62
-10.71
-8.73
-5.85
-2.39
1.24
4.54
7.13
8.75
9.38
9.19
8.49
7.63
6.86
6.31
5.97
5.81
5.78
5.91
6.21
6.66
7.17
7.6
7.84
7.86
7.7
7.45
7.13
6.73
6.16
5.37
4.37
3.23
2.03
0.88
-0.16
-1.05
-1.8
-2.43
-3.01
-3.6
-4.24
-4.92
-5.59
-6.19
-6.72
-7.28
-8.02
-9.09
-10.53
-12.23
-13.92
-15.27
-15.91
-15.62
-14.29
-11.97
-8.88
-5.36
-1.82
1.35
3.87
5.61
6.62
7.09
7.2
7.1
6.88
6.58
6.28
6.09
6.09
6.33
6.7
7.02
7.12
6.9
6.42
5.81
5.21
4.68
4.2
3.67
3.05
2.29
1.46
0.63
-0.12
-0.69
-1.07
-1.23
-1.23
-1.1
-0.94
-0.82
-0.83
-0.99
-1.34
-1.86
-2.54
-3.33
-4.16
-5.01
-5.84
-6.7
-7.63
-8.66
-9.79
-10.85
-11.63
-11.9
-11.45
-10.24
-8.35
-5.99
-3.42
-0.94
1.25
2.97
4.12
4.69
4.74
4.42
3.93
3.47
3.16
3.08
3.21
3.51
3.89
4.28
4.6
4.78
4.8
4.65
4.39
4.07
3.76
3.47
3.18
2.79
2.23
1.42
0.37
-0.82
-2.0
-2.96
-3.6
-3.86
-3.85
-3.75
-3.73
-3.91
-4.25
-4.65
-5.01
-5.31
-5.67
-6.3
-7.42
-9.1
-11.16
-13.22
-14.82
-15.55
-15.2
-13.78
-11.47
-8.53
-5.24
-1.88
1.28
3.97
5.95
7.17
7.73
7.89
7.93
8.03
8.24
8.5
8.73
8.9
9.07
9.27
9.5
9.67
9.67
9.45
9.06
8.61
8.2
7.85
7.5
7.02
6.3
5.34
4.21
3.05
2.02
1.21
0.65
0.26
-0.04
-0.38
-0.83
-1.44
-2.21
-3.08
-4.02
-5.04
-6.17
-7.46
-8.87
-10.22
-11.24
-11.58
-11.0
-9.39
-6.87
-3.74
-0.45
2.53
4.85
6.33
7.01
7.13
7.0
6.88
6.9
7.03
7.12
7.0
6.62
6.04
5.43
4.99
4.87
5.1
5.59
6.15
6.56
6.62
6.25
5.48
4.47
3.4
2.49
1.81
1.39
1.1
0.8
0.38
-0.2
-0.87
-1.52
-2.09
-2.57
-3.03
-3.52
-4.06
-4.6
-5.14
-5.74
-6.49
-7.51
-8.79
-10.22
-11.59
-12.69
-13.32
-13.39
-12.8
-11.51
-9.55
-7.06
-4.31
-1.64
0.65
2.4
3.64
4.53
5.24
5.88
6.46
6.9
7.12
7.05
6.72
6.24
5.81
5.56
5.59
5.86
6.21
6.48
6.52
6.28
5.79
5.13
4.42
3.71
3.03
2.36
1.67
0.98
0.34
-0.22
-0.67
-1.05
-1.43
-1.89
-2.44
-3.04
-3.65
-4.24
-4.85
-5.56
-6.4
-7.31
-8.17
-8.85
-9.32
-9.65
-9.97
-10.32
-10.61
-10.66
-10.21
-9.09
-7.31
-5.05
-2.62
-0.39
1.35
2.47
2.96
2.99
2.8
2.59
2.46
2.45
2.5
2.53
2.55
2.57
2.67
2.88
3.15
3.39
3.46
3.29
2.91
2.47
2.14
2.08
2.28
2.59
2.8
2.73
2.29
1.56
0.69
-0.15
-0.84
-1.37
-1.76
-2.11
-2.46
-2.84
-3.23
-3.58
-3.9
-4.19
-4.46
-4.78
-5.16
-5.59
-6.06
-6.5
-6.82
-6.91
-6.6
-5.77
-4.36
-2.43
-0.16
2.2
4.38
6.2
7.59
8.57
9.14
9.35
9.23
8.86
8.36
7.9
7.62
7.53
7.58
7.63
7.57
7.37
7.08
6.74
6.36
5.9
5.29
4.52
3.67
2.85
2.13
1.52
0.98
0.44
-0.13
-0.67
-1.18
-1.63
-2.11
-2.68
-3.35
-4.09
-4.81
-5.46
-6.02
-6.58
-7.22
-8.01
-8.93
-9.95
-10.99
-11.97
-12.8
-13.4
-13.68
-13.56
-12.98
-11.91
-10.39
-8.51
-6.42
-4.33
-2.44
-0.85
0.46
1.55
2.53
3.4
4.11
4.54
4.61
4.4
4.09
3.95
4.2
4.9
5.95
7.09
8.03
8.54
8.55
8.09
7.34
6.53
5.88
5.52
5.49
5.69
5.94
6.02
5.78
5.2
4.38
3.51
2.76
2.2
1.79
1.44
1.03
0.51
-0.11
-0.78
-1.46
-2.14
-2.82
-3.49
-4.16
-4.8
-5.39
-5.95
-6.51
-7.14
-7.87
-8.78
-9.88
-11.11
-12.33
-13.28
-13.66
-13.21
-11.83
-9.61
-6.91
-4.2
-1.89
-0.25
0.67
1.03
1.08
1.06
1.1
1.29
1.59
1.98
2.39
2.75
2.98
3.07
3.04
3.01
3.1
3.4
3.89
4.48
4.99
5.28
5.3
5.05
4.59
3.96
3.18
2.26
1.27
0.3
-0.52
-1.11
-1.44
-1.6
-1.65
-1.68
-1.71
-1.8
-1.99
-2.34
-2.88
-3.58
-4.36
-5.14
-5.88
-6.57
-7.26
-7.99
-8.74
-9.54
-10.37
-11.24
-12.07
-12.69
-12.82
-12.15
-10.55
-8.1
-5.17
-2.24
0.23
1.99
3.03
3.56
3.86
4.17
4.6
5.14
5.74
6.37
7.03
7.72
8.4
8.95
9.26
9.26
9.04
8.78
8.68
8.84
9.17
9.44
9.41
8.91
7.89
6.45
4.75
2.97
1.3
-0.09
-1.06
-1.47
-1.34
-0.79
-0.07
0.55
0.81
0.55
-0.25
-1.51
-3.05
-4.63
-6.05
-7.19
-8.02
-8.63
-9.14
-9.63
-10.12
-10.58
-10.93
-11.05
-10.77
-9.91
-8.34
-6.07
-3.31
-0.46
2.02
3.77
4.65
4.82
4.57
4.25
4.14
4.34
4.79
5.35
5.9
6.39
6.86
7.39
8.01
8.66
9.16
9.31
9.01
8.34
7.53
6.85
6.45
6.34
6.32
6.19
5.83
5.22
4.45
3.63
2.82
2.06
1.36
0.73
0.19
-0.24
-0.59
-0.93
-1.33
-1.87
-2.58
-3.47
-4.48
-5.55
-6.59
-7.55
-8.42
-9.24
-10.07
-10.99
-12.01
-13.09
-14.13
-14.94
-15.31
-15.03
-13.9
-11.89
-9.12
-5.89
-2.65
0.21
2.43
3.92
4.77
5.15
5.25
5.24
5.22
5.27
5.4
5.57
5.74
5.88
6.03
6.21
6.46
6.76
7.02
7.12
7.01
6.71
6.35
6.03
5.76
5.48
5.07
4.47
3.72
2.92
2.16
1.49
0.87
0.19
-0.57
-1.39
-2.13
-2.65
-2.91
-2.98
-2.99
-3.13
-3.5
-4.1
-4.89
-5.76
-6.64
-7.54
-8.53
-9.67
-10.96
-12.31
-13.51
-14.34
-14.57
-14.09
-12.9
-11.15
-9.04
-6.8
-4.62
-2.66
-1.02
0.21
0.98
1.32
1.3
1.08
0.81
0.6
0.51
0.56
0.77
1.16
1.76
2.56
3.5
4.47
5.37
6.15
6.77
7.24
7.53
7.63
7.54
7.27
6.88
6.41
5.89
5.33
4.75
4.19
3.78
3.6
3.65
3.84
3.94
3.79
3.29
2.46
1.39
0.18
-1.13
-2.56
-4.15
-5.91
-7.76
-9.54
-11.04
-12.02
-12.3
-11.76
-10.39
-8.25
-5.56
-2.57
0.39
3.03
5.14
6.61
7.48
7.86
7.95
7.88
7.76
7.64
7.52
7.42
7.4
7.52
7.82
8.3
8.89
9.48
9.94
10.17
10.08
9.63
8.84
7.8
6.65
5.57
4.66
3.98
3.48
3.06
2.64
2.18
1.65
1.1
0.53
-0.04
-0.61
-1.2
-1.79
-2.4
-3.03
-3.72
-4.53
-5.53
-6.76
-8.23
-9.9
-11.7
-13.52
-15.2
-16.58
-17.46
-17.63
-16.92
-15.22
-12.56
-9.17
-5.39
-1.68
1.56
4.04
5.69
6.64
7.12
7.39
7.58
7.72
7.78
7.72
7.58
7.44
7.42
7.58
7.95
8.46
9.04
9.63
10.19
10.65
10.96
11.0
10.67
9.95
8.86
7.57
6.28
5.19
4.42
3.98
3.74
3.55
3.24
2.75
2.13
1.49
0.92
0.4
-0.13
-0.8
-1.66
-2.74
-3.98
-5.36
-6.82
-8.37
-9.98
-11.58
-13.09
-14.42
-15.49
-16.23
-16.58
-16.42
-15.61
-14.07
-11.81
-9.02
-6.0
-3.1
-0.63
1.25
2.48
3.11
3.27
3.14
2.89
2.67
2.6
2.7
2.97
3.35
3.8
4.34
4.96
5.66
6.37
6.97
7.32
7.34
7.05
6.57
6.0
5.42
4.81
4.08
3.18
2.12
1.01
-0.01
-0.82
-1.41
-1.87
-2.26
-2.65
-3.0
-3.3
-3.55
-3.77
-4.02
-4.3
-4.6
-4.88
-5.19
-5.62
-6.29
-7.26
-8.48
-9.74
-10.75
-11.19
-10.85
-9.63
-7.55
-4.76
-1.54
1.76
4.76
7.13
8.72
9.54
9.74
9.52
9.05
8.45
7.79
7.16
6.67
6.5
6.74
7.36
8.2
9.02
9.55
9.7
9.46
8.98
8.39
7.79
7.19
6.57
5.83
4.94
3.89
2.75
1.59
0.49
-0.53
-1.44
-2.23
-2.88
-3.4
-3.8
-4.14
-4.54
-5.1
-5.96
-7.13
-8.54
-10.07
-11.56
-12.91
-14.02
-14.82
-15.14
-14.8
-13.58
-11.39
-8.35
-4.84
-1.35
1.66
3.94
5.48
6.45
7.06
7.43
7.57
7.4
6.95
6.34
5.81
5.58
5.74
6.25
6.9
7.46
7.79
7.85
7.77
7.66
7.59
7.52
7.31
6.84
6.07
5.05
3.95
2.92
2.12
1.59
1.31
1.19
1.08
0.84
0.37
-0.33
-1.2
-2.09
-2.9
-3.61
-4.26
-5.01
-5.98
-7.25
-8.82
-10.58
-12.35
-13.89
-14.95
-15.26
-14.67
-13.12
-10.75
-7.81
-4.67
-1.7
0.8
2.63
3.78
4.33
4.46
4.35
4.16
3.99
3.9
3.92
4.07
4.34
4.68
4.98
5.17
5.17
4.99
4.66
4.27
3.87
3.49
3.13
2.77
2.37
1.92
1.44
0.93
0.43
-0.04
-0.52
-1.06
-1.73
-2.53
-3.39
-4.2
-4.82
-5.23
-5.52
-5.88
-6.48
-7.44
-8.72
-10.17
-11.57
-12.75
-13.51
-13.72
-13.2
-11.86
-9.69
-6.87
-3.71
-0.59
2.14
4.31
5.9
6.99
7.69
8.07
8.15
8.03
7.81
7.65
7.66
7.91
8.4
9.06
9.81
10.56
11.16
11.42
11.17
10.38
9.2
7.88
6.69
5.77
5.03
4.23
3.19
1.85
0.37
-1.0
-2.05
-2.73
-3.14
-3.53
-4.11
-5.02
-6.26
-7.75
-9.32
-10.8
-12.05
-12.98
-13.53
-13.56
-12.93
-11.47
-9.1
-5.96
-2.41
1.02
3.84
5.73
6.73
7.06
7.07
7.0
6.96
6.92
6.8
6.62
6.47
6.47
6.68
7.06
7.46
7.74
7.82
7.71
7.49
7.2
6.87
6.48
5.97
5.34
4.53
3.56
2.43
1.18
-0.07
-1.19
-2.06
-2.64
-3.01
-3.27
-3.58
-4.0
-4.55
-5.25
-6.12
-7.2
-8.53
-10.05
-11.68
-13.26
-14.59
-15.45
-15.61
-14.88
-13.13
-10.42
-6.99
-3.29
0.18
3.04
5.06
6.3
6.93
7.17
7.18
7.05
6.8
6.48
6.17
5.96
5.93
6.11
6.44
6.84
7.25
7.62
7.95
8.19
8.24
8.04
7.53
6.74
5.77
4.73
3.66
2.54
1.37
0.16
-0.98
-1.9
-2.52
-2.87
-3.08
-3.29
-3.58
-3.96
-4.39
-4.87
-5.49
-6.38
-7.59
-9.1
-10.75
-12.3
-13.5
-14.1
-13.9
-12.81
-10.87
-8.26
-5.28
-2.25
0.54
2.88
4.69
5.95
6.68
6.93
6.83
6.51
6.1
5.7
5.38
5.15
5.0
4.99
5.12
5.41
5.75
5.97
5.88
5.38
4.5
3.43
2.41
1.61
1.06
0.62
0.1
-0.63
-1.58
-2.62
-3.59
-4.34
-4.88
-5.25
-5.57
-5.97
-6.51
-7.24
-8.15
-9.17
-10.17
-10.91
-11.08
-10.43
-8.81
-6.29
-3.12
0.3
3.54
6.23
8.14
9.23
9.63
9.59
9.37
9.2
9.14
9.2
9.32
9.45
9.58
9.72
9.88
10.0
9.98
9.7
9.07
8.05
6.76
5.37
4.05
2.91
1.95
1.06
0.08
-1.06
-2.3
-3.51
-4.53
-5.29
-5.86
-6.42
-7.17
-8.2
-9.45
-10.72
-11.73
-12.23
-12.08
-11.23
-9.74
-7.75
-5.4
-2.92
-0.5
1.66
3.4
4.69
5.58
6.19
6.64
6.96
7.11
7.05
6.77
6.36
6.02
5.95
6.25
6.91
7.77
8.55
8.97
8.83
8.07
6.77
5.17
3.49
1.96
0.71
-0.26
-0.98
-1.56
-2.07
-2.6
-3.21
-3.96
-4.88
-5.96
-7.16
-8.38
-9.52
-10.44
-11.02
-11.2
-10.92
-10.18
-8.96
-7.3
-5.22
-2.9
-0.53
1.61
3.34
4.61
5.5
6.13
6.63
7.02
7.23
7.2
6.94
6.57
6.28
6.21
6.38
6.72
7.08
7.31
7.32
7.06
6.49
5.61
4.43
3.02
1.53
0.14
-0.99
-1.79
-2.31
-2.66
-2.97
-3.36
-3.89
-4.62
-5.57
-6.77
-8.15
-9.57
-10.88
-11.87
-12.42
-12.47
-12.0
-10.97
-9.39
-7.35
-5.01
-2.67
-0.62
0.93
1.92
2.47
2.79
3.03
3.28
3.52
3.67
3.7
3.61
3.5
3.43
3.47
3.6
3.74
3.8
3.71
3.46
3.08
2.62
2.08
1.48
0.79
0.02
-0.8
-1.62
-2.35
-2.92
-3.28
-3.42
-3.43
-3.44
-3.61
-4.1
-4.97
-6.13
-7.41
-8.56
-9.31
-9.45
-8.86
-7.52
-5.55
-3.17
-0.69
1.56
3.33
4.5
5.12
5.34
5.38
5.46
5.65
5.96
6.31
6.61
6.8
6.86
6.83
6.75
6.66
6.58
6.48
6.32
6.06
5.65
5.09
4.44
3.71
2.97
2.23
1.51
0.8
0.1
-0.6
-1.32
-2.08
-2.9
-3.77
-4.64
-5.44
-6.06
-6.44
-6.53
-6.31
-5.78
-4.98
-3.94
-2.75
-1.53
-0.4
0.52
1.16
1.54
1.77
1.95
2.19
2.54
2.95
3.35
3.67
3.87
4.0
4.1
4.21
4.31
4.39
4.41
4.41
4.44
4.51
4.58
4.51
4.17
3.55
2.75
1.95
1.33
0.92
0.68
0.47
0.24
-0.02
-0.21
-0.28
-0.24
-0.25
-0.46
-0.99
-1.82
-2.82
-3.77
-4.52
-5.03
-5.39
-5.79
-6.41
-7.33
-8.47
-9.59
-10.44
-10.78
-10.55
-9.81
-8.68
-7.28
-5.72
-4.07
-2.47
-1.11
-0.14
0.42
0.66
0.82
1.13
1.69
2.44
3.23
3.87
4.22
4.29
4.12
3.85
3.59
3.44
3.47
3.66
3.98
4.27
4.4
4.24
3.77
3.09
2.34
1.69
1.23
1.01
1.01
1.14
1.3
1.38
1.22
0.74
-0.09
-1.17
-2.31
-3.24
-3.77
-3.87
-3.68
-3.48
-3.55
-4.02
-4.9
-6.01
-7.15
-8.15
-8.88
-9.26
-9.24
-8.77
-7.87
-6.62
-5.22
-3.89
-2.83
-2.15
-1.83
-1.77
-1.84
-1.94
-1.99
-1.97
-1.88
-1.72
-1.5
-1.25
-0.95
-0.58
-0.11
0.44
1.02
1.51
1.8
1.82
1.59
1.18
0.71
0.27
-0.13
-0.53
-0.97
-1.43
-1.86
-2.14
-2.16
-1.91
-1.42
-0.85
-0.34
-0.05
-0.04
-0.34
-0.87
-1.52
-2.13
-2.57
-2.76
-2.68
-2.43
-2.11
-1.82
-1.55
-1.24
-0.77
-0.11
0.69
1.47
2.06
2.37
2.44
2.41
2.43
2.59
2.85
3.14
3.38
3.49
3.52
3.49
3.46
3.44
3.39
3.24
2.94
2.45
1.78
1.04
0.35
-0.2
-0.57
-0.8
-0.99
-1.2
-1.46
-1.77
-2.11
-2.47
-2.88
-3.37
-3.97
-4.64
-5.32
-5.95
-6.44
-6.74
-6.81
-6.61
-6.09
-5.21
-3.98
-2.5
-0.94
0.47
1.51
2.06
2.18
2.01
1.75
1.55
1.47
1.49
1.6
1.77
2.02
2.35
2.7
2.97
3.06
2.88
2.45
1.86
1.25
0.75
0.44
0.32
0.33
0.32
0.19
-0.15
-0.69
-1.37
-2.09
-2.79
-3.43
-3.99
-4.47
-4.89
-5.25
-5.53
-5.74
-5.81
-5.62
-5.04
-3.98
-2.49
-0.77
0.84
2.01
2.57
2.53
2.14
1.72
1.58
1.82
2.32
2.81
3.05
2.91
2.51
2.1
1.89
1.99
2.32
2.67
2.86
2.77
2.43
1.9
1.27
0.57
-0.16
-0.89
-1.58
-2.21
-2.8
-3.4
-4.07
-4.79
-5.54
-6.26
-6.84
-7.21
-7.26
-6.9
-6.13
-5.0
-3.71
-2.49
-1.59
-1.12
-1.06
-1.27
-1.59
-1.88
-2.1
-2.3
-2.55
-2.84
-3.14
-3.35
-3.39
-3.21
-2.82
-2.28
-1.66
-1.04
-0.51
-0.14
0.01
-0.04
-0.19
-0.31
-0.33
-0.28
-0.27
-0.44
-0.85
-1.46
-2.11
-2.67
-3.04
-3.2
-3.18
-2.96
-2.47
-1.66
-0.47
1.02
2.66
4.24
5.56
6.44
6.8
6.66
6.13
5.43
4.76
4.27
4.03
4.01
4.13
4.28
4.39
4.42
4.3
3.99
3.45
2.69
1.79
0.87
0.08
-0.53
-0.98
-1.37
-1.83
-2.43
-3.17
-3.96
-4.67
-5.21
-5.56
-5.69
-5.58
-5.16
-4.38
-3.23
-1.82
-0.32
1.05
2.17
3.01
3.58
3.96
4.21
4.37
4.5
4.64
4.82
5.07
5.36
5.63
5.82
5.93
5.99
6.03
6.07
6.05
5.87
5.46
4.8
3.93
2.99
2.1
1.35
0.74
0.22
-0.33
-1.0
-1.82
-2.75
-3.67
-4.43
-4.84
-4.8
-4.29
-3.34
-2.08
-0.65
0.82
2.19
3.34
4.16
4.56
4.56
4.32
4.07
4.05
4.35
4.87
5.41
5.76
5.81
5.65
5.46
5.4
5.52
5.72
5.84
5.79
5.6
5.37
5.2
5.1
4.94
4.56
3.9
2.99
2.0
1.13
0.48
0.03
-0.33
-0.76
-1.38
-2.23
-3.3
-4.52
-5.75
-6.79
-7.46
-7.6
-7.19
-6.34
-5.23
-4.06
-2.96
-1.94
-0.94
0.07
1.06
1.89
2.44
2.65
2.58
2.38
2.25
2.3
2.57
2.98
3.43
3.81
4.1
4.28
4.38
4.35
4.17
3.8
3.22
2.51
1.74
0.99
0.28
-0.37
-0.97
-1.53
-2.01
-2.41
-2.74
-3.03
-3.34
-3.7
-4.1
-4.53
-4.95
-5.29
-5.47
-5.43
-5.1
-4.46
-3.55
-2.48
-1.39
-0.42
0.32
0.76
0.89
0.78
0.56
0.39
0.42
0.68
1.15
1.69
2.22
2.72
3.25
3.91
4.7
5.52
6.16
6.38
6.12
5.46
4.65
3.96
3.51
3.29
3.13
2.86
2.38
1.72
0.94
0.17
-0.55
-1.17
-1.65
-1.94
-1.99
-1.78
-1.34
-0.73
-0.01
0.78
1.61
2.42
3.1
3.5
3.55
3.23
2.68
2.13
1.76
1.68
1.84
2.07
2.22
2.21
2.05
1.88
1.81
1.92
2.13
2.31
2.33
2.12
1.71
1.22
0.78
0.46
0.26
0.1
-0.15
-0.53
-0.99
-1.42
-1.7
-1.78
-1.73
-1.69
-1.84
-2.24
-2.85
-3.51
-4.1
-4.57
-4.95
-5.35
-5.82
-6.3
-6.64
-6.7
-6.43
-5.92
-5.27
-4.59
-3.89
-3.1
-2.19
-1.2
-0.29
0.38
0.71
0.78
0.75
0.8
1.02
1.33
1.59
1.64
1.43
1.04
0.65
0.44
0.51
0.87
1.41
1.93
2.28
2.35
2.15
1.76
1.28
0.81
0.38
-0.02
-0.42
-0.86
-1.29
-1.67
-1.9
-1.94
-1.8
-1.56
-1.36
-1.31
-1.49
-1.91
-2.49
-3.15
-3.84
-4.49
-5.09
-5.56
-5.83
-5.82
-5.48
-4.85
-4.0
-3.06
-2.16
-1.39
-0.81
-0.43
-0.24
-0.17
-0.1
0.1
0.55
1.25
2.11
2.94
3.52
3.73
3.55
3.15
2.73
2.48
2.51
2.73
2.98
3.11
3.04
2.79
2.41
1.96
1.41
0.75
-0.01
-0.82
-1.58
-2.19
-2.63
-2.88
-2.97
-2.91
-2.71
-2.4
-2.06
-1.82
-1.81
-2.08
-2.56
-3.13
-3.67
-4.06
-4.27
-4.3
-4.13
-3.78
-3.23
-2.5
-1.63
-0.72
0.12
0.78
1.17
1.25
1.03
0.62
0.16
-0.17
-0.28
-0.19
-0.03
0.06
-0.03
-0.28
-0.62
-0.96
-1.26
-1.51
-1.72
-1.9
-2.02
-2.1
-2.22
-2.52
-3.12
-4.03
-5.13
-6.19
-6.97
-7.35
-7.33
-7.01
-6.47
-5.79
-5.02
-4.17
-3.35
-2.69
-2.32
-2.35
-2.71
-3.31
-3.95
-4.47
-4.76
-4.72
-4.3
-3.47
-2.23
-0.68
1.0
2.58
3.79
4.52
4.75
4.62
4.34
4.12
4.09
4.3
4.67
5.06
5.33
5.39
5.26
5.09
5.05
5.25
5.64
6.09
6.44
6.55
6.41
6.05
5.57
5.04
4.53
4.11
3.85
3.77
3.84
3.92
3.87
3.59
3.09
2.43
1.71
1.01
0.32
-0.4
-1.14
-1.89
-2.55
-3.09
-3.53
-3.96
-4.52
-5.32
-6.39
-7.61
-8.83
-9.85
-10.52
-10.76
-10.52
-9.83
-8.8
-7.57
-6.29
-5.04
-3.86
-2.71
-1.55
-0.41
0.61
1.4
1.92
2.28
2.67
3.27
4.1
5.03
5.83
6.32
6.47
6.4
6.31
6.31
6.4
6.46
6.4
6.18
5.86
5.56
5.36
5.25
5.15
4.95
4.57
4.03
3.43
2.89
2.51
2.3
2.17
1.95
1.48
0.67
-0.4
-1.56
-2.59
-3.32
-3.74
-3.99
-4.25
-4.72
-5.47
-6.46
-7.6
-8.76
-9.87
-10.86
-11.69
-12.25
-12.41
-12.06
-11.15
-9.76
-8.06
-6.32
-4.78
-3.58
-2.72
-2.12
-1.6
-1.07
-0.47
0.14
0.68
1.07
1.32
1.46
1.62
1.89
2.31
2.85
3.4
3.85
4.08
4.07
3.82
3.4
2.88
2.29
1.7
1.16
0.78
0.61
0.69
0.97
1.36
1.76
2.08
2.26
2.25
2.03
1.61
1.05
0.47
-0.0
-0.29
-0.45
-0.63
-1.06
-1.89
-3.14
-4.63
-6.06
-7.07
-7.41
-6.95
-5.76
-4.0
-1.93
0.22
2.28
4.09
5.59
6.71
7.44
7.79
7.87
7.8
7.74
7.79
7.97
8.25
8.53
8.76
8.97
9.21
9.51
9.84
10.04
9.98
9.55
8.81
7.93
7.1
6.45
5.95
5.52
5.06
4.57
4.17
3.94
3.93
4.0
3.98
3.68
3.06
2.2
1.25
0.36
-0.39
-1.02
-1.59
-2.15
-2.76
-3.49
-4.35
-5.41
-6.68
-8.16
-9.78
-11.43
-12.88
-13.92
-14.3
-13.92
-12.83
-11.2
-9.28
-7.21
-5.06
-2.85
-0.67
1.3
2.82
3.72
4.05
4.06
4.12
4.49
5.2
6.1
6.96
7.67
8.25
8.82
9.45
10.09
10.59
10.79
10.65
10.24
9.71
9.2
8.79
8.44
8.09
7.64
7.06
6.33
5.49
4.63
3.86
3.29
2.98
2.87
2.85
2.73
2.38
1.74
0.84
-0.24
-1.38
-2.49
-3.54
-4.51
-5.45
-6.41
-7.46
-8.67
-10.02
-11.42
-12.65
-13.45
-13.6
-12.99
-11.67
-9.81
-7.66
-5.45
-3.31
-1.31
0.46
1.92
2.95
3.5
3.65
3.6
3.63
3.92
4.5
5.24
5.96
6.54
6.99
7.38
7.74
8.05
8.22
8.16
7.85
7.35
6.77
6.14
5.44
4.61
3.65
2.62
1.66
0.88
0.31
-0.05
-0.27
-0.41
-0.54
-0.72
-0.99
-1.38
-1.87
-2.43
-3.03
-3.67
-4.42
-5.36
-6.52
-7.88
-9.32
-10.68
-11.8
-12.56
-12.85
-12.6
-11.75
-10.29
-8.36
-6.18
-4.03
-2.12
-0.52
0.82
2.04
3.22
4.35
5.31
5.98
6.33
6.45
6.54
6.8
7.32
8.07
8.95
9.84
10.63
11.28
11.73
11.89
11.69
11.06
10.04
8.77
7.44
6.21
5.14
4.23
3.4
2.61
1.86
1.22
0.74
0.41
0.18
-0.06
-0.45
-1.06
-1.88
-2.81
-3.69
-4.38
-4.85
-5.19
-5.61
-6.32
-7.42
-8.79
-10.14
-11.13
-11.47
-11.08
-10.05
-8.53
-6.67
-4.61
-2.45
-0.37
1.42
2.71
3.45
3.72
3.77
3.87
4.18
4.72
5.36
5.96
6.38
6.58
6.58
6.41
6.18
6.0
5.98
6.21
6.64
7.08
7.26
6.93
6.05
4.75
3.34
2.13
1.31
0.88
0.7
0.58
0.35
-0.06
-0.65
-1.4
-2.27
-3.18
-4.04
-4.72
-5.13
-5.28
-5.26
-5.27
-5.49
-6.05
-6.99
-8.22
-9.52
-10.61
-11.24
-11.24
-10.59
-9.42
-7.93
-6.34
-4.76
-3.19
-1.61
-0.03
1.4
2.53
3.2
3.44
3.43
3.42
3.61
4.05
4.59
5.04
5.22
5.1
4.82
4.56
4.49
4.62
4.85
5.03
5.02
4.79
4.39
3.9
3.38
2.84
2.22
1.52
0.78
0.11
-0.34
-0.49
-0.36
-0.09
0.07
-0.05
-0.58
-1.51
-2.68
-3.9
-4.95
-5.71
-6.17
-6.46
-6.78
-7.35
-8.27
-9.52
-10.92
-12.23
-13.18
-13.58
-13.34
-12.47
-11.09
-9.35
-7.38
-5.33
-3.33
-1.53
-0.05
1.0
1.59
1.78
1.73
1.65
1.77
2.17
2.82
3.54
4.16
4.56
4.77
4.87
4.99
5.16
5.3
5.31
5.12
4.77
4.34
3.93
3.55
3.13
2.48
1.53
0.31
-0.98
-2.05
-2.67
-2.8
-2.56
-2.22
-2.04
-2.18
-2.65
-3.35
-4.16
-4.97
-5.7
-6.35
-6.91
-7.45
-8.04
-8.78
-9.73
-10.8
-11.79
-12.4
-12.39
-11.64
-10.22
-8.37
-6.31
-4.27
-2.37
-0.73
0.57
1.44
1.9
2.07
2.13
2.3
2.7
3.29
4.0
4.69
5.32
5.88
6.41
6.86
7.19
7.31
7.2
6.9
6.47
5.99
5.49
4.98
4.46
3.93
3.4
2.88
2.32
1.74
1.15
0.63
0.22
-0.09
-0.43
-0.96
-1.84
-3.06
-4.48
-5.9
-7.13
-8.07
-8.72
-9.08
-9.11
-8.67
-7.61
-5.89
-3.65
-1.23
0.92
2.38
2.96
2.72
1.95
1.07
0.44
0.31
0.68
1.4
2.24
3.02
3.68
4.28
4.9
5.59
6.29
6.9
7.29
7.42
7.34
7.13
6.86
6.58
6.23
5.76
5.1
4.27
3.31
2.26
1.2
0.13
-0.93
