0
-57.35
-43.83
-30.44
-18.49
-8.63
-0.86
5.16
9.84
13.53
16.44
18.79
20.78
22.61
24.38
26.1
27.63
28.83
29.61
29.98
30.09
30.1
30.17
30.31
30.42
30.22
29.35
27.53
24.65
20.93
16.82
12.84
9.35
6.37
3.62
0.66
-2.8
-6.79
-11.02
-15.09
-18.74
-21.87
-24.71
-27.66
-31.27
-36.06
-42.33
-49.89
-57.93
-65.0
-69.37
-69.6
-65.05
-56.15
-44.23
-31.07
-18.3
-7.03
2.35
9.92
15.98
20.81
24.58
27.33
29.13
30.21
30.93
31.69
32.75
34.08
35.45
36.48
36.94
36.83
36.4
35.95
35.62
35.33
34.75
33.47
31.18
27.78
23.46
18.62
13.78
9.45
5.91
3.12
0.71
-1.9
-5.24
-9.49
-14.47
-19.76
-24.87
-29.54
-33.8
-37.95
-42.41
-47.65
-54.06
-61.78
-70.45
-79.1
-86.17
-89.92
-88.93
-82.74
-72.06
-58.58
-44.4
-31.25
-20.07
-10.86
-2.99
4.3
11.46
18.53
25.17
31.0
35.85
39.78
43.06
45.9
48.32
50.14
51.11
51.11
50.25
48.89
47.43
46.18
45.2
44.33
43.27
41.67
39.33
36.23
32.57
28.72
25.05
21.78
18.91
16.17
13.22
9.72
5.55
0.79
-4.31
-9.43
-14.36
-18.97
-23.3
-27.52
-31.87
-36.69
-42.39
-49.25
-57.25
-65.85
-73.91
-79.81
-81.92
-79.17
-71.53
-60.11
-46.72
-33.34
-21.3
-11.08
-2.41
5.34
12.62
19.54
25.91
31.46
36.06
39.75
42.7
45.07
46.97
48.44
49.48
50.1
50.33
50.24
49.97
49.65
49.4
49.21
48.93
48.27
46.96
44.86
42.05
38.79
35.43
32.24
29.41
26.87
24.45
21.87
18.89
15.31
11.1
6.36
1.33
-3.78
-8.75
-13.52
-18.15
-22.82
-27.81
-33.48
-40.12
-47.87
-56.4
-64.85
-71.83
-75.83
-75.68
-71.08
-62.73
-52.07
-40.8
-30.27
-21.18
-13.62
-7.29
-1.81
3.1
7.56
11.59
15.17
18.24
20.78
22.7
24.03
24.78
25.04
24.9
24.52
24.01
23.53
23.1
22.61
21.85
20.55
18.6
16.11
13.46
11.07
9.18
7.75
6.45
4.78
2.39
-0.78
-4.51
-8.34
-11.87
-14.87
-17.4
-19.77
-22.45
-25.89
-30.4
-35.98
-42.2
-48.22
-52.84
-54.86
-53.41
-48.28
-40.09
-30.05
-19.64
-10.06
-1.94
4.74
10.44
15.69
20.72
25.42
29.41
32.4
34.35
35.5
36.3
37.08
37.96
38.79
39.34
39.42
39.01
38.29
37.46
36.63
35.77
34.68
33.06
30.68
27.49
23.68
19.69
16.03
13.07
10.87
9.07
7.06
4.23
0.29
-4.62
-9.94
-14.95
-19.08
-22.14
-24.42
-26.54
-29.25
-33.16
-38.63
-45.62
-53.71
-62.07
-69.49
-74.58
-76.08
-73.23
-66.11
-55.71
-43.63
-31.67
-21.17
-12.67
-5.94
-0.23
5.26
11.06
17.21
23.37
29.07
33.88
37.61
40.25
41.98
43.0
43.55
43.76
43.73
43.51
43.16
42.71
42.22
41.66
40.9
39.75
38.03
35.69
32.91
30.02
27.38
25.17
23.3
21.45
19.28
16.61
13.51
10.2
6.87
3.53
0.01
-3.92
-8.37
-13.21
-18.14
-22.78
-26.86
-30.32
-33.38
-36.47
-40.14
-44.9
-50.98
-58.09
-65.35
-71.41
-74.79
-74.37
-69.74
-61.43
-50.66
-39.0
-27.86
-18.11
-9.97
-3.14
2.97
8.89
14.8
20.62
26.04
30.73
34.52
37.41
39.53
41.07
42.14
42.78
43.04
43.0
42.8
42.6
42.5
42.48
42.35
41.81
40.57
38.5
35.74
32.63
29.68
27.23
25.33
23.71
21.89
19.43
16.2
12.33
8.24
4.36
0.94
-2.01
-4.74
-7.6
-10.91
-14.73
-18.94
-23.2
-27.16
-30.63
-33.67
-36.56
-39.73
-43.59
-48.4
-54.21
-60.75
-67.39
-73.13
-76.77
-77.19
-73.78
-66.76
-57.11
-46.23
-35.53
-25.93
-17.73
-10.78
-4.76
0.6
5.41
9.73
13.59
17.08
20.31
23.28
25.96
28.25
30.09
31.39
32.1
32.25
31.94
31.39
30.79
30.25
29.7
28.87
27.43
25.22
22.37
19.27
16.45
14.27
12.77
11.66
10.44
8.59
5.81
2.1
-2.28
-6.86
-11.17
-14.88
-17.92
-20.56
-23.29
-26.67
-31.17
-36.99
-43.98
-51.49
-58.46
-63.55
-65.44
-63.3
-57.12
-47.77
-36.78
-25.78
-16.01
-7.96
-1.49
3.89
8.66
13.09
17.25
21.07
24.54
27.68
30.46
32.83
34.67
35.9
36.53
36.72
36.68
36.66
36.8
37.12
37.54
37.89
37.91
37.36
36.1
34.09
31.53
28.73
25.98
23.47
21.18
18.88
16.33
13.36
10.06
6.67
3.46
0.55
-2.17
-4.99
-8.26
-12.16
-16.63
-21.38
-26.0
-30.2
-33.94
-37.41
-40.97
-45.06
-50.06
-56.18
-63.37
-71.09
-78.26
-83.42
-85.09
-82.27
-74.98
-64.21
-51.71
-39.36
-28.48
-19.53
-12.21
-5.78
0.45
6.84
13.33
19.63
25.41
30.5
34.85
38.54
41.64
44.17
46.06
47.27
47.89
48.15
48.33
48.65
49.12
49.47
49.3
48.24
46.19
43.4
40.32
37.51
35.3
33.75
32.59
31.43
29.89
27.68
24.75
21.18
17.24
13.3
9.7
6.65
4.05
1.57
-1.29
-4.93
-9.47
-14.64
-19.97
-24.97
-29.41
-33.35
-37.15
-41.31
-46.31
-52.46
-59.72
-67.61
-75.05
-80.6
-82.77
-80.58
-73.94
-63.73
-51.51
-38.97
-27.44
-17.58
-9.43
-2.63
3.29
8.65
13.62
18.2
22.39
26.19
29.64
32.82
35.76
38.36
40.47
41.85
42.36
42.08
41.25
40.2
39.24
38.45
37.65
36.52
34.72
32.12
28.83
25.16
21.48
18.05
14.94
12.11
9.45
6.81
4.07
1.08
-2.33
-6.26
-10.64
-15.2
-19.58
-23.46
-26.8
-29.85
-33.11
-37.12
-42.27
-48.62
-55.79
-62.97
-68.98
-72.47
-72.29
-67.84
-59.39
-48.06
-35.45
-23.17
-12.3
-3.28
4.07
10.17
15.38
19.9
23.74
26.89
29.39
31.37
33.05
34.61
36.17
37.72
39.16
40.35
41.21
41.76
42.12
42.32
42.28
41.7
40.22
37.58
33.81
29.29
24.6
20.32
16.75
13.87
11.38
8.85
5.91
2.33
-1.89
-6.59
-11.44
-16.07
-20.19
-23.75
-26.97
-30.34
-34.47
-39.91
-46.96
-55.45
-64.71
-73.52
-80.31
-83.48
-81.9
-75.33
-64.61
-51.38
-37.61
-24.92
-14.21
-5.57
1.51
7.72
13.6
19.38
25.01
30.22
34.73
38.34
41.02
42.93
44.29
45.24
45.82
45.97
45.62
44.94
44.23
43.8
43.79
44.02
44.06
43.41
41.75
39.04
35.52
31.59
27.64
23.99
20.75
17.85
15.04
11.94
8.25
3.84
-1.18
-6.5
-11.76
-16.72
-21.27
-25.41
-29.34
-33.29
-37.68
-43.02
-49.73
-57.88
-66.92
-75.54
-81.94
-84.4
-81.82
-74.24
-62.76
-49.25
-35.61
-23.29
-12.89
-4.33
2.89
9.24
15.05
20.39
25.3
29.87
34.25
38.55
42.69
46.44
49.47
51.55
52.68
53.05
52.93
52.59
52.17
51.73
51.19
50.45
49.3
47.58
45.16
42.15
38.84
35.58
32.64
30.0
27.42
24.56
21.24
17.55
13.78
10.23
6.94
3.72
0.18
-3.95
-8.71
-13.82
-18.86
-23.45
-27.41
-30.91
-34.35
-38.21
-42.92
-48.74
-55.66
-63.28
-70.74
-76.74
-79.82
-78.67
-72.72
-62.38
-49.11
-34.91
-21.73
-10.83
-2.43
3.96
9.22
14.02
18.67
23.1
27.13
30.66
33.7
36.36
38.68
40.54
41.75
42.09
41.5
40.16
38.46
36.87
35.76
35.24
35.02
34.57
33.31
30.88
27.33
23.07
18.66
14.6
11.09
8.07
5.33
2.57
-0.44
-3.8
-7.51
-11.47
-15.49
-19.37
-23.03
-26.49
-29.98
-33.81
-38.3
-43.72
-50.08
-57.01
-63.64
-68.66
-70.64
-68.47
-61.84
-51.47
-38.89
-25.91
-13.97
-3.85
4.37
11.02
16.46
20.88
24.33
26.84
28.56
29.83
31.0
32.4
34.16
36.16
38.1
39.59
40.28
40.09
39.19
38.0
36.93
36.14
35.48
34.49
32.73
29.98
26.36
22.35
18.45
15.05
12.2
9.65
7.01
3.89
0.09
-4.38
-9.3
-14.34
-19.15
-23.54
-27.54
-31.37
-35.46
-40.26
-46.18
-53.39
-61.68
-70.26
-77.78
-82.54
-83.01
-78.35
-68.86
-55.94
-41.68
-28.06
-16.42
-7.08
0.39
6.76
12.7
18.5
24.14
29.41
34.08
37.98
41.06
43.32
44.85
45.79
46.31
46.59
46.81
47.1
47.48
47.9
48.14
47.89
46.87
44.95
42.26
39.12
35.89
32.79
29.85
26.88
23.68
20.21
16.61
13.12
9.86
6.77
3.56
-0.08
-4.37
-9.19
-14.21
-19.04
-23.36
-27.14
-30.6
-34.08
-37.99
-42.67
-48.34
-55.05
-62.5
-69.93
-76.07
-79.38
-78.48
-72.73
-62.53
-49.33
-35.07
-21.61
-10.08
-0.74
6.81
13.26
19.18
24.83
30.2
35.17
39.57
43.34
46.43
48.83
50.58
51.77
52.5
52.93
53.2
53.34
53.36
53.21
52.74
51.78
50.18
47.78
44.59
40.74
36.52
32.23
28.11
24.2
20.42
16.63
12.82
9.09
5.65
2.68
0.14
-2.2
-4.71
-7.68
-11.17
-15.0
-18.83
-22.32
-25.3
-27.82
-30.17
-32.78
-36.08
-40.43
-45.85
-51.86
-57.52
-61.54
-62.61
-59.92
-53.37
-43.7
-32.24
-20.5
-9.77
-0.81
6.17
11.38
15.23
18.08
20.2
21.7
22.67
23.28
23.72
24.17
24.73
25.3
25.67
25.64
25.18
24.41
23.59
22.91
22.39
21.85
20.95
19.38
16.88
13.39
9.08
4.34
-0.31
-4.42
-7.72
-10.37
-12.8
-15.59
-19.08
-23.26
-27.7
-31.83
-35.24
-37.8
-39.77
-41.58
-43.77
-46.77
-50.86
-55.94
-61.46
-66.35
-69.2
-68.79
-64.45
-56.46
-45.93
-34.4
-23.28
-13.4
-4.95
2.34
8.82
14.68
19.86
24.21
27.61
30.11
31.9
33.27
34.44
35.5
36.43
37.08
37.27
36.89
35.92
34.39
32.35
29.87
27.03
23.95
20.77
17.62
14.59
11.69
8.89
6.21
3.73
1.57
-0.22
-1.71
-3.05
-4.49
-6.22
-8.38
-11.03
-14.13
-17.56
-21.12
-24.57
-27.76
-30.66
-33.52
-36.73
-40.7
-45.73
-51.89
-58.86
-65.89
-71.84
-75.32
-75.09
-70.51
-61.85
-50.35
-37.8
-25.89
-15.66
-7.33
-0.43
5.68
11.43
16.91
22.01
26.65
30.86
34.77
38.49
41.95
44.96
47.25
48.63
49.09
48.81
48.06
47.2
46.49
46.05
45.81
45.53
44.92
43.73
41.9
39.56
36.95
34.29
31.63
28.88
25.92
22.72
19.37
16.1
13.11
10.48
8.06
5.57
2.65
-0.96
-5.22
-9.88
-14.48
-18.64
-22.18
-25.23
-28.18
-31.49
-35.59
-40.67
-46.6
-52.91
-58.67
-62.67
-63.61
-60.58
-53.39
-42.78
-30.22
-17.37
-5.55
4.62
13.2
20.58
27.11
32.91
37.85
41.78
44.69
46.69
48.04
48.94
49.54
49.87
49.93
49.7
49.12
48.2
46.98
45.57
44.07
42.5
40.78
38.7
36.06
32.78
28.98
24.95
21.01
17.34
13.95
10.68
7.39
3.97
0.49
-2.92
-6.2
-9.35
-12.52
-15.91
-19.65
-23.79
-28.21
-32.74
-37.2
-41.53
-45.79
-50.21
-55.05
-60.62
-67.04
-74.14
-81.3
-87.45
-91.26
-91.53
-87.6
-79.66
-68.77
-56.52
-44.49
-33.77
-24.75
-17.23
-10.74
-4.94
0.31
4.92
8.8
12.01
14.76
17.34
19.9
22.39
24.6
26.32
27.43
28.0
28.28
28.56
29.02
29.68
30.28
30.42
29.73
28.05
25.53
22.62
19.84
17.55
15.76
14.14
12.17
9.49
6.01
1.98
-2.14
-5.95
-9.25
-12.11
-14.82
-17.81
-21.51
-26.28
-32.31
-39.39
-46.84
-53.47
-57.85
-58.7
-55.34
-48.01
-37.82
-26.41
-15.34
-5.73
2.1
8.37
13.63
18.3
22.58
26.37
29.49
31.86
33.54
34.75
35.71
36.61
37.55
38.53
39.51
40.41
41.07
41.34
41.14
40.44
39.26
37.69
35.77
33.53
30.97
28.14
25.14
22.08
19.07
16.12
13.26
10.47
7.77
5.11
2.28
-0.98
-4.9
-9.5
-14.49
-19.41
-23.81
-27.55
-30.84
-34.19
-38.15
-43.17
-49.39
-56.61
-64.22
-71.19
-76.2
-77.95
-75.58
-69.06
-59.24
-47.65
-35.88
-25.14
-15.93
-8.15
-1.37
4.85
10.76
16.43
21.81
26.78
31.25
35.1
38.27
40.76
42.59
43.84
44.57
44.82
44.66
44.19
43.61
43.07
42.65
42.23
41.6
40.46
38.7
36.4
33.86
31.44
29.35
27.55
25.72
23.48
20.57
17.04
13.22
9.58
6.46
3.9
1.62
-0.89
-4.05
-7.97
-12.46
-17.06
-21.32
-24.99
-28.16
-31.21
-34.65
-38.95
-44.42
-51.05
-58.39
-65.5
-71.09
-73.79
-72.57
-67.12
-58.02
-46.57
-34.37
-22.78
-12.62
-4.1
3.0
9.08
14.49
19.45
24.09
28.42
32.43
36.08
39.32
42.08
44.25
45.7
46.34
46.2
45.54
44.77
44.33
44.44
44.95
45.39
45.18
43.92
41.53
38.33
34.79
31.46
28.7
26.69
25.32
24.27
23.08
21.3
18.67
15.23
11.29
7.27
3.51
0.13
-2.96
-5.97
-9.06
-12.29
-15.61
-18.94
-22.15
-25.12
-27.8
-30.27
-32.79
-35.77
-39.71
-44.9
-51.19
-57.88
-63.79
-67.53
-67.93
-64.47
-57.42
-47.74
-36.79
-25.9
-16.01
-7.58
-0.63
5.05
9.64
13.28
16.0
17.88
19.11
19.95
20.71
21.58
22.63
23.72
24.64
25.2
25.31
25.04
24.55
24.06
23.69
23.44
23.17
22.61
21.49
19.65
17.15
14.29
11.46
8.97
6.94
5.25
3.6
1.73
-0.52
-3.14
-5.98
-8.81
-11.44
-13.75
-15.72
-17.45
-19.23
-21.4
-24.36
-28.41
-33.62
-39.7
-45.91
-51.13
-54.13
-53.88
-49.91
-42.55
-32.82
-22.11
-11.73
-2.6
4.93
10.93
15.7
19.57
22.8
25.59
28.11
30.46
32.7
34.76
36.51
37.8
38.56
38.84
38.78
38.61
38.52
38.57
38.68
38.59
38.02
36.71
34.55
31.63
28.17
24.53
21.08
18.06
15.55
13.45
11.52
9.47
7.1
4.33
1.21
-2.19
-5.8
-9.65
-13.8
-18.27
-22.95
-27.62
-31.95
-35.73
-38.93
-41.72
-44.47
-47.67
-51.73
-56.91
-63.05
-69.53
-75.23
-78.8
-78.99
-75.15
-67.52
-57.22
-45.89
-35.08
-25.75
-18.09
-11.7
-5.91
-0.26
5.39
10.91
16.02
20.51
24.32
27.47
30.04
32.07
33.61
34.68
35.36
35.77
36.13
36.68
37.59
38.89
40.4
41.75
42.5
42.4
41.39
39.73
37.8
35.95
34.35
32.95
31.52
29.77
27.48
24.59
21.2
17.52
13.78
10.17
6.77
3.58
0.56
-2.39
-5.41
-8.7
-12.49
-16.91
-21.93
-27.23
-32.34
-36.84
-40.57
-43.72
-46.83
-50.54
-55.33
-61.32
-68.09
-74.73
-79.94
-82.38
-81.04
-75.61
-66.61
-55.27
-43.18
-31.69
-21.65
-13.25
-6.2
-0.03
5.7
11.3
16.91
22.54
28.09
33.37
38.15
42.22
45.46
47.89
49.59
50.64
51.17
51.3
51.24
51.2
51.35
51.63
51.82
51.58
50.62
48.87
46.47
43.71
40.84
38.0
35.22
32.42
29.57
26.64
23.62
20.54
17.42
14.3
11.18
8.02
4.62
0.8
-3.58
-8.46
-13.59
-18.62
-23.26
-27.39
-31.06
-34.42
-37.61
-40.83
-44.31
-48.38
-53.38
-59.49
-66.49
-73.6
-79.59
-83.06
-82.88
-78.52
-70.29
-59.23
-46.85
-34.62
-23.64
-14.43
-6.91
-0.7
4.67
9.52
14.05
18.34
22.45
26.38
30.04
33.24
35.75
37.45
38.34
38.64
38.62
38.52
38.44
38.39
38.32
38.11
37.62
36.62
34.97
32.6
29.73
26.71
23.89
21.42
19.15
16.73
13.88
10.52
6.91
3.45
0.47
-1.96
-4.01
-5.99
-8.2
-10.8
-13.84
-17.26
-20.97
-24.81
-28.69
-32.56
-36.52
-40.8
-45.73
-51.5
-57.97
-64.5
-69.96
-72.99
-72.45
-67.78
-59.34
-48.25
-36.07
-24.23
-13.68
-4.69
2.94
9.6
15.55
20.83
25.25
28.66
31.03
32.54
33.46
34.05
34.44
34.6
34.45
33.94
33.2
32.45
31.99
31.96
32.24
32.46
32.15
30.95
28.8
25.98
23.02
20.47
18.76
17.96
17.82
17.83
17.48
16.37
14.41
11.78
8.88
6.05
3.48
1.11
-1.32
-4.07
-7.29
-10.97
-14.94
-18.92
-22.67
-26.07
-29.07
-31.8
-34.56
-37.76
-41.87
-47.15
-53.43
-59.97
-65.52
-68.61
-68.07
-63.47
-55.31
-44.85
-33.66
-23.1
-13.9
-6.17
0.44
6.32
11.71
16.71
21.34
25.62
29.69
33.66
37.55
41.19
44.34
46.67
47.92
47.93
46.74
44.54
41.7
38.62
35.67
32.99
30.52
28.06
25.38
22.4
19.21
16.06
13.25
11.03
9.45
8.37
7.48
6.38
4.78
2.62
0.13
-2.25
-4.08
-5.2
-5.79
-6.37
-7.55
-9.72
-12.89
-16.66
-20.4
-23.58
-25.98
-27.78
-29.43
-31.5
-34.45
-38.58
-44.01
-50.65
-58.13
-65.66
-72.02
-75.72
-75.42
-70.47
-61.2
-48.99
-35.78
-23.4
-13.03
-4.93
1.37
6.71
11.79
16.96
22.14
26.99
31.08
34.1
35.93
36.72
36.89
36.99
37.57
38.99
41.29
44.3
47.63
50.87
53.65
55.67
56.67
56.49
55.14
52.79
49.8
46.65
43.74
41.28
39.24
37.37
35.32
32.73
29.39
25.27
20.57
15.61
10.74
6.19
2.01
-1.9
-5.71
-9.6
-13.67
-17.96
-22.52
-27.32
-32.25
-37.07
-41.47
-45.19
-48.3
-51.16
-54.44
-58.8
-64.55
-71.39
-78.36
-83.99
-86.78
-85.67
-80.34
-71.35
-59.92
-47.48
-35.27
-24.12
-14.4
-6.14
0.75
6.41
11.06
14.99
18.59
22.15
25.82
29.47
32.88
35.8
38.06
39.65
40.68
41.31
41.75
42.23
42.91
43.72
44.38
44.4
43.34
41.07
37.82
34.14
30.6
27.51
24.78
22.08
19.06
15.61
11.87
8.17
4.82
1.98
-0.42
-2.61
-4.88
-7.51
-10.58
-14.0
-17.52
-20.84
-23.76
-26.34
-28.86
-31.77
-35.54
-40.52
-46.77
-54.01
-61.45
-67.88
-71.84
-72.03
-67.78
-59.37
-47.97
-35.28
-22.91
-12.01
-2.97
4.34
10.38
15.59
20.31
24.67
28.7
32.34
35.51
38.18
40.42
42.31
43.98
45.48
46.79
47.84
48.65
49.27
49.79
50.19
50.35
49.95
48.73
46.53
43.44
39.82
36.14
32.82
30.03
27.7
25.51
23.07
20.13
16.7
13.05
9.53
6.42
3.81
1.51
-0.77
-3.35
-6.43
-10.1
-14.28
-18.8
-23.4
-27.74
-31.54
-34.72
-37.47
-40.29
-43.83
-48.69
-55.12
-62.84
-70.93
-77.97
-82.33
-82.73
-78.58
-70.31
-59.18
-46.86
-34.9
-24.3
-15.32
-7.69
-0.91
5.45
11.57
17.47
23.03
28.07
32.41
35.93
38.59
40.5
41.85
42.85
43.57
44.02
44.13
43.94
43.57
43.25
43.06
42.93
42.59
41.73
40.1
37.73
34.84
31.76
28.77
26.04
23.58
21.34
19.28
17.33
15.46
13.65
11.8
9.81
7.52
4.86
1.8
-1.59
-5.15
-8.77
-12.44
-16.27
-20.38
-24.75
-29.17
-33.33
-36.94
-40.01
-42.85
-46.04
-50.23
-55.81
-62.83
-70.77
-78.62
-84.96
-88.27
-87.35
-81.72
-71.85
-59.02
-44.94
-31.18
-18.78
-8.16
0.74
8.27
14.83
20.8
26.49
32.05
37.45
42.46
46.81
50.29
52.86
54.61
55.64
55.95
55.57
54.59
53.35
52.26
51.66
51.57
51.68
51.45
50.46
48.55
45.89
42.87
39.89
37.25
35.08
33.3
31.69
29.93
27.73
24.88
21.45
17.7
13.97
10.52
7.38
4.36
1.13
-2.61
-7.05
-12.17
-17.82
-23.71
-29.47
-34.82
-39.59
-43.82
-47.8
-51.94
-56.71
-62.44
-69.17
-76.55
-83.71
-89.41
-92.22
-90.97
-85.12
-75.08
-62.0
-47.51
-33.23
-20.31
-9.34
-0.39
6.78
12.58
17.48
21.88
26.06
30.07
33.79
36.99
39.5
41.37
42.8
43.99
45.03
45.79
46.04
45.66
44.72
43.43
42.02
40.51
38.74
36.41
33.3
29.37
24.85
20.12
15.52
11.27
7.43
3.87
0.41
-3.19
-7.11
-11.47
-16.23
-21.2
-26.13
-30.73
-34.74
-38.06
-40.72
-42.96
-45.25
-48.2
-52.4
-58.08
-64.88
-71.68
-76.83
-78.63
-75.92
-68.54
-57.34
-43.92
-30.07
-17.25
-6.29
2.61
9.72
15.47
20.23
24.21
27.53
30.28
32.6
34.68
36.72
38.82
40.88
42.67
43.94
44.52
44.45
43.93
43.25
42.59
41.94
41.16
39.98
38.18
35.7
32.65
29.32
26.03
23.05
20.43
18.03
15.62
13.0
10.18
7.35
4.81
2.68
0.86
-1.04
-3.48
-6.84
-11.19
-16.28
-21.63
-26.78
-31.43
-35.51
-39.24
-43.03
-47.41
-52.89
-59.79
-68.03
-76.96
-85.26
-91.24
-93.24
-90.19
-82.07
-69.92
-55.52
-40.87
-27.48
-16.16
-6.97
0.51
6.81
12.41
17.62
22.6
27.49
32.34
37.12
41.64
45.64
48.77
50.83
51.77
51.79
51.31
50.79
50.66
51.1
51.99
52.91
53.27
52.61
50.75
47.87
44.46
41.02
37.91
35.2
32.7
30.16
27.36
24.25
20.96
17.63
14.4
11.31
8.21
4.91
1.18
-3.13
-8.01
-13.29
-18.66
-23.78
-28.44
-32.64
-36.61
-40.78
-45.66
-51.72
-59.17
-67.67
-76.17
-83.04
-86.38
-84.73
-77.64
-65.94
-51.45
-36.38
-22.54
-10.88
-1.49
6.13
12.65
18.63
24.36
29.95
35.35
40.42
45.04
49.09
52.48
55.14
56.97
57.89
57.9
57.14
56.01
55.01
54.57
54.75
55.24
55.38
54.55
52.39
48.99
44.82
40.53
36.66
33.41
30.6
27.76
24.4
20.22
15.4
10.41
5.89
2.21
-0.67
-3.2
-6.0
-9.53
-13.88
-18.81
-23.91
-28.87
-33.6
-38.21
-42.88
-47.79
-53.12
-59.03
-65.6
-72.71
-79.79
-85.75
-89.18
-88.75
-83.73
-74.33
-61.7
-47.62
-33.89
-21.83
-11.95
-4.03
2.63
8.72
14.66
20.42
25.7
30.15
33.6
36.14
38.06
39.67
41.13
42.42
43.42
44.05
44.32
44.31
44.15
43.8
43.06
41.63
39.24
35.81
31.55
26.89
22.38
18.41
15.14
12.4
9.76
6.76
3.08
-1.32
-6.23
-11.27
-16.04
-20.25
-23.86
-27.11
-30.44
-34.45
-39.69
-46.5
-54.76
-63.79
-72.32
-78.7
-81.33
-79.11
-71.87
-60.5
-46.71
-32.52
-19.61
-8.9
-0.38
6.59
12.8
18.8
24.7
30.27
35.14
39.04
41.93
43.95
45.34
46.36
47.24
48.12
49.04
49.93
50.69
51.19
51.32
51.05
50.37
49.21
47.49
45.06
41.9
38.13
34.03
29.95
26.17
22.85
19.91
17.16
14.29
11.01
7.07
2.36
-3.06
-8.93
-14.9
-20.63
-25.94
-30.87
-35.69
-40.81
-46.65
-53.63
-61.94
-71.37
-81.12
-89.8
-95.65
-97.1
-93.32
-84.64
-72.47
-58.81
-45.5
-33.72
-23.76
-15.24
-7.57
-0.29
6.72
13.35
19.39
24.74
29.45
33.64
37.44
40.84
43.68
45.75
46.88
47.16
46.91
46.59
46.64
47.23
48.16
48.98
49.19
48.45
46.8
44.56
42.18
40.07
38.33
36.81
35.19
33.15
30.54
27.46
24.13
20.83
17.67
14.55
11.17
7.23
2.55
-2.71
-8.16
-13.3
-17.83
-21.67
-25.15
-28.75
-32.99
-38.29
-44.9
-52.79
-61.49
-70.04
-76.95
-80.59
-79.61
-73.55
-63.08
-49.83
-35.88
-23.07
-12.46
-4.13
2.52
8.38
14.12
20.0
25.79
31.02
35.27
38.34
40.34
41.57
42.33
42.8
42.97
42.81
42.39
41.93
41.73
42.02
42.77
43.66
44.12
43.66
42.0
39.24
35.81
32.19
28.78
25.66
22.62
19.34
15.66
11.69
7.78
4.31
1.47
-0.88
-3.1
-5.58
-8.5
-11.75
-15.09
-18.25
-21.13
-23.81
-26.54
-29.65
-33.47
-38.29
-44.32
-51.5
-59.34
-66.84
-72.6
-75.14
-73.42
-67.23
-57.34
-45.22
-32.64
-21.06
-11.36
-3.68
2.37
7.42
11.99
16.35
20.44
24.02
26.87
28.87
30.09
30.75
31.09
31.3
31.48
31.67
31.82
31.91
31.87
31.63
31.07
30.05
28.41
26.02
22.89
19.15
15.17
11.44
8.32
5.98
4.22
2.56
0.48
-2.35
-5.94
-9.94
-13.89
-17.37
-20.15
-22.3
-24.05
-25.81
-27.94
-30.86
-34.87
-40.15
-46.56
-53.52
-59.95
-64.43
-65.56
-62.45
-55.13
-44.65
-32.72
-21.15
-11.26
-3.51
2.38
7.1
11.29
15.31
19.23
22.92
26.26
29.19
31.68
33.75
35.41
36.69
37.65
38.33
38.77
39.0
39.04
38.95
38.74
38.3
37.43
35.88
33.53
30.5
27.09
23.73
20.73
18.17
15.92
13.76
11.44
8.82
5.87
2.63
-0.79
-4.26
-7.67
-11.01
-14.4
-18.02
-21.97
-26.21
-30.5
-34.5
-37.98
-41.0
-43.87
-47.09
-51.18
-56.5
-63.1
-70.55
-77.86
-83.61
-86.23
-84.62
-78.5
-68.69
-56.74
-44.42
-33.11
-23.53
-15.66
-9.08
-3.22
2.4
8.07
13.83
19.52
24.8
29.28
32.69
34.95
36.15
36.53
36.34
35.89
35.46
35.31
35.6
36.26
36.98
37.36
37.08
36.08
34.55
32.81
31.11
29.54
28.11
26.8
25.65
24.67
23.84
22.97
21.89
20.46
18.63
16.44
13.98
11.29
8.45
5.56
2.77
0.2
-2.14
-4.41
-6.83
-9.65
-12.93
-16.54
-20.26
-23.81
-27.1
-30.26
-33.61
-37.65
-42.87
-49.54
-57.42
-65.61
-72.63
-76.78
-76.67
-71.74
-62.55
-50.55
-37.64
-25.55
-15.35
-7.34
-1.2
3.71
7.98
11.98
15.84
19.57
23.09
26.32
29.15
31.42
32.96
33.61
33.37
32.45
31.23
30.13
29.5
29.45
29.88
30.49
30.9
30.75
29.88
28.27
26.12
23.74
21.44
19.4
17.63
16.01
14.36
12.61
10.75
8.85
6.94
4.97
2.81
0.38
-2.36
-5.4
-8.69
-12.24
-16.06
-20.09
-24.14
-27.95
-31.33
-34.29
-37.13
-40.35
-44.46
-49.77
-56.2
-63.19
-69.72
-74.51
-76.24
-73.98
-67.54
-57.55
-45.39
-32.77
-21.18
-11.58
-4.16
1.46
5.85
9.55
12.85
15.83
18.51
20.91
23.07
25.03
26.75
28.12
28.99
29.29
29.13
28.75
28.47
28.54
28.95
29.44
29.6
29.1
27.9
26.25
24.61
23.39
22.72
22.42
22.07
21.3
19.85
17.74
15.15
12.34
9.46
6.63
3.82
0.98
-2.03
-5.36
-9.09
-13.16
-17.39
-21.52
-25.34
-28.85
-32.28
-36.06
-40.65
-46.22
-52.51
-58.62
-63.26
-64.99
-62.77
-56.37
-46.51
-34.67
-22.57
-11.65
-2.68
4.31
9.79
14.38
18.54
22.47
26.13
29.44
32.33
34.79
36.83
38.47
39.65
40.35
40.52
40.24
39.65
38.98
38.43
38.1
37.92
37.66
37.03
35.79
33.92
31.64
29.35
27.41
26.0
24.95
23.88
22.36
20.09
17.11
13.66
10.18
7.02
4.36
2.1
-0.04
-2.42
-5.29
-8.67
-12.36
-15.99
-19.27
-22.1
-24.66
-27.26
-30.3
-34.08
-38.8
-44.46
-50.73
-56.94
-61.99
-64.63
-63.78
-58.99
-50.68
-40.08
-28.83
-18.42
-9.83
-3.3
1.53
5.28
8.62
11.96
15.43
18.93
22.2
25.05
27.36
29.15
30.51
31.47
32.03
32.14
31.84
31.31
30.77
30.42
30.28
30.15
29.75
28.8
27.21
25.08
22.68
20.31
18.27
16.73
15.72
15.07
14.43
13.45
11.86
9.7
7.21
4.76
2.6
0.69
-1.28
-3.64
-6.62
-10.19
-14.08
-17.97
-21.59
-24.82
-27.69
-30.29
-32.8
-35.47
-38.59
-42.44
-47.06
-52.09
-56.7
-59.75
-60.06
-56.88
-50.21
-40.84
-30.17
-19.69
-10.55
-3.23
2.43
6.92
10.77
14.3
17.58
20.58
23.24
25.55
27.52
29.16
30.44
31.32
31.78
31.8
31.45
30.78
29.9
28.94
28.03
27.19
26.31
25.16
23.52
21.31
18.66
15.88
13.26
10.9
8.72
6.5
4.08
1.46
-1.22
-3.79
-6.19
-8.51
-10.93
-13.62
-16.62
-19.89
-23.33
-26.92
-30.66
-34.63
-38.9
-43.46
-48.09
-52.27
-55.18
-55.84
-53.45
-47.74
-39.2
-29.01
-18.66
-9.4
-1.91
3.8
8.2
11.88
15.21
18.28
20.95
23.07
24.59
25.68
26.57
27.52
28.64
29.82
30.8
31.31
31.23
30.63
29.74
28.78
27.85
26.88
25.68
24.06
21.98
19.48
16.68
13.68
10.58
7.49
4.45
1.56
-1.17
-3.76
-6.3
-8.91
-11.67
-14.68
-18.0
-21.6
-25.44
-29.37
-33.28
-37.09
-40.85
-44.74
-49.04
-54.0
-59.58
-65.34
-70.42
-73.63
-73.92
-70.68
-64.03
-54.86
-44.46
-34.17
-24.86
-16.89
-10.15
-4.25
1.09
6.08
10.73
14.99
18.87
22.36
25.52
28.43
31.11
33.55
35.7
37.45
38.72
39.49
39.83
39.85
39.66
39.31
38.77
37.95
36.77
35.21
33.37
31.34
29.23
27.07
24.83
22.41
19.8
17.03
14.27
11.76
9.68
8.08
6.78
5.44
3.63
1.01
-2.53
-6.87
-11.63
-16.4
-20.82
-24.72
-28.14
-31.32
-34.7
-38.78
-44.05
-50.64
-58.15
-65.44
-70.9
-72.88
-70.39
-63.44
-53.13
-41.21
-29.4
-18.91
-10.16
-3.03
2.9
8.03
12.7
17.03
21.15
25.08
28.76
32.08
34.92
37.24
39.06
40.47
41.47
42.08
42.34
42.34
42.24
42.12
41.95
41.54
40.65
39.13
37.08
34.75
32.47
30.45
28.74
27.21
25.67
23.98
22.1
19.99
17.69
15.21
12.57
9.73
6.59
3.0
-1.16
-5.85
-10.81
-15.63
-19.88
-23.43
-26.41
-29.26
-32.5
-36.6
-41.85
-48.3
-55.61
-63.05
-69.38
-73.17
-73.17
-68.85
-60.63
-49.78
-37.96
-26.64
-16.74
-8.48
-1.65
4.13
9.23
13.86
18.12
22.03
25.56
28.72
31.54
34.1
36.43
38.45
39.98
40.8
40.87
40.43
39.86
39.49
39.36
39.17
38.38
36.51
33.41
29.3
24.7
20.15
16.11
12.77
10.08
7.78
5.48
2.83
-0.39
-4.1
-8.03
-11.79
-15.11
-18.04
-20.93
-24.35
-28.84
-34.73
-42.04
-50.36
-58.87
-66.39
-71.51
-72.98
-70.07
-62.88
-52.36
-39.99
-27.41
-15.85
-5.96
2.15
8.73
14.12
18.61
22.34
25.43
27.94
30.0
31.74
33.33
34.9
36.48
37.98
39.25
40.13
40.53
40.5
40.21
39.8
39.33
38.76
37.9
36.61
34.74
32.26
29.24
25.78
22.05
18.22
14.47
10.94
7.63
4.38
0.91
-3.01
-7.53
-12.53
-17.72
-22.72
-27.28
-31.37
-35.18
-39.02
-43.21
-48.1
-53.95
-60.84
-68.51
-76.13
-82.28
-85.31
-83.83
-77.34
-66.49
-52.93
-38.68
-25.52
-14.43
-5.53
1.66
7.81
13.51
19.05
24.47
29.63
34.36
38.49
41.96
44.81
47.06
48.8
50.05
50.85
51.32
51.67
52.13
52.8
53.58
54.12
53.97
52.83
50.66
47.82
44.77
42.02
39.8
38.08
36.55
34.81
32.49
29.32
25.27
20.52
15.46
10.63
6.44
3.05
0.24
-2.49
-5.75
-9.93
-15.04
-20.74
-26.48
-31.81
-36.55
-40.88
-45.19
-50.0
-55.74
-62.55
-70.09
-77.42
-83.19
-85.83
-84.18
-77.84
-67.41
-54.32
-40.38
-27.22
-15.86
-6.6
0.88
7.16
12.82
18.2
23.37
28.16
32.42
36.08
39.18
41.89
44.27
46.26
47.72
48.58
48.94
49.05
49.17
49.4
49.59
49.4
48.46
46.61
43.92
40.73
37.5
34.61
32.28
30.47
28.93
27.3
25.22
22.5
19.17
15.52
11.92
8.63
5.71
2.92
-0.17
-3.93
-8.59
-14.03
-19.82
-25.35
-30.14
-33.98
-37.16
-40.32
-44.27
-49.62
-56.56
-64.57
-72.51
-78.86
-82.03
-80.94
-75.31
-65.79
-53.81
-41.1
-29.19
-19.03
-10.83
-4.25
1.2
5.91
10.06
13.65
16.68
19.29
21.68
24.08
26.54
28.95
31.07
32.69
33.68
34.04
33.95
33.65
33.35
33.14
32.86
32.19
30.75
28.33
25.08
21.46
18.03
15.13
12.75
10.45
7.63
3.89
-0.82
-6.17
-11.64
-16.71
-21.15
-25.01
-28.63
-32.52
-37.22
-43.22
-50.82
-60.0
-70.34
-80.91
-90.37
-97.17
-99.99
-98.19
-92.08
-82.9
-72.44
-62.4
-53.94
-47.35
-42.29
-38.12
-34.32
-30.66
-27.19
-24.05
-21.27
-18.76
-16.22
-13.2
-9.23
-3.84
3.31
12.37
23.27
35.69
49.11
62.86
76.15
88.14
98.08
105.46
110.07
112.07
111.81
