0
3.85
3.11
2.09
0.8
-0.77
-2.65
-4.83
-7.26
-9.87
-12.6
-15.47
-18.47
-21.62
-24.8
-27.79
-30.18
-31.55
-31.49
-29.74
-26.29
-21.34
-15.31
-8.74
-2.21
3.74
8.63
12.21
14.37
15.24
15.06
14.14
12.8
11.34
10.0
9.02
8.53
8.57
8.99
9.6
10.07
10.16
9.7
8.59
6.87
4.64
2.03
-0.76
-3.57
-6.3
-8.89
-11.41
-13.97
-16.72
-19.76
-23.06
-26.41
-29.39
-31.44
-31.96
-30.53
-27.03
-21.73
-15.2
-8.12
-1.11
5.39
11.07
15.73
19.18
21.32
22.17
21.9
20.88
19.5
18.14
17.02
16.2
15.65
15.29
15.1
15.0
14.9
14.72
14.34
13.66
12.61
11.09
9.04
6.5
3.6
0.6
-2.23
-4.76
-7.1
-9.57
-12.52
-16.16
-20.34
-24.6
-28.2
-30.35
-30.44
-28.18
-23.65
-17.33
-9.93
-2.24
5.04
11.39
16.45
20.02
21.95
22.29
21.28
19.44
17.44
15.86
15.01
14.85
15.07
15.32
15.37
15.17
14.83
14.43
14.0
13.47
12.69
11.53
9.85
7.65
4.98
2.05
-0.92
-3.74
-6.35
-8.83
-11.39
-14.15
-17.15
-20.26
-23.18
-25.53
-26.84
-26.73
-24.92
-21.37
-16.31
-10.21
-3.64
2.86
8.82
13.89
17.77
20.19
21.01
20.29
18.35
15.76
13.15
11.04
9.68
9.1
9.12
9.49
9.97
10.36
10.53
10.37
9.83
8.89
7.51
5.72
3.53
1.03
-1.66
-4.42
-7.19
-10.04
-13.07
-16.37
-19.85
-23.17
-25.81
-27.17
-26.76
-24.36
-20.09
-14.32
-7.66
-0.76
5.82
11.59
16.26
19.64
21.59
22.07
21.14
19.06
16.31
13.45
11.01
9.3
8.38
8.06
8.05
8.1
8.02
7.69
7.02
5.92
4.34
2.29
-0.17
-2.91
-5.85
-8.94
-12.21
-15.73
-19.56
-23.68
-27.87
-31.69
-34.5
-35.6
-34.47
-30.97
-25.4
-18.4
-10.69
-2.9
4.47
11.07
16.48
20.33
22.33
22.46
21.04
18.67
16.04
13.69
11.97
10.95
10.55
10.56
10.7
10.68
10.2
9.14
7.48
5.4
3.08
0.67
-1.83
-4.53
-7.59
-11.05
-14.87
-18.92
-23.08
-27.33
-31.66
-36.01
-40.12
-43.44
-45.31
-45.08
-42.48
-37.7
-31.41
-24.53
-17.97
-12.41
-8.19
-5.42
-4.04
-3.9
-4.75
-6.18
-7.66
-8.55
-8.33
-6.64
-3.35
1.43
7.44
14.37
21.8
29.24
36.16
41.98
46.19
48.5
48.82
47.36
44.48
40.67
36.34
31.8
27.19
22.54
17.78
12.83
7.65
2.26
-3.17
-8.28
-12.51
-15.24
-15.89
-14.18
-10.26
-4.67
1.79
8.33
14.33
19.4
23.32
25.92
27.07
26.74
25.14
22.73
20.13
17.89
16.32
15.4
14.95
14.74
14.64
14.65
14.79
15.0
15.08
14.74
13.72
11.89
9.3
6.19
2.9
-0.24
-3.04
-5.54
-7.94
-10.5
-13.38
-16.55
-19.75
-22.64
-24.86
-26.14
-26.3
-25.18
-22.7
-18.81
-13.64
-7.49
-0.87
5.59
11.27
15.66
18.45
19.58
19.26
17.85
15.81
13.52
11.3
9.38
7.91
7.03
6.79
7.2
8.05
9.02
9.72
9.74
8.84
6.92
4.11
0.7
-2.92
-6.39
-9.5
-12.19
-14.62
-17.07
-19.82
-22.95
-26.41
-29.85
-32.78
-34.61
-34.8
-33.01
-29.17
-23.55
-16.62
-9.01
-1.33
5.92
12.29
17.43
21.04
22.96
23.26
22.27
20.51
18.58
16.97
15.9
15.36
15.19
15.22
15.36
15.55
15.69
15.67
15.29
14.42
12.98
11.03
8.63
5.89
2.91
-0.25
-3.47
-6.67
-9.81
-12.85
-15.86
-18.87
-21.88
-24.75
-27.19
-28.8
-29.16
-27.94
-25.02
-20.53
-14.78
-8.21
-1.29
5.59
12.05
17.69
22.08
24.82
25.72
24.92
22.89
20.28
17.78
15.87
14.75
14.36
14.46
14.79
15.09
15.21
15.03
14.49
13.55
12.16
10.29
7.95
5.25
2.38
-0.4
-2.93
-5.18
-7.31
-9.54
-12.05
-14.93
-18.11
-21.44
-24.68
-27.54
-29.64
-30.58
-30.01
-27.7
-23.71
-18.31
-11.95
-5.2
1.4
7.36
12.3
15.94
18.18
19.06
18.77
17.6
15.92
14.05
12.29
10.87
9.96
9.6
9.7
10.11
10.58
10.9
10.87
10.41
9.5
8.22
6.66
4.89
2.94
0.8
-1.55
-4.14
-6.91
-9.78
-12.69
-15.57
-18.38
-21.0
-23.26
-24.84
-25.37
-24.51
-22.13
-18.32
-13.4
-7.86
-2.18
3.18
7.87
11.62
14.2
15.48
15.44
14.24
12.18
9.71
7.25
5.18
3.7
2.86
2.59
2.73
3.07
3.43
3.63
3.54
3.05
2.1
0.68
-1.14
-3.23
-5.45
-7.69
-9.93
-12.29
-14.9
-17.87
-21.06
-24.12
-26.46
-27.48
-26.8
-24.31
-20.25
-15.05
-9.22
-3.22
2.6
7.95
12.55
16.13
18.47
19.48
19.25
18.07
16.32
14.43
12.72
11.41
10.55
10.09
9.94
9.98
10.12
10.26
10.3
10.08
9.46
8.32
6.63
4.44
1.91
-0.79
-3.51
-6.22
-8.97
-11.9
-15.09
-18.46
-21.78
-24.62
-26.5
-27.01
-25.94
-23.29
-19.24
-14.1
-8.23
-2.05
3.97
9.35
13.65
16.55
17.94
17.91
16.69
14.66
12.26
9.92
8.06
6.94
6.63
6.99
7.74
8.54
9.11
9.22
8.76
7.68
6.05
4.03
1.86
-0.27
-2.26
-4.17
-6.14
-8.27
-10.59
-13.1
-15.79
-18.68
-21.72
-24.65
-27.02
-28.19
-27.64
-25.17
-21.0
-15.67
-9.84
-4.09
1.14
5.56
8.98
11.28
12.46
12.66
12.11
11.05
9.72
8.29
6.93
5.78
4.98
4.6
4.61
4.92
5.37
5.78
5.98
5.8
5.1
3.82
2.01
-0.21
-2.62
-5.03
-7.3
-9.41
-11.42
-13.49
-15.7
-18.02
-20.14
-21.56
-21.71
-20.18
-16.93
-12.3
-6.91
-1.45
3.56
7.8
11.15
13.48
14.67
14.62
13.39
11.26
8.71
6.26
4.28
2.96
2.26
2.01
2.04
2.15
2.19
2.01
1.52
0.65
-0.63
-2.31
-4.33
-6.72
-9.5
-12.68
-16.2
-19.91
-23.52
-26.63
-28.84
-29.78
-29.22
-27.07
-23.41
-18.54
-12.82
-6.74
-0.82
4.47
8.79
11.94
13.85
14.58
14.28
13.17
11.5
9.57
7.71
6.2
5.19
4.69
4.53
4.45
4.23
3.68
2.71
1.33
-0.41
-2.42
-4.59
-6.8
-9.01
-11.28
-13.78
-16.71
-20.14
-23.96
-27.76
-30.96
-32.91
-33.1
-31.25
-27.36
-21.74
-14.88
-7.41
0.03
6.84
12.51
16.69
19.19
20.05
19.5
18.0
16.12
14.42
13.3
12.9
13.1
13.62
14.2
14.64
14.85
14.82
14.48
13.77
12.6
10.95
8.82
6.29
3.47
0.47
-2.64
-5.83
-9.14
-12.63
-16.39
-20.44
-24.61
-28.56
-31.73
-33.55
-33.54
-31.49
-27.47
-21.83
-15.09
-7.8
-0.52
6.32
12.33
17.21
20.77
22.89
23.56
22.99
21.53
19.71
18.12
17.21
17.17
17.83
18.79
19.59
19.93
19.73
19.1
18.18
16.98
15.44
13.43
10.94
8.09
5.14
2.29
-0.38
-2.89
-5.35
-7.83
-10.37
-12.94
-15.6
-18.47
-21.57
-24.79
-27.76
-29.87
-30.43
-28.92
-25.13
-19.31
-12.1
-4.32
3.21
9.84
15.21
19.17
21.7
22.87
22.8
21.69
19.85
17.66
15.56
13.92
12.92
12.59
12.81
13.35
13.95
14.41
14.54
14.25
13.46
12.15
10.29
7.89
4.99
1.72
-1.68
-4.95
-7.88
-10.45
-12.9
-15.52
-18.56
-21.93
-25.18
-27.61
-28.54
-27.51
-24.45
-19.63
-13.49
-6.54
0.71
7.79
14.17
19.35
22.91
24.6
24.48
22.89
20.43
17.73
15.39
13.77
12.94
12.73
12.84
13.01
13.09
13.02
12.75
12.16
11.07
9.35
7.02
4.26
1.37
-1.43
-4.06
-6.63
-9.3
-12.17
-15.28
-18.57
-22.0
-25.52
-29.04
-32.25
-34.71
-35.81
-35.01
-32.01
-26.88
-20.01
-12.03
-3.6
4.64
12.17
18.53
23.38
26.5
27.87
27.73
26.54
24.89
23.29
22.07
21.28
20.82
20.53
20.32
20.22
20.3
20.5
20.68
20.53
19.8
18.31
16.04
13.1
9.72
6.13
2.59
-0.71
-3.63
-6.18
-8.49
-10.79
-13.32
-16.22
-19.48
-22.9
-26.1
-28.58
-29.8
-29.27
-26.73
-22.2
-16.08
-8.97
-1.62
5.36
11.49
16.55
20.41
23.01
24.29
24.29
23.18
21.32
19.2
17.29
15.93
15.26
15.15
15.34
15.52
15.44
15.02
14.3
13.39
12.38
11.26
9.91
8.22
6.09
3.58
0.84
-1.93
-4.54
-6.88
-8.97
-10.89
-12.77
-14.74
-16.94
-19.44
-22.23
-25.16
-27.86
-29.85
-30.6
-29.67
-26.85
-22.21
-16.14
-9.24
-2.18
4.37
9.92
14.11
16.81
18.07
18.06
17.1
15.58
13.9
12.35
11.18
10.45
10.12
10.1
10.27
10.48
10.63
10.65
10.44
9.97
9.16
7.95
6.27
4.12
1.55
-1.3
-4.26
-7.15
-9.9
-12.56
-15.27
-18.19
-21.34
-24.55
-27.39
-29.28
-29.6
-27.97
-24.33
-18.98
-12.5
-5.6
1.12
7.2
12.31
16.24
18.82
19.97
19.73
18.35
16.27
13.98
11.92
10.31
9.2
8.51
8.15
8.05
8.19
8.48
8.71
8.57
7.75
6.09
3.67
0.77
-2.25
-5.06
-7.52
-9.69
-11.73
-13.86
-16.31
-19.22
-22.63
-26.38
-30.1
-33.23
-35.11
-35.11
-32.9
-28.49
-22.25
-14.86
-7.06
0.45
7.15
12.71
17.01
19.97
21.62
22.01
21.32
19.78
17.75
15.64
13.78
12.39
11.55
11.21
11.26
11.61
12.15
12.75
13.19
13.21
12.56
11.09
8.8
5.84
2.45
-1.1
-4.59
-7.9
-10.97
-13.87
-16.75
-19.8
-23.06
-26.42
-29.48
-31.7
-32.5
-31.45
-28.42
-23.61
-17.43
-10.43
-3.18
3.76
9.87
14.72
17.96
19.45
19.28
17.8
15.52
13.0
10.77
9.17
8.31
8.13
8.42
8.96
9.57
10.08
10.37
10.32
9.82
8.78
7.2
5.12
2.65
-0.09
-2.95
-5.85
-8.68
-11.46
-14.23
-17.13
-20.26
-23.6
-26.89
-29.64
-31.24
-31.11
-28.95
-24.81
-19.11
-12.47
-5.59
0.96
6.75
11.53
15.14
17.44
18.33
17.8
16.04
13.43
10.56
8.0
6.14
5.12
4.82
4.97
5.35
5.76
6.1
6.24
6.05
5.38
4.13
2.27
-0.12
-2.93
-6.06
-9.37
-12.77
-16.14
-19.42
-22.56
-25.48
-27.93
-29.49
-29.68
-28.04
-24.44
-19.17
-12.77
-5.91
0.87
7.19
12.79
17.31
20.35
21.55
20.81
18.45
15.15
11.72
8.88
7.02
6.19
6.17
6.56
6.97
7.12
6.83
6.01
4.68
2.85
0.54
-2.23
-5.36
-8.73
-12.22
-15.83
-19.58
-23.54
-27.57
-31.27
-33.95
-34.91
-33.61
-29.93
-24.18
-16.94
-8.92
-0.79
6.83
13.43
18.59
22.04
23.72
23.77
22.56
20.54
18.21
16.0
14.22
13.04
12.41
12.19
12.19
12.22
12.15
11.91
11.41
10.53
9.17
7.3
4.95
2.23
-0.77
-4.0
-7.5
-11.35
-15.57
-20.01
-24.34
-28.05
-30.47
-30.94
-29.01
-24.57
-17.99
-10.03
-1.6
6.42
13.46
19.23
23.65
26.7
28.39
28.72
27.83
26.01
23.66
21.19
18.94
17.13
15.86
15.17
15.01
15.22
15.54
15.63
15.17
13.93
11.87
9.12
5.92
2.52
-0.83
-3.98
-6.85
-9.5
-12.09
-14.83
-17.92
-21.42
-25.2
-28.84
-31.78
-33.39
-33.12
-30.69
-26.11
-19.71
-12.09
-3.96
3.95
10.94
16.51
20.33
22.33
22.64
21.64
19.8
17.65
15.67
14.19
13.34
13.13
13.4
13.96
14.58
15.08
15.3
15.13
14.49
13.36
11.72
9.62
7.17
4.49
1.72
-1.03
-3.72
-6.38
-9.12
-12.11
-15.48
-19.25
-23.23
-26.94
-29.77
-31.05
-30.32
-27.45
-22.69
-16.52
-9.55
-2.35
4.61
10.88
16.08
19.84
21.89
22.2
20.97
18.69
15.92
13.25
11.09
9.65
8.95
8.86
9.2
9.77
10.37
10.82
10.9
10.44
9.29
7.41
4.87
1.87
-1.33
-4.53
-7.61
-10.57
-13.53
-16.65
-20.02
-23.64
-27.33
-30.72
-33.31
-34.55
-33.97
-31.29
-26.49
-19.86
-11.91
-3.33
5.14
12.76
18.88
23.05
25.13
25.3
24.05
22.02
19.82
17.9
16.48
15.56
15.0
14.62
14.29
13.92
13.49
12.99
12.42
11.69
10.71
9.34
7.46
5.04
2.13
-1.12
-4.53
-7.97
-11.36
-14.71
-18.08
-21.57
-25.19
-28.83
-32.2
-34.83
-36.18
-35.71
-33.09
-28.32
-21.72
-13.89
-5.56
2.56
9.9
16.05
20.72
23.76
25.15
25.07
23.86
22.01
20.03
18.36
17.26
16.77
16.75
16.97
17.24
17.38
17.31
16.97
16.28
15.14
13.41
11.06
8.13
4.84
1.5
-1.59
-4.26
-6.55
-8.66
-10.88
-13.43
-16.48
-20.04
-23.98
-28.01
-31.64
-34.27
-35.23
-33.99
-30.32
-24.42
-16.82
-8.3
0.31
8.27
14.99
20.03
23.16
24.34
23.78
21.9
19.28
16.56
14.25
12.69
12.02
12.15
12.9
13.96
15.06
15.92
16.3
16.04
15.07
13.38
11.09
8.32
5.25
2.01
-1.28
-4.52
-7.6
-10.46
-13.1
-15.67
-18.4
-21.56
-25.18
-28.99
-32.37
-34.5
-34.68
-32.51
-28.06
-21.74
-14.14
-5.89
2.45
10.29
17.05
22.19
25.34
26.4
25.6
23.46
20.66
17.87
15.63
14.29
13.85
14.07
14.51
14.77
14.62
14.13
13.51
12.94
12.38
11.56
10.1
7.77
4.56
0.74
-3.27
-7.14
-10.65
-13.8
-16.73
-19.63
-22.73
-26.17
-29.92
-33.67
-36.87
-38.87
-39.06
-37.13
-33.06
-27.15
-19.82
-11.62
-3.07
5.33
13.09
19.75
24.92
28.3
29.79
29.53
27.95
25.66
23.33
21.5
20.45
20.16
20.42
20.91
21.35
21.53
21.33
20.64
19.46
17.79
15.72
13.32
10.66
7.78
4.69
1.48
-1.78
-4.99
-8.1
-11.11
-14.06
-16.99
-19.99
-23.11
-26.38
-29.7
-32.7
-34.82
-35.39
-33.88
-30.1
-24.32
-17.09
-9.12
-1.04
6.66
13.61
19.44
23.82
26.53
27.51
26.94
25.22
22.86
20.41
18.3
16.8
15.96
15.6
15.47
15.36
15.2
15.04
14.94
14.86
14.58
13.77
12.2
9.77
6.68
3.2
-0.38
-3.83
-7.04
-9.94
-12.53
-14.86
-17.08
-19.4
-21.98
-24.84
-27.78
-30.33
-31.94
-32.07
-30.36
-26.73
-21.42
-14.92
-7.85
-0.82
5.63
11.12
15.35
18.16
19.51
19.54
18.5
16.79
14.8
12.84
11.12
9.72
8.7
8.12
7.98
8.24
8.75
9.24
9.46
9.22
8.42
7.11
5.34
3.18
0.72
-1.96
-4.73
-7.51
-10.28
-13.08
-16.01
-19.08
-22.13
-24.75
-26.42
-26.6
-24.93
-21.39
-16.29
-10.18
-3.69
2.63
8.35
13.14
16.76
18.96
19.63
18.78
16.7
13.84
10.75
7.91
5.61
3.98
3.0
2.6
2.64
2.93
3.2
3.14
2.5
1.19
-0.73
-3.08
-5.65
-8.3
-10.97
-13.66
-16.42
-19.37
-22.58
-26.04
-29.53
-32.57
-34.51
-34.74
-32.85
-28.84
-23.01
-15.91
-8.17
-0.44
6.65
12.52
16.72
19.04
19.6
18.82
17.24
15.39
13.68
12.28
11.27
10.66
10.37
10.28
10.18
9.86
9.21
8.23
7.03
5.74
4.41
2.97
1.29
-0.74
-3.17
-5.99
-9.16
-12.66
-16.44
-20.46
-24.49
-28.15
-30.86
-32.03
-31.21
-28.25
-23.39
-17.14
-10.12
-2.91
4.07
10.49
16.02
20.33
23.13
24.31
24.06
22.82
21.16
19.52
18.08
16.84
15.69
14.63
13.73
13.12
12.84
12.77
12.67
12.26
11.32
9.78
7.68
5.13
2.29
-0.68
-3.65
-6.52
-9.3
-12.09
-15.02
-18.19
-21.55
-24.82
-27.59
-29.38
-29.74
-28.4
-25.28
-20.5
-14.42
-7.55
-0.49
6.1
11.69
15.88
18.42
19.31
18.76
17.16
15.04
12.93
11.21
10.05
9.41
9.14
9.09
9.17
9.32
9.49
9.55
9.34
8.7
7.56
5.95
4.0
1.83
-0.45
-2.74
-4.99
-7.15
-9.3
-11.6
-14.23
-17.27
-20.52
-23.54
-25.67
-26.34
-25.21
-22.32
-17.99
-12.71
-6.92
-1.03
4.64
9.73
13.88
16.76
18.2
18.23
17.07
15.09
12.7
10.27
8.13
6.56
5.73
5.7
6.33
7.28
8.11
8.42
8.0
6.88
5.25
3.33
1.22
-1.11
-3.69
-6.45
-9.25
-11.92
-14.46
-16.98
-19.63
-22.4
-24.93
-26.6
-26.76
-25.01
-21.38
-16.28
-10.3
-3.98
2.19
7.87
12.67
16.2
18.15
18.41
17.18
14.95
12.31
9.87
8.03
6.97
6.65
6.89
7.42
8.02
8.47
8.56
8.15
7.17
5.6
3.51
1.08
-1.51
-4.11
-6.69
-9.32
-12.15
-15.36
-18.98
-22.91
-26.83
-30.26
-32.62
-33.32
-31.97
-28.5
-23.19
-16.63
-9.53
-2.54
3.86
9.38
13.87
17.19
19.23
19.99
19.63
18.5
17.03
15.58
14.33
13.33
12.53
11.91
11.46
11.21
11.13
11.15
11.13
10.92
10.35
9.26
7.56
5.23
2.42
-0.62
-3.59
-6.32
-8.79
-11.19
-13.79
-16.79
-20.2
-23.75
-26.97
-29.29
-30.15
-29.16
-26.21
-21.46
-15.34
-8.41
-1.3
5.45
11.37
16.14
19.53
21.43
21.88
21.14
19.6
17.79
16.17
15.02
14.37
14.06
13.88
13.68
13.47
13.33
13.33
13.33
13.09
12.34
10.94
8.97
6.65
4.23
1.83
-0.61
-3.2
-6.03
-9.05
-12.04
-14.78
-17.2
-19.45
-21.8
-24.47
-27.39
-30.12
-31.97
-32.28
-30.69
-27.29
-22.48
-16.82
-10.78
-4.66
1.35
7.02
11.99
15.83
18.18
18.95
18.39
16.94
15.16
13.5
12.26
11.59
11.46
11.79
12.39
13.01
13.41
13.43
13.0
12.21
11.12
9.81
8.24
6.34
4.08
1.56
-1.07
-3.62
-6.0
-8.25
-10.5
-12.94
-15.62
-18.46
-21.17
-23.35
-24.57
-24.51
-23.0
-20.09
-15.98
-11.0
-5.48
0.17
5.55
10.2
13.67
15.66
16.07
15.13
13.27
11.02
8.84
6.98
5.57
4.59
3.98
3.64
3.53
3.53
3.56
3.49
3.18
2.51
1.41
-0.11
-2.0
-4.13
-6.41
-8.8
-11.34
-14.15
-17.28
-20.74
-24.34
-27.82
-30.73
-32.63
-33.09
-31.77
-28.57
-23.6
-17.19
-9.84
-2.15
5.26
11.76
16.81
20.05
21.42
21.14
19.7
17.69
15.6
13.74
12.24
11.12
10.39
10.03
10.0
10.17
10.35
10.29
9.83
8.9
7.48
5.63
3.39
0.79
-2.09
-5.15
-8.26
-11.31
-14.29
-17.28
-20.4
-23.69
-27.0
-29.93
-31.9
-32.29
-30.62
-26.71
-20.79
-13.4
-5.28
2.88
10.47
17.06
22.34
26.08
28.1
28.4
27.22
25.03
22.45
20.07
18.25
17.08
16.44
16.17
16.17
16.39
16.81
17.33
17.77
17.84
17.33
16.06
13.97
11.15
7.71
3.87
-0.13
-4.05
-7.67
-10.92
-13.85
-16.65
-19.56
-22.75
-26.19
-29.58
-32.36
-33.87
-33.49
-30.91
-26.16
-19.61
-11.84
-3.56
4.54
11.77
17.54
21.4
23.17
23.01
21.39
18.98
16.42
14.25
12.74
11.98
11.89
12.3
13.0
13.71
14.21
14.3
13.9
13.0
11.69
10.04
8.18
6.16
4.03
1.79
-0.59
-3.11
-5.78
-8.61
-11.63
-14.86
-18.34
-21.98
-25.48
-28.37
-30.03
-29.89
-27.64
-23.37
-17.49
-10.64
-3.49
3.41
9.57
14.66
18.34
20.4
20.74
19.5
17.02
13.84
10.58
7.78
5.83
4.86
4.78
5.31
6.09
6.79
7.18
7.13
6.59
5.54
3.98
1.88
-0.68
-3.57
-6.58
-9.52
-12.35
-15.19
-18.29
-21.76
-25.45
-28.86
-31.19
-31.68
-29.83
-25.63
-19.49
-12.1
-4.23
3.47
10.48
16.4
20.91
23.71
24.64
23.74
21.36
18.06
14.55
11.43
9.07
7.55
6.7
6.28
6.04
5.83
5.54
5.03
4.21
3.0
1.42
-0.42
-2.39
-4.48
-6.8
-9.52
-12.78
-16.62
-20.9
-25.37
-29.64
-33.17
-35.28
-35.3
-32.75
-27.58
-20.26
-11.64
-2.68
5.8
13.26
19.43
24.11
27.12
28.33
27.81
25.91
23.18
20.24
17.59
15.53
14.18
13.54
13.54
14.05
14.8
15.42
15.52
14.82
13.25
10.96
8.19
5.22
2.24
-0.65
-3.46
-6.28
-9.27
-12.65
-16.53
-20.85
-25.19
-28.81
-30.81
-30.41
-27.23
-21.49
-13.91
-5.45
2.94
10.57
17.02
22.02
25.4
27.04
26.92
25.28
22.58
19.47
16.57
14.32
12.89
12.24
12.14
12.33
12.59
12.76
12.72
12.36
11.6
10.33
8.47
6.03
3.12
-0.07
-3.32
-6.52
-9.7
-12.97
-16.51
-20.36
-24.33
-28.04
-30.91
-32.35
-31.85
-29.18
-24.43
-17.98
-10.46
-2.58
4.99
11.71
17.21
21.27
23.76
24.67
24.1
22.27
19.52
16.33
13.19
10.55
8.75
7.93
8.05
8.86
10.01
11.1
11.79
11.83
11.05
9.46
7.17
4.43
1.54
-1.27
-3.92
-6.54
-9.42
-12.75
-16.55
-20.5
-24.0
-26.37
-26.98
-25.51
-21.93
-16.53
-9.85
-2.54
4.72
11.29
16.62
20.28
22.01
21.78
19.83
16.66
12.93
9.36
6.52
4.72
3.99
4.1
4.69
5.39
5.85
5.84
5.19
3.9
2.05
-0.21
-2.71
-5.38
-8.27
-11.49
-15.2
-19.39
-23.91
-28.35
-32.07
-34.35
-34.54
-32.3
-27.65
-21.06
-13.29
-5.18
2.55
9.39
15.01
19.18
21.73
22.58
21.81
19.76
16.93
13.88
11.1
8.91
7.47
6.73
6.57
6.71
6.87
6.73
6.06
4.79
2.93
0.63
-1.98
-4.76
-7.66
-10.71
-14.04
-17.79
-22.03
-26.58
-30.98
-34.53
-36.45
-36.12
-33.27
-28.0
-20.73
-12.08
-2.78
6.35
14.5
20.98
25.37
27.64
28.08
27.15
25.33
22.97
20.44
18.04
16.12
14.94
14.55
14.75
15.15
15.3
14.95
14.04
12.62
10.85
8.78
6.44
3.79
0.81
-2.48
-6.04
-9.79
-13.67
-17.68
-21.84
-26.12
-30.36
-34.15
-36.84
-37.73
-36.26
-32.29
-26.11
-18.39
-9.96
-1.55
6.26
13.09
18.64
22.66
24.95
25.48
24.45
22.3
19.68
17.23
15.41
14.46
14.29
14.62
15.09
15.45
15.52
15.29
14.7
13.69
12.11
9.88
7.01
3.68
0.17
-3.26
-6.42
-9.31
-11.98
-14.59
-17.25
-20.08
-23.14
-26.42
-29.79
-32.9
-35.23
-36.13
-35.09
-31.84
-26.43
-19.28
-11.0
-2.34
5.95
13.2
18.88
22.67
24.5
24.57
23.27
21.15
18.72
16.44
14.58
13.32
12.73
12.76
13.33
14.22
15.15
15.82
15.92
15.25
13.75
11.47
8.55
5.19
1.58
-2.06
-5.55
-8.75
-11.64
-14.34
-17.06
-20.04
-23.34
-26.81
-29.94
-32.02
-32.34
-30.39
-26.04
-19.6
-11.69
-3.1
5.38
13.06
19.39
23.88
26.24
26.39
24.61
21.45
17.73
14.21
11.49
9.84
9.28
9.58
10.42
11.4
12.11
12.19
11.42
9.77
7.39
4.56
1.51
-1.61
-4.79
-8.05
-11.45
-15.06
-18.97
-23.26
-27.92
-32.76
-37.32
-40.88
-42.65
-41.91
-38.31
-31.94
-23.35
-13.4
-3.09
6.72
15.41
22.61
28.12
31.82
33.62
33.51
31.79
28.98
25.83
23.03
20.98
19.71
19.0
18.57
18.26
18.06
17.97
17.88
17.52
16.55
14.7
11.88
8.21
3.92
-0.66
-5.26
-9.65
-13.67
-17.3
-20.63
-23.88
-27.25
-30.83
-34.48
-37.75
-39.96
-40.34
-38.24
-33.39
-25.91
-16.39
-5.69
5.24
15.5
24.35
31.17
35.54
37.28
36.57
33.97
30.35
26.68
23.73
21.92
21.25
21.38
21.85
22.19
22.06
21.3
19.98
18.25
16.31
14.19
11.78
8.88
5.4
1.41
-2.77
-6.79
-10.37
-13.45
-16.12
-18.55
-20.83
-23.1
-25.49
-28.18
-31.27
-34.57
-37.51
-39.23
-38.9
-35.97
-30.46
-22.85
-13.9
-4.41
4.93
13.52
20.88
26.54
30.12
31.43
30.53
27.88
24.23
20.47
17.48
15.81
15.59
16.48
17.9
19.25
20.12
20.39
20.04
19.17
17.77
15.85
13.41
10.57
7.48
4.31
1.17
-1.92
-5.01
-8.13
-11.29
-14.46
-17.63
-20.81
-24.06
-27.37
-30.59
-33.37
-35.16
-35.37
-33.52
-29.47
-23.44
-15.98
-7.72
0.69
8.71
15.88
21.71
25.75
27.65
27.38
25.24
21.9
18.13
14.66
12.01
10.37
9.75
9.98
10.8
11.91
12.97
13.63
13.6
12.67
10.79
8.08
4.79
1.27
-2.19
-5.38
-8.29
-11.08
-13.95
-17.14
-20.76
-24.83
-29.18
-33.45
-37.04
-39.21
-39.21
-36.49
-30.97
-23.06
-13.6
-3.63
5.87
14.13
20.65
25.14
27.49
27.77
26.3
23.64
20.47
17.48
15.12
13.56
12.69
12.23
11.9
11.57
11.21
10.87
10.55
10.14
9.44
8.22
6.33
3.73
0.54
-3.03
-6.77
-10.47
-14.04
-17.48
-20.88
-24.37
-28.09
-32.06
-36.01
-39.43
-41.57
-41.69
-39.25
-34.14
-26.71
-17.68
-7.87
1.93
11.1
19.17
25.72
30.36
32.8
32.99
31.25
28.28
24.96
22.08
20.07
18.98
18.57
18.5
18.51
18.47
18.37
18.15
17.67
16.78
15.31
13.15
10.31
6.9
3.09
-0.84
-4.68
-8.25
-11.51
-14.56
-17.63
-20.95
-24.68
-28.78
-32.96
-36.7
-39.26
-39.93
-38.17
-33.85
-27.25
-19.05
-10.1
-1.17
7.13
14.39
20.25
24.4
26.54
26.63
24.89
21.95
18.62
15.66
13.58
12.5
12.23
12.46
12.86
13.22
13.41
13.37
13.02
12.3
11.14
9.5
7.4
4.92
2.14
-0.8
-3.78
-6.72
-9.59
-12.43
-15.36
-18.48
-21.83
-25.33
-28.72
-31.57
-33.32
-33.39
-31.41
-27.28
-21.22
-13.79
-5.69
2.34
9.61
15.57
19.84
22.24
22.85
21.92
19.94
17.38
14.67
12.14
10.0
8.4
7.42
7.1
7.35
7.94
8.62
9.08
9.09
8.5
7.28
5.48
3.24
0.7
-1.98
-4.75
-7.64
-10.79
-14.31
-18.17
-22.21
-26.06
-29.22
-31.15
-31.37
-29.53
-25.54
-19.68
-12.48
-4.71
2.87
9.66
15.26
19.43
22.02
22.92
22.15
19.91
16.69
13.11
9.76
7.05
5.12
3.9
3.21
2.88
2.74
2.6
2.27
1.59
0.49
-0.99
-2.81
-4.95
-7.45
-10.42
-13.9
-17.84
-22.07
-26.33
-30.26
-33.44
-35.41
-35.66
-33.81
-29.69
-23.49
-15.72
-7.13
1.47
9.35
15.89
20.68
23.51
24.4
23.62
21.6
18.88
15.97
13.29
11.14
9.69
8.99
8.9
9.16
9.43
9.36
8.72
7.45
5.63
3.43
1.0
-1.57
-4.29
-7.24
-10.52
-14.16
-18.15
-22.29
-26.25
-29.55
-31.65
-32.08
-30.52
-26.84
-21.15
-13.83
-5.48
3.13
11.14
17.8
22.58
25.25
25.9
24.88
22.67
19.91
17.16
14.86
13.23
12.22
11.65
11.26
10.9
10.5
10.05
9.52
8.77
7.64
5.99
3.82
1.25
-1.6
-4.65
-7.87
-11.36
-15.17
-19.26
-23.4
-27.19
-30.07
-31.45
-30.85
-28.1
-23.36
-17.09
-9.93
-2.54
4.53
10.8
15.9
19.5
21.42
21.69
20.59
18.6
16.28
14.12
12.42
11.25
10.59
10.31
10.29
10.41
10.53
10.48
10.09
9.23
7.83
5.96
3.71
1.22
-1.41
-4.14
-7.0
-10.07
-13.39
-16.88
-20.28
-23.15
-24.97
-25.23
-23.65
-20.22
-15.25
-9.2
-2.7
3.71
9.57
14.55
18.42
20.98
22.13
21.82
20.2
17.6
14.56
11.66
9.38
7.97
7.37
7.33
7.55
7.8
7.95
7.94
7.67
7.0
5.78
3.89
1.36
-1.74
-5.25
-9.08
-13.09
-17.09
-20.8
-23.78
-25.58
-25.77
-24.11
-20.56
-15.37
-8.98
-2.04
4.8
10.91
15.81
19.22
21.07
21.44
20.53
18.65
16.14
13.41
10.85
8.8
7.45
6.79
6.63
6.66
6.57
6.12
5.17
3.77
2.0
-0.0
-2.15
-4.47
-7.04
-9.99
-13.37
-17.13
-21.02
-24.63
-27.41
-28.86
-28.61
-26.49
-22.6
-17.24
-10.88
-4.05
2.7
8.82
13.81
17.32
19.16
19.41
18.39
16.55
14.37
12.21
10.28
8.69
7.51
6.79
6.54
6.66
6.97
7.14
6.9
6.05
4.54
2.46
-0.02
-2.75
-5.58
-8.44
-11.34
-14.32
-17.47
-20.81
-24.18
-27.21
-29.34
-30.01
-28.78
-25.51
-20.42
-13.98
-6.82
0.37
6.97
12.47
16.49
18.85
19.64
19.11
17.66
15.76
13.83
12.18
11.0
10.35
10.18
10.31
10.5
10.5
10.18
9.47
8.43
7.12
5.55
3.71
1.6
-0.75
-3.28
-5.9
-8.62
-11.41
-14.3
-17.22
-20.14
-22.95
-25.61
-28.04
-30.06
-31.37
-31.52
-30.08
-26.84
-21.89
-15.67
-8.79
-1.94
4.33
9.57
13.5
15.98
17.0
16.75
15.51
13.72
11.79
10.11
8.92
8.29
8.13
8.25
8.45
8.56
8.51
8.33
7.99
7.42
6.47
4.99
2.95
0.47
-2.24
-4.94
-7.48
-9.89
-12.29
-14.84
-17.68
-20.8
-24.04
-27.04
-29.33
-30.44
-30.01
-27.91
-24.25
-19.33
-13.54
-7.29
-0.97
4.99
10.12
14.01
16.4
17.27
16.84
15.5
13.7
11.83
10.17
8.93
8.15
7.84
7.87
8.06
8.22
8.17
7.78
6.96
5.64
3.85
1.65
-0.82
-3.42
-6.04
-8.68
-11.44
-14.44
-17.72
-21.24
-24.81
-28.12
-30.76
-32.3
-32.34
-30.57
-26.91
-21.5
-14.74
-7.24
0.33
7.28
13.05
17.26
19.76
20.65
20.24
18.93
17.16
15.3
13.61
12.23
11.23
10.63
10.36
10.33
10.41
10.41
10.14
9.39
7.98
5.86
3.13
0.02
-3.18
-6.26
-9.17
-12.02
-14.99
-18.21
-21.69
-25.35
-28.99
-32.41
-35.28
-37.14
-37.45
-35.73
-31.75
-25.68
-18.08
-9.7
-1.28
6.59
13.5
19.18
23.4
26.03
27.06
26.73
25.45
23.69
21.92
20.44
19.4
18.85
18.71
18.81
18.96
18.96
18.71
18.17
17.36
16.25
14.76
12.73
10.09
6.88
3.31
-0.35
-3.85
-7.12
-10.18
-13.14
-16.15
-19.34
-22.77
-26.42
-30.06
-33.23
-35.28
-35.54
-33.5
-29.01
-22.34
-14.07
-5.0
4.03
12.27
19.09
24.04
26.9
27.75
26.89
24.86
22.31
19.88
18.02
16.99
16.74
17.05
17.63
18.21
18.62
18.77
18.62
18.08
17.02
15.35
13.06
10.27
7.18
3.99
0.84
-2.2
-5.13
-7.96
-10.73
-13.43
-16.15
-18.98
-22.01
-25.22
-28.41
-31.14
-32.78
-32.69
-30.44
-25.91
-19.36
-11.39
-2.72
5.87
13.7
20.23
25.06
27.92
28.77
27.77
25.36
22.16
18.88
16.12
14.26
13.4
13.38
13.93
14.72
15.46
15.88
15.73
14.86
13.19
10.81
7.94
4.88
1.84
-1.05
-3.86
-6.7
-9.72
-13.0
-16.55
-20.35
-24.27
-28.03
-31.13
-32.92
-32.74
-30.18
-25.27
-18.51
-10.74
-2.81
4.63
11.22
16.8
21.19
24.19
25.57
25.22
23.35
20.45
17.21
14.25
12.0
10.55
9.8
9.51
9.51
9.68
9.91
10.0
9.68
8.66
6.7
3.8
0.14
-3.91
-7.98
-11.82
-15.37
-18.81
-22.39
-26.36
-30.78
-35.4
-39.64
-42.7
-43.73
-42.11
-37.62
-30.58
-21.69
-11.84
-1.86
7.57
15.98
22.99
28.25
31.48
32.61
31.85
29.7
26.87
24.04
21.69
20.04
19.07
18.65
18.61
18.83
19.15
19.42
19.43
18.94
17.8
15.97
13.47
10.38
6.72
2.38
-2.78
-8.87
-15.82
-23.32
-30.91
-38.0
-44.07
-48.61
-51.22
-51.53
-49.28
-44.33
-36.84
-27.22
-16.18
-4.59
6.64
16.66
24.77
30.49
33.69
34.55
33.59
31.46
28.79
26.1
23.71
21.8
20.47
19.79
19.71
20.05
20.53
20.81
20.6
19.71
18.1
15.85
13.09
9.97
6.57
2.97
-0.8
-4.71
-8.68
-12.61
-16.42
-20.13
-23.84
-27.66
-31.52
-35.05
-37.54
-38.15
-36.19
-31.41
-24.11
-15.02
-5.1
4.7
13.62
21.09
26.71
30.26
31.67
31.12
29.0
25.93
22.6
19.69
17.63
16.56
16.28
16.42
16.57
16.5
16.21
15.82
15.43
14.94
14.09
12.61
10.33
7.33
3.86
0.21
-3.42
-6.94
-10.32
-13.61
