0
28.23
28.1
27.93
27.93
28.18
28.62
29.1
29.52
29.85
30.07
30.15
29.99
29.38
28.19
26.37
24.04
21.43
18.77
16.18
13.68
11.17
8.53
5.63
2.43
-1.04
-4.7
-8.4
-11.99
-15.34
-18.34
-21.04
-23.59
-26.29
-29.48
-33.45
-38.21
-43.36
-48.06
-51.25
-51.92
-49.52
-44.08
-36.23
-26.95
-17.21
-7.76
0.92
8.6
15.19
20.6
24.8
27.79
29.71
30.78
31.24
31.29
31.07
30.64
30.02
29.28
28.52
27.86
27.41
27.17
27.05
26.93
26.64
26.03
24.98
23.43
21.34
18.78
15.85
12.79
9.8
7.05
4.58
2.33
0.15
-2.09
-4.49
-7.05
-9.7
-12.33
-14.83
-17.13
-19.32
-21.59
-24.25
-27.65
-31.97
-37.07
-42.4
-47.02
-49.85
-49.95
-46.86
-40.75
-32.37
-22.82
-13.2
-4.33
3.35
9.75
14.89
18.88
21.76
23.54
24.31
24.33
23.94
23.52
23.37
23.64
24.29
25.2
26.17
27.06
27.77
28.29
28.62
28.78
28.66
28.09
26.87
24.88
22.15
18.88
15.4
12.03
8.97
6.22
3.62
0.98
-1.83
-4.77
-7.71
-10.45
-12.84
-14.87
-16.67
-18.46
-20.49
-23.01
-26.14
-29.85
-33.96
-38.04
-41.48
-43.48
-43.31
-40.53
-35.16
-27.73
-19.16
-10.39
-2.19
5.03
11.15
16.14
19.97
22.53
23.75
23.71
22.67
21.06
19.29
17.73
16.63
16.07
16.04
16.41
17.0
17.57
17.91
17.88
17.4
16.49
15.22
13.64
11.83
9.76
7.42
4.77
1.82
-1.32
-4.46
-7.39
-9.94
-12.08
-14.0
-15.96
-18.23
-21.0
-24.32
-28.06
-31.89
-35.32
-37.73
-38.44
-36.97
-33.15
-27.24
-19.89
-11.89
-4.0
3.25
9.54
14.73
18.7
21.37
22.72
22.84
21.95
20.34
18.36
16.38
14.73
13.66
13.34
13.7
14.48
15.31
15.8
15.7
14.97
13.74
12.21
10.53
8.75
6.83
4.7
2.29
-0.37
-3.19
-6.01
-8.69
-11.2
-13.61
-16.11
-18.92
-22.2
-26.07
-30.51
-35.37
-40.27
-44.62
-47.6
-48.39
-46.39
-41.52
-34.21
-25.33
-15.93
-6.88
1.2
8.06
13.68
18.2
21.78
24.55
26.6
27.99
28.71
28.86
28.57
28.03
27.41
26.83
26.34
25.96
25.72
25.72
26.0
26.47
26.86
26.8
25.88
23.9
20.91
17.21
13.24
9.4
5.97
3.04
0.49
-1.94
-4.53
-7.53
-10.97
-14.7
-18.36
-21.6
-24.2
-26.22
-28.03
-30.13
-33.05
-37.08
-42.12
-47.61
-52.61
-56.04
-56.94
-54.76
-49.52
-41.75
-32.33
-22.21
-12.24
-3.03
5.04
11.75
17.06
21.06
23.92
25.89
27.22
28.09
28.67
29.07
29.4
29.71
30.05
30.39
30.7
30.97
31.18
31.33
31.42
31.4
31.2
30.72
29.87
28.54
26.68
24.28
21.5
18.52
15.6
12.84
10.24
7.62
4.74
1.47
-2.17
-5.98
-9.67
-13.02
-15.92
-18.41
-20.7
-23.09
-25.89
-29.37
-33.69
-38.84
-44.51
-50.1
-54.74
-57.49
-57.52
-54.48
-48.51
-40.24
-30.6
-20.55
-10.86
-2.07
5.48
11.63
16.35
19.65
21.71
22.76
23.07
22.95
22.64
22.39
22.39
22.8
23.64
24.82
26.15
27.44
28.59
29.57
30.38
30.94
31.07
30.49
28.95
26.42
23.11
19.45
15.88
12.71
9.99
7.5
4.95
2.09
-1.09
-4.46
-7.74
-10.65
-13.08
-15.11
-17.02
-19.17
-21.92
-25.52
-30.01
-35.22
-40.69
-45.66
-49.17
-50.28
-48.34
-43.22
-35.43
-25.92
-15.81
-6.05
2.76
10.37
16.73
21.81
25.51
27.73
28.48
27.96
26.63
25.02
23.67
22.9
22.78
23.11
23.61
24.01
24.24
24.4
24.65
25.06
25.5
25.65
25.15
23.78
21.54
18.65
15.44
12.23
9.21
6.45
3.89
1.43
-1.08
-3.8
-6.82
-10.15
-13.73
-17.41
-21.03
-24.43
-27.57
-30.48
-33.4
-36.6
-40.38
-44.8
-49.56
-53.96
-57.03
-57.79
-55.58
-50.29
-42.41
-32.81
-22.5
-12.41
-3.19
4.81
11.48
16.87
21.08
24.23
26.37
27.58
27.96
27.72
27.14
26.51
26.06
25.93
26.17
26.72
27.49
28.42
29.4
30.31
30.98
31.2
30.79
29.69
28.02
26.05
24.13
22.49
21.15
19.91
18.4
16.33
13.59
10.29
6.71
3.13
-0.25
-3.34
-6.17
-8.8
-11.33
-13.83
-16.38
-19.03
-21.76
-24.55
-27.39
-30.29
-33.4
-36.89
-40.9
-45.4
-50.04
-54.13
-56.72
-56.89
-54.02
-48.04
-39.5
-29.43
-18.99
-9.18
-0.61
6.52
12.25
16.72
20.0
22.09
23.05
23.07
22.49
21.75
21.19
20.99
21.1
21.38
21.68
21.99
22.42
23.11
24.12
25.34
26.48
27.16
27.09
26.13
24.36
22.02
19.42
16.8
14.28
11.84
9.42
6.97
4.45
1.85
-0.89
-3.82
-6.95
-10.16
-13.29
-16.08
-18.45
-20.5
-22.52
-24.92
-28.01
-31.91
-36.47
-41.25
-45.57
-48.66
-49.77
-48.37
-44.29
-37.78
-29.47
-20.21
-10.89
-2.3
5.03
10.79
14.96
17.69
19.22
19.81
19.69
19.04
18.07
16.99
16.04
15.46
15.36
15.72
16.37
17.07
17.6
17.81
17.63
17.1
16.28
15.22
13.96
12.42
10.54
8.23
5.56
2.64
-0.36
-3.31
-6.16
-8.93
-11.66
-14.35
-17.01
-19.67
-22.49
-25.66
-29.31
-33.33
-37.26
-40.4
-41.92
-41.18
-37.92
-32.27
-24.84
-16.4
-7.82
0.19
7.19
12.97
17.52
20.86
23.01
23.94
23.72
22.57
20.89
19.18
17.88
17.21
17.15
17.47
17.93
18.35
18.73
19.12
19.54
19.94
20.08
19.71
18.62
16.79
14.4
11.74
9.11
6.64
4.25
1.73
-1.14
-4.45
-8.07
-11.74
-15.18
-18.23
-20.92
-23.46
-26.12
-29.2
-32.94
-37.41
-42.44
-47.59
-52.12
-55.05
-55.49
-52.88
-47.18
-38.95
-29.2
-19.08
-9.55
-1.23
5.72
11.38
15.95
19.59
22.35
24.24
25.3
25.67
25.55
25.17
24.7
24.27
23.95
23.77
23.76
23.92
24.2
24.55
24.86
25.0
24.84
24.26
23.22
21.75
19.95
17.93
15.82
13.61
11.28
8.74
5.95
2.94
-0.24
-3.52
-6.82
-10.06
-13.13
-15.95
-18.48
-20.79
-23.11
-25.72
-28.94
-32.92
-37.48
-42.14
-46.11
-48.47
-48.43
-45.55
-39.87
-31.9
-22.5
-12.61
-3.06
5.56
12.9
18.83
23.33
26.44
28.31
29.13
29.15
28.63
27.83
26.96
26.19
25.61
25.24
25.02
24.88
24.77
24.72
24.76
24.91
25.1
25.1
24.67
23.59
21.81
19.47
16.76
13.9
10.99
8.03
4.99
1.8
-1.5
-4.85
-8.11
-11.17
-13.97
-16.5
-18.85
-21.22
-23.86
-27.03
-30.9
-35.39
-40.08
-44.26
-47.01
-47.47
-45.08
-39.86
-32.32
-23.38
-14.03
-5.03
3.15
10.33
16.44
21.34
24.85
26.79
27.16
26.14
24.17
21.78
19.47
17.59
16.35
15.73
15.62
15.83
16.17
16.47
16.59
16.45
15.98
15.1
13.75
11.94
9.68
7.04
4.1
0.95
-2.31
-5.59
-8.79
-11.87
-14.88
-17.98
-21.34
-25.12
-29.31
-33.6
-37.47
-40.21
-41.11
-39.75
-36.03
-30.2
-22.8
-14.42
-5.69
2.88
10.78
17.56
22.81
26.29
28.03
28.31
27.63
26.5
25.33
24.35
23.68
23.34
23.3
23.52
23.88
24.21
24.33
24.09
23.43
22.36
20.95
19.22
17.19
14.83
12.14
9.09
5.69
1.97
-1.99
-6.09
-10.12
-13.87
-17.18
-20.05
-22.62
-25.2
-28.1
-31.59
-35.76
-40.44
-45.15
-49.18
-51.63
-51.65
-48.76
-42.94
-34.72
-25.08
-15.11
-5.75
2.41
9.1
14.34
18.28
21.11
23.01
24.17
24.76
24.96
24.92
24.77
24.59
24.4
24.2
23.98
23.79
23.69
23.73
23.84
23.83
23.4
22.32
20.54
18.18
15.56
12.93
10.43
8.01
5.55
2.95
0.19
-2.64
-5.44
-8.14
-10.76
-13.35
-16.02
-18.93
-22.26
-26.19
-30.83
-36.01
-41.25
-45.78
-48.7
-49.19
-46.79
-41.53
-33.96
-24.94
-15.48
-6.47
1.47
8.04
13.22
17.17
20.1
22.24
23.76
24.79
25.44
25.84
26.11
26.32
26.57
26.9
27.31
27.76
28.22
28.58
28.72
28.47
27.67
26.19
24.03
21.3
18.18
14.93
11.69
8.53
5.39
2.2
-1.06
-4.37
-7.62
-10.67
-13.46
-16.01
-18.45
-20.99
-23.92
-27.46
-31.66
-36.31
-40.88
-44.62
-46.71
-46.5
-43.69
-38.41
-31.19
-22.82
-14.1
-5.75
1.75
8.15
13.34
17.29
19.97
21.38
21.61
20.9
19.63
18.23
17.06
16.29
15.94
15.92
16.11
16.38
16.66
16.82
16.82
16.61
16.24
15.72
14.99
13.86
12.05
9.4
5.93
1.97
-1.98
-5.46
-8.26
-10.51
-12.56
-14.85
-17.72
-21.32
-25.49
-29.85
-33.75
-36.49
-37.36
-35.88
-31.93
-25.82
-18.15
-9.74
-1.4
6.2
12.64
17.7
21.39
23.8
25.09
25.43
24.97
23.94
22.6
21.25
20.13
19.37
18.92
18.73
18.69
18.78
19.0
19.33
19.65
19.77
19.48
18.64
17.25
15.35
13.08
10.6
8.03
5.44
2.9
0.39
-2.14
-4.83
-7.8
-11.09
-14.64
-18.25
-21.69
-24.8
-27.63
-30.51
-33.91
-38.24
-43.5
-49.18
-54.22
-57.4
-57.66
-54.53
-48.22
-39.5
-29.39
-18.85
-8.64
0.76
9.01
15.88
21.18
24.84
27.0
27.99
28.31
28.49
28.89
29.62
30.51
31.3
31.75
31.76
31.47
31.06
30.69
30.38
30.03
29.43
28.41
26.88
24.87
22.5
19.93
17.23
14.46
11.57
8.52
5.29
1.93
-1.47
-4.83
-8.08
-11.19
-14.14
-16.86
-19.32
-21.59
-23.87
-26.49
-29.79
-33.95
-38.87
-44.07
-48.79
-52.09
-53.11
-51.3
-46.54
-39.27
-30.29
-20.61
-11.09
-2.33
5.41
12.07
17.62
21.98
25.03
26.79
27.4
27.21
26.59
25.81
25.04
24.33
23.77
23.49
23.64
24.28
25.31
26.43
27.27
27.51
26.95
25.66
23.83
21.76
19.67
17.63
15.55
13.21
10.44
7.18
3.58
-0.13
-3.69
-6.99
-10.01
-12.81
-15.5
-18.18
-21.03
-24.26
-28.13
-32.69
-37.66
-42.36
-45.77
-46.89
-45.03
-40.09
-32.6
-23.49
-13.9
-4.82
3.07
9.41
14.17
17.42
19.33
20.08
19.8
18.74
17.25
15.75
14.64
14.15
14.29
14.84
15.47
15.89
15.99
15.79
15.46
15.14
14.86
14.52
13.93
12.87
11.22
8.98
6.22
3.07
-0.35
-3.92
-7.49
-10.91
-14.08
-17.01
-19.86
-22.93
-26.44
-30.41
-34.48
-37.97
-39.99
-39.75
-36.8
-31.21
-23.51
-14.58
-5.45
2.96
10.06
15.6
19.62
22.29
23.82
24.39
24.16
23.38
22.39
21.52
21.0
20.91
21.15
21.57
22.04
22.5
22.92
23.23
23.31
23.03
22.21
20.79
18.77
16.25
13.4
10.44
7.57
4.89
2.34
-0.24
-3.08
-6.3
-9.84
-13.52
-17.04
-20.21
-23.01
-25.6
-28.29
-31.43
-35.35
-40.18
-45.69
-51.22
-55.73
-58.09
-57.42
-53.4
-46.4
-37.28
-27.12
-16.93
-7.41
1.02
8.14
13.87
18.23
21.31
23.32
24.52
25.18
25.56
25.85
26.15
26.48
26.77
26.96
27.04
27.1
27.24
27.54
27.96
28.3
28.29
27.66
26.29
24.21
21.61
18.74
15.86
13.15
10.67
8.35
6.0
3.43
0.51
-2.74
-6.17
-9.57
-12.77
-15.73
-18.56
-21.48
-24.74
-28.57
-33.07
-38.2
-43.63
-48.73
-52.62
-54.33
-53.12
-48.75
-41.54
-32.34
-22.22
-12.18
-2.96
5.02
11.64
16.92
20.94
23.82
25.74
26.88
27.48
27.77
27.92
27.99
27.95
27.73
27.29
26.69
26.09
25.71
25.66
25.87
26.05
25.85
25.0
23.4
21.17
18.58
15.87
13.21
10.65
8.12
5.49
2.67
-0.4
-3.66
-6.98
-10.14
-13.01
-15.55
-17.84
-20.08
-22.58
-25.59
-29.24
-33.47
-37.89
-41.83
-44.43
-44.88
-42.7
-37.89
-31.01
-22.94
-14.63
-6.81
0.08
5.89
10.61
14.27
16.89
18.44
18.94
18.47
17.25
15.67
14.15
13.08
12.66
12.89
13.57
14.4
15.14
15.71
16.09
16.34
16.38
16.05
15.11
13.39
10.89
7.8
4.45
1.2
-1.74
-4.31
-6.62
-8.86
-11.26
-14.0
-17.25
-21.11
-25.54
-30.26
-34.67
-37.97
-39.29
-38.05
-34.14
-27.95
-20.26
-11.95
-3.81
3.56
9.78
14.68
18.18
20.4
21.5
21.75
21.41
20.73
19.92
19.11
18.41
17.89
17.6
17.56
17.81
18.38
19.25
20.28
21.24
21.81
21.69
20.71
18.88
16.39
13.51
10.48
7.43
4.32
1.08
-2.4
-6.06
-9.78
-13.33
-16.56
-19.4
-21.97
-24.51
-27.28
-30.55
-34.5
-39.13
-44.21
-49.16
-53.13
-55.11
-54.24
-50.13
-43.03
-33.74
-23.39
-13.08
-3.62
4.57
11.39
16.85
21.04
24.02
25.9
26.88
27.21
27.17
26.96
26.7
26.43
26.16
25.91
25.75
25.73
25.86
26.02
26.01
25.62
24.7
23.21
21.24
18.94
16.46
13.91
11.38
8.93
6.6
4.35
2.1
-0.29
-2.94
-5.87
-8.95
-11.98
-14.82
-17.5
-20.25
-23.5
-27.63
-32.79
-38.67
-44.52
-49.26
-51.81
-51.33
-47.58
-40.89
-32.09
-22.22
-12.3
-3.12
4.84
11.41
16.59
20.5
23.27
25.05
26.0
26.34
26.29
26.1
25.92
25.8
25.65
25.36
24.84
24.13
23.35
22.66
22.15
21.73
21.21
20.33
18.92
16.96
14.57
11.9
9.07
6.13
3.01
-0.26
-3.6
-6.79
-9.61
-11.91
-13.76
-15.46
-17.41
-20.0
-23.41
-27.55
-32.04
-36.26
-39.49
-41.04
-40.39
-37.3
-31.95
-24.89
-16.94
-9.01
-1.81
4.23
8.95
12.44
14.82
16.25
16.85
16.8
16.37
15.83
15.41
15.23
15.29
15.5
15.75
16.01
16.29
16.58
16.9
17.16
17.25
17.05
16.37
15.05
13.0
10.24
6.92
3.32
-0.24
-3.52
-6.44
-9.12
-11.86
-15.03
-18.92
-23.68
-29.07
-34.58
-39.37
-42.54
-43.28
-41.15
-36.19
-28.92
-20.25
-11.21
-2.68
4.74
10.82
15.59
19.18
21.64
22.98
23.2
22.46
21.09
19.56
18.3
17.54
17.28
17.31
17.41
17.41
17.27
17.01
16.65
16.12
15.3
14.12
12.52
10.5
8.12
5.41
2.38
-0.98
-4.61
-8.4
-12.15
-15.64
-18.71
-21.41
-23.99
-26.81
-30.22
-34.39
-39.16
-44.07
-48.34
-51.09
-51.55
-49.17
-43.86
-36.0
-26.41
-16.14
-6.23
2.49
9.62
15.14
19.31
22.49
24.93
26.77
28.01
28.68
28.85
28.7
28.4
28.02
27.57
26.98
26.3
25.65
25.25
25.22
25.52
25.82
25.73
24.84
23.01
20.42
17.4
14.31
11.4
8.7
6.09
3.37
0.42
-2.82
-6.25
-9.75
-13.16
-16.33
-19.21
-21.91
-24.6
-27.6
-31.2
-35.58
-40.65
-46.0
-50.87
-54.3
-55.38
-53.46
-48.38
-40.58
-30.92
-20.47
-10.25
-0.97
7.01
13.62
18.93
23.07
26.11
28.16
29.34
29.82
29.84
29.69
29.58
29.65
29.91
30.22
30.47
30.57
30.58
30.61
30.74
30.9
30.85
30.26
28.9
26.75
24.02
21.03
18.07
15.24
12.44
9.5
6.29
2.78
-0.88
-4.51
-7.93
-11.04
-13.84
-16.39
-18.92
-21.66
-24.91
-28.91
-33.72
-39.18
-44.77
-49.71
-53.08
-54.06
-52.15
-47.27
-39.84
-30.64
-20.64
-10.75
-1.69
6.11
12.47
17.43
21.1
23.62
25.12
25.68
25.45
24.61
23.44
22.25
21.31
20.75
20.56
20.58
20.59
20.42
19.98
19.31
18.43
17.37
16.11
14.6
12.8
10.72
8.41
5.95
3.42
0.88
-1.62
-4.07
-6.43
-8.74
-11.07
-13.62
-16.62
-20.25
-24.53
-29.16
-33.54
-36.88
-38.39
-37.46
-33.91
-28.01
-20.42
-12.01
-3.66
3.95
10.44
15.68
19.7
22.54
24.23
24.76
24.21
22.79
20.89
18.94
17.35
16.3
15.84
15.85
16.14
16.57
17.02
17.36
17.47
17.17
16.28
14.63
12.19
9.07
5.55
1.93
-1.51
-4.65
-7.5
-10.18
-12.82
-15.5
-18.27
-21.24
-24.58
-28.46
-32.87
-37.46
-41.54
-44.15
-44.45
-41.97
-36.78
-29.46
-20.9
-12.02
-3.53
4.11
10.69
16.16
20.5
23.66
25.61
26.35
26.06
25.05
23.74
22.53
21.65
21.15
21.01
21.16
21.6
22.27
23.04
23.61
23.69
23.02
21.55
19.42
16.89
14.15
11.33
8.45
5.5
2.51
-0.53
-3.63
-6.87
-10.31
-13.94
-17.63
-21.2
-24.55
-27.73
-31.02
-34.78
-39.22
-44.26
-49.35
-53.5
-55.63
-54.82
-50.7
-43.52
-34.12
-23.63
-13.14
-3.45
5.01
12.13
17.99
22.68
26.24
28.72
30.16
30.72
30.59
30.04
29.32
28.64
28.1
27.72
27.46
27.27
27.16
27.11
27.11
27.07
26.9
26.45
25.6
24.26
22.4
20.04
17.29
14.33
11.39
8.66
6.21
3.94
1.63
-0.98
-4.02
-7.42
-10.96
-14.38
-17.47
-20.17
-22.57
-24.82
-27.22
-30.06
-33.65
-38.1
-43.16
-48.21
-52.24
-54.2
-53.29
-49.25
-42.4
-33.52
-23.59
-13.57
-4.21
4.04
10.96
16.52
20.81
23.95
26.08
27.3
27.75
27.63
27.15
26.55
26.02
25.68
25.54
25.55
25.64
25.76
25.82
25.76
25.49
24.85
23.73
22.08
19.98
17.57
15.05
12.53
9.99
7.3
4.29
0.91
-2.81
-6.61
-10.19
-13.27
-15.71
-17.56
-19.09
-20.76
-23.1
-26.51
-31.1
-36.5
-41.89
-46.13
-48.12
-47.12
-43.02
-36.33
-27.96
-18.97
-10.23
-2.3
4.56
10.26
14.8
18.15
20.28
21.2
21.05
20.13
18.85
17.65
16.9
16.78
17.25
18.13
19.12
19.98
20.51
20.63
20.3
19.5
18.19
16.35
13.97
11.11
7.89
4.48
1.03
-2.33
-5.53
-8.57
-11.46
-14.26
-17.02
-19.91
-23.13
-26.89
-31.16
-35.57
-39.4
-41.72
-41.73
-39.04
-33.83
-26.71
-18.55
-10.16
-2.19
4.96
11.02
15.85
19.36
21.54
22.47
22.34
21.45
20.18
18.93
17.99
17.48
17.31
17.25
17.09
16.72
16.21
15.71
15.32
15.0
14.55
13.68
12.12
9.76
6.66
2.99
-1.0
-5.05
-8.95
-12.58
-15.89
-18.92
-21.82
-24.79
-28.08
-31.9
-36.24
-40.71
-44.58
-46.88
-46.76
-43.82
-38.2
-30.59
-21.89
-12.95
-4.35
3.54
10.51
16.37
20.96
24.17
26.06
26.82
26.78
26.27
25.64
25.18
25.04
25.19
25.53
25.84
25.95
25.8
25.39
24.8
24.06
23.1
21.82
20.16
18.11
15.77
13.25
10.6
7.81
4.82
1.56
-1.94
-5.59
-9.23
-12.7
-15.88
-18.8
-21.56
-24.42
-27.67
-31.57
-36.21
-41.42
-46.62
-50.91
-53.21
-52.59
-48.56
-41.33
-31.73
-21.04
-10.5
-1.09
6.73
12.9
17.65
21.26
23.94
25.83
26.96
27.38
27.22
26.63
25.89
25.23
24.81
24.69
24.77
24.96
25.19
25.45
25.75
25.99
25.93
25.31
23.9
21.71
18.94
15.88
12.82
9.86
6.96
4.01
0.94
-2.25
-5.49
-8.64
-11.63
-14.45
-17.16
-19.9
-22.84
-26.19
-30.06
-34.39
-38.91
-43.09
-46.23
-47.58
-46.55
-42.85
-36.63
-28.49
-19.29
-9.96
-1.27
6.3
12.57
17.53
21.25
23.79
25.28
25.91
25.92
25.62
25.21
24.85
24.58
24.39
24.28
24.26
24.31
24.4
24.48
24.48
24.31
23.86
23.0
21.63
19.7
17.29
14.59
11.78
9.03
6.35
3.66
0.84
-2.16
-5.26
-8.29
-11.12
-13.63
-15.86
-17.92
-20.07
-22.59
-25.79
-29.86
-34.65
-39.62
-43.89
-46.44
-46.4
-43.36
-37.48
-29.47
-20.35
-11.2
-2.88
4.12
9.66
13.85
16.88
18.87
19.88
19.92
19.19
18.03
16.89
16.2
16.2
16.84
17.89
19.04
20.03
20.72
21.05
21.03
20.65
19.87
18.61
16.78
14.31
11.24
7.69
3.86
-0.03
-3.82
-7.45
-10.91
-14.24
-17.44
-20.6
-23.82
-27.3
-31.19
-35.43
-39.66
-43.15
-45.03
-44.52
-41.21
-35.18
-27.04
-17.68
-8.08
0.91
8.74
15.1
19.9
23.17
25.03
25.71
25.47
24.68
23.65
22.61
21.69
20.95
20.41
20.11
20.11
20.45
21.05
21.76
22.36
22.69
22.59
21.97
20.77
18.97
16.6
13.73
10.45
6.85
3.03
-0.92
-4.86
-8.59
-11.93
-14.83
-17.38
-19.8
-22.41
-25.47
-29.12
-33.41
-38.24
-43.36
-48.3
-52.27
-54.38
-53.8
-50.1
-43.44
-34.55
-24.53
-14.5
-5.33
2.54
8.97
14.07
18.0
20.95
23.05
24.46
25.29
25.74
25.94
26.05
26.17
26.36
26.64
27.0
27.45
27.98
28.57
29.13
29.51
29.5
28.91
27.62
25.62
23.01
19.99
16.77
13.54
10.37
7.22
3.99
0.53
-3.2
-7.16
-11.14
-14.91
-18.28
-21.21
-23.81
-26.31
-29.03
-32.26
-36.15
-40.61
-45.2
-49.16
-51.52
-51.4
-48.27
-42.15
-33.64
-23.73
-13.56
-4.1
4.02
10.55
15.54
19.22
21.87
23.72
24.89
25.49
25.59
25.28
24.73
24.11
23.58
23.25
23.16
23.32
23.63
23.97
24.11
23.84
22.99
21.53
19.59
17.36
15.04
12.74
10.44
8.08
5.56
2.81
-0.16
-3.3
-6.51
-9.65
-12.6
-15.33
-17.88
-20.5
-23.47
-27.07
-31.35
-36.0
-40.39
-43.63
-44.86
-43.44
-39.22
-32.55
-24.22
-15.19
-6.39
1.55
8.25
13.6
17.6
20.23
21.51
21.54
20.58
19.04
17.4
16.09
15.33
15.08
15.18
15.39
15.51
15.48
15.31
15.04
14.69
14.19
13.43
12.24
10.53
8.23
5.43
2.27
-1.04
-4.29
-7.32
-10.05
-12.48
-14.75
-17.1
-19.83
-23.19
-27.26
-31.79
-36.19
-39.61
-41.2
-40.31
-36.71
-30.6
-22.57
-13.45
-4.1
4.67
12.23
18.16
22.3
24.8
25.99
26.27
26.07
25.62
25.05
24.34
23.49
22.54
21.62
20.91
20.55
20.57
20.84
21.14
21.27
21.08
20.51
19.58
18.26
16.51
14.28
11.6
8.55
5.29
1.9
-1.6
-5.23
-9.04
-12.96
-16.79
-20.31
-23.36
-25.97
-28.43
-31.13
-34.48
-38.66
-43.52
-48.49
-52.68
-55.1
-54.89
-51.59
-45.3
-36.65
-26.62
-16.29
-6.54
2.04
9.23
15.04
19.63
23.12
25.58
27.05
27.61
27.5
27.03
26.59
26.43
26.64
27.16
27.85
28.58
29.31
30.03
30.67
31.09
31.06
30.39
28.97
26.83
24.15
21.15
18.08
15.15
12.45
9.93
7.41
4.69
1.57
-1.96
-5.81
-9.74
-13.52
-16.95
-19.92
-22.44
-24.65
-26.86
-29.48
-32.89
-37.31
-42.53
-47.88
-52.35
-54.78
-54.3
-50.51
-43.65
-34.51
-24.17
-13.75
-4.11
4.26
11.16
16.63
20.74
23.61
25.31
26.07
26.23
26.15
26.15
26.32
26.6
26.81
26.88
26.89
27.01
27.37
27.93
28.44
28.56
28.0
26.62
24.53
21.89
18.91
15.71
12.35
8.84
5.25
1.61
-1.97
-5.44
-8.74
-11.84
-14.71
-17.33
-19.7
-21.91
-24.14
-26.66
-29.73
-33.43
-37.48
-41.2
-43.67
-44.0
-41.66
-36.67
-29.55
-21.16
-12.41
-4.02
3.51
9.93
15.11
18.94
21.38
22.48
22.39
21.41
19.95
18.42
17.17
16.35
15.94
15.77
15.64
15.41
15.03
14.53
13.94
13.26
12.43
11.38
10.01
8.27
6.17
3.78
1.2
-1.44
-4.02
-6.51
-8.92
-11.29
-13.73
-16.35
-19.29
-22.73
-26.76
-31.32
-36.01
-40.13
-42.78
-43.12
-40.65
-35.39
-27.85
-18.86
-9.38
-0.24
7.97
14.86
20.26
24.14
26.59
27.81
28.07
27.66
26.9
26.02
25.19
24.51
23.99
23.63
23.42
23.37
23.49
23.76
24.06
24.24
24.02
23.13
21.39
18.79
15.5
11.83
8.14
4.65
1.37
-1.83
-5.15
-8.65
-12.25
-15.69
-18.69
-21.1
-22.98
-24.63
-26.47
-28.95
-32.38
-36.82
-41.97
-47.23
-51.7
-54.39
-54.5
-51.61
-45.83
-37.75
-28.33
-18.56
-9.26
-0.9
6.31
12.35
17.27
21.03
23.6
24.99
25.4
25.15
24.64
24.22
24.02
24.03
24.14
24.31
24.55
24.97
25.59
26.34
26.97
27.22
26.86
25.77
24.04
21.81
19.3
16.65
13.91
11.08
8.05
4.76
1.16
-2.64
-6.53
-10.34
-13.91
-17.13
-19.97
-22.47
-24.78
-27.14
-29.84
-33.12
-36.98
-41.12
-44.83
-47.24
-47.51
-45.08
-39.93
-32.49
-23.59
-14.16
-5.03
3.18
10.15
15.75
19.99
22.95
24.74
25.5
25.48
24.95
24.24
23.64
23.33
23.38
23.77
24.36
24.99
25.53
25.91
26.16
26.32
26.46
26.51
26.3
25.58
24.17
21.99
19.18
16.0
12.68
9.35
5.99
2.55
-0.98
-4.51
-7.86
-10.91
-13.59
-15.95
-18.1
-20.21
-22.5
-25.27
-28.74
-33.05
-38.0
-43.03
-47.25
-49.7
-49.62
-46.64
-40.92
-33.05
-23.88
-14.33
-5.2
2.91
9.66
14.95
18.8
21.35
22.73
23.12
22.68
21.61
20.16
18.62
17.3
16.43
16.18
16.48
17.13
17.85
18.36
18.53
18.37
17.96
17.34
16.44
15.07
13.11
10.58
7.66
4.64
1.75
-0.93
-3.47
-5.99
-8.6
-11.36
-14.31
-17.5
-21.0
-24.81
-28.79
-32.51
-35.32
-36.49
-35.42
-31.87
-26.08
-18.69
-10.57
-2.57
4.66
10.81
15.78
19.53
22.01
23.18
23.06
21.88
20.01
17.95
16.18
15.0
14.55
14.76
15.5
16.52
17.57
18.42
18.81
18.6
17.73
16.26
14.32
12.08
9.7
7.26
4.77
2.18
-0.59
-3.58
-6.73
-9.91
-13.0
-15.88
-18.55
-21.13
-23.85
-26.95
-30.68
-35.12
-40.08
-44.99
-48.96
-50.96
-50.13
-46.09
-39.05
-29.84
-19.55
-9.29
0.12
8.19
14.74
19.77
23.35
25.62
26.78
27.12
26.97
26.63
26.34
26.18
26.11
26.01
25.77
25.42
25.07
24.88
24.91
25.09
25.2
24.95
24.14
22.71
20.72
18.36
15.79
13.14
10.49
7.84
5.15
2.33
-0.7
-3.93
-7.3
-10.68
-13.92
-16.89
-19.62
-22.2
-24.81
-27.71
-31.14
-35.25
-39.97
-44.88
-49.23
-52.02
-52.35
-49.66
-43.97
-35.81
-26.1
-15.81
-5.86
3.07
10.55
16.37
20.56
23.31
24.91
25.67
25.87
25.75
25.49
25.27
25.22
25.38
25.68
26.01
26.25
26.42
26.56
26.75
27.01
27.2
27.1
26.45
25.08
22.92
20.1
16.89
13.63
10.65
8.12
6.0
4.04
1.91
-0.65
-3.67
-7.0
-10.35
-13.48
-16.29
-18.86
-21.38
-24.11
-27.24
-30.9
-35.09
-39.53
-43.76
-47.08
-48.73
-48.06
-44.76
-38.97
-31.22
-22.3
-13.09
-4.31
3.53
10.19
15.6
19.74
22.59
24.15
24.51
23.9
22.69
21.32
20.13
19.28
18.76
18.47
18.28
18.07
17.78
17.39
16.91
16.34
15.66
14.83
13.71
12.15
10.04
7.39
4.37
1.18
-1.99
-5.07
-8.07
-10.99
-13.83
-16.57
-19.26
-22.06
-25.17
-28.61
-32.11
-35.06
-36.66
-36.17
-33.2
-27.81
-20.52
-12.1
-3.43
4.72
11.73
17.22
21.0
23.0
23.3
22.16
20.0
17.39
14.93
13.08
12.07
11.86
12.19
12.79
13.43
13.96
14.37
14.65
14.79
14.69
14.22
13.26
11.73
9.69
7.25
4.56
1.78
-1.03
-3.89
-6.82
-9.79
-12.73
-15.53
-18.23
-21.03
-24.22
-28.07
-32.63
-37.6
-42.35
-46.1
-48.0
-47.42
-44.07
-38.04
-29.88
-20.45
-10.72
-1.59
6.31
12.71
17.56
20.97
23.09
24.09
24.22
23.79
23.18
22.74
22.68
22.99
23.52
24.07
24.46
24.66
24.77
24.9
25.1
25.35
25.44
25.15
24.27
22.7
20.47
17.73
14.58
11.13
7.39
3.41
-0.73
-4.86
-8.81
-12.45
-15.73
-18.65
-21.29
-23.74
-26.16
-28.83
-32.02
-35.93
-40.46
-45.1
-48.97
-51.01
-50.35
-46.54
-39.8
-30.88
-20.9
-10.98
-2.0
5.58
11.66
16.38
19.95
22.53
24.23
25.09
25.23
24.85
24.15
23.35
22.65
22.19
22.09
22.39
23.05
23.96
24.94
25.85
26.58
27.11
27.33
27.1
26.23
24.59
22.2
19.28
16.15
13.13
10.39
7.9
5.49
2.93
0.03
-3.28
-6.91
-10.61
-14.07
-17.0
-19.32
-21.14
-22.81
-24.71
-27.19
-30.46
-34.57
-39.31
-44.21
-48.46
-51.03
-50.95
-47.65
-41.16
-32.21
-21.95
-11.61
-2.14
5.9
12.29
17.04
20.27
22.17
23.02
23.11
22.77
22.28
21.81
21.48
21.32
21.31
21.41
21.59
21.9
22.4
23.13
24.04
24.92
25.46
25.38
24.54
23.03
21.05
18.88
16.67
14.44
12.14
9.67
7.01
4.17
1.19
-1.86
-4.98
-8.11
-11.21
-14.26
-17.24
-20.24
-23.42
-26.98
-31.06
-35.55
-40.04
-43.79
-45.91
-45.69
-42.79
-37.44
-30.25
-22.08
-13.74
-5.83
1.25
7.29
12.19
15.9
18.46
19.98
20.62
20.56
20.0
19.15
18.26
17.58
17.27
17.4
17.92
18.63
19.32
19.8
19.9
19.51
18.59
17.19
15.46
13.63
11.89
10.32
8.84
7.18
5.09
2.42
-0.85
-4.52
-8.3
-11.91
-15.2
-18.18
-21.06
-24.19
-27.96
-32.57
-37.89
-43.38
-48.17
-51.23
-51.68
-49.03
-43.31
-35.09
-25.32
-15.08
-5.39
3.06
9.99
15.44
19.64
22.8
25.02
26.31
26.71
26.4
25.69
25.0
24.63
24.72
25.2
25.92
26.68
27.34
27.83
28.17
28.39
28.47
28.35
27.88
26.94
25.4
23.28
20.73
17.94
15.12
12.42
9.86
7.39
4.9
2.28
-0.55
-3.63
-6.93
-10.36
-13.81
-17.22
-20.57
-23.91
-27.29
-30.74
-34.28
-37.97
-41.94
-46.28
-50.83
-55.02
-57.92
-58.47
-55.85
-49.9
-41.18
-30.76
-19.86
-9.47
-0.17
7.83
14.47
19.76
23.69
26.25
27.56
27.89
27.62
27.19
26.94
27.06
27.51
28.17
28.81
29.33
29.71
29.99
30.19
30.25
30.03
29.39
28.28
26.72
24.85
22.76
20.53
18.19
15.71
13.08
10.28
7.31
4.15
0.8
-2.65
-6.12
-9.44
-12.49
-15.18
-17.51
-19.6
-21.66
-23.9
-26.56
-29.8
-33.7
-38.19
-43.01
-47.66
-51.4
-53.37
-52.84
-49.4
-43.17
-34.78
-25.19
-15.37
-6.09
2.2
9.31
15.13
19.57
22.52
23.97
24.07
23.14
21.62
19.91
18.33
17.08
16.26
15.9
15.99
16.44
17.1
17.77
18.23
18.27
17.83
16.91
15.65
14.15
12.5
10.65
8.5
5.91
2.83
-0.64
-4.24
-7.66
-10.65
-13.15
-15.27
-17.27
-19.46
-22.08
-25.24
-28.9
-32.7
-36.1
-38.33
-38.64
-36.55
-31.98
-25.35
-17.39
-8.95
-0.74
6.72
13.12
18.27
22.03
24.38
25.39
25.3
24.46
23.26
22.04
21.05
20.42
20.22
20.41
20.93
21.67
22.53
23.38
24.08
24.52
24.62
24.3
23.59
22.49
21.07
19.3
17.16
14.62
11.76
8.72
5.7
2.82
0.14
-2.44
-5.02
-7.68
-10.4
-13.07
-15.64
-18.08
-20.49
-23.01
-25.8
-28.94
-32.47
-36.41
-40.74
-45.41
-50.13
-54.35
-57.25
-57.94
-55.71
-50.34
-42.18
-32.17
-21.45
-11.11
-1.91
5.82
12.03
16.89
20.57
23.24
25.07
26.19
26.79
27.0
26.94
26.75
26.54
26.44
26.52
26.82
27.31
27.91
28.52
29.03
29.35
29.41
29.15
28.49
27.42
25.93
24.01
21.71
19.06
16.18
13.19
10.22
7.37
4.67
2.08
-0.42
-2.86
-5.22
-7.52
-9.77
-12.04
-14.39
-16.82
-19.31
-21.84
-24.52
-27.52
-31.13
-35.53
-40.59
-45.8
-50.26
-52.97
-53.07
-50.19
-44.51
-36.71
-27.75
-18.59
-9.99
-2.42
3.89
8.91
12.68
15.29
16.84
17.53
17.57
17.24
16.79
16.43
16.3
16.43
16.82
17.4
18.08
18.77
19.37
19.82
20.04
19.94
19.44
18.47
17.02
15.12
12.94
10.61
8.27
5.94
3.56
1.07
-1.58
-4.35
-7.17
-9.95
-12.73
-15.62
-18.82
-22.53
-26.8
-31.42
-35.89
-39.42
-41.16
-40.42
-36.95
-30.99
-23.23
-14.59
-5.96
2.03
8.99
14.79
19.37
22.73
24.86
25.8
25.72
24.91
23.75
22.66
