0
-76.99
-83.94
-86.02
-81.57
-70.14
-52.62
-31.09
-8.16
13.63
32.45
47.34
58.1
65.0
68.47
68.99
67.08
63.37
58.61
53.61
49.03
45.26
42.39
40.26
38.63
37.32
36.23
35.3
34.34
33.03
30.99
27.99
24.03
19.43
14.64
10.05
5.8
1.76
-2.4
-6.98
-12.03
-17.37
-22.6
-27.27
-31.11
-34.11
-36.61
-39.24
-42.85
-48.27
-55.98
-65.82
-76.67
-86.51
-92.81
-93.22
-86.39
-72.43
-52.95
-30.59
-8.25
11.69
27.82
39.68
47.58
52.04
53.66
52.93
50.37
46.59
42.31
38.28
35.03
32.75
31.23
30.04
28.76
27.12
25.14
22.95
20.62
18.05
14.97
11.03
6.11
0.35
-5.81
-11.88
-17.57
-22.83
-27.9
-33.02
-38.24
-43.32
-47.87
-51.59
-54.46
-56.82
-59.28
-62.5
-67.02
-73.04
-80.26
-87.69
-93.72
-96.29
-93.49
-84.15
-68.44
-47.89
-25.01
-2.53
17.39
33.55
45.66
53.95
58.8
60.54
59.51
56.29
51.77
47.05
43.16
40.74
39.86
40.1
40.79
41.18
40.73
39.21
36.62
33.17
29.18
24.94
20.59
16.08
11.23
5.82
-0.22
-6.71
-13.26
-19.35
-24.65
-29.09
-32.91
-36.59
-40.67
-45.64
-51.86
-59.49
-68.31
-77.56
-85.81
-91.14
-91.53
-85.56
-72.92
-54.61
-32.71
-9.8
11.75
30.25
44.86
55.44
62.21
65.59
65.98
63.88
59.97
55.14
50.35
46.4
43.7
42.12
41.14
40.17
38.87
37.28
35.7
34.39
33.29
31.99
29.96
26.88
22.86
18.47
14.4
11.09
8.48
6.06
3.16
-0.68
-5.48
-10.82
-16.1
-20.83
-24.86
-28.45
-32.16
-36.69
-42.75
-50.83
-60.92
-72.28
-83.32
-91.76
-95.21
-91.9
-81.29
-64.33
-43.2
-20.64
0.85
19.49
34.42
45.45
52.81
56.84
57.93
56.57
53.37
49.1
44.54
40.32
36.79
34.02
31.77
29.71
27.51
24.97
22.06
18.83
15.36
11.65
7.68
3.35
-1.34
-6.25
-11.22
-16.05
-20.65
-25.04
-29.34
-33.58
-37.68
-41.42
-44.52
-46.81
-48.38
-49.61
-51.17
-53.83
-58.29
-64.77
-72.76
-80.81
-86.74
-88.17
-83.27
-71.39
-53.45
-31.57
-8.53
13.13
31.62
46.11
56.48
62.98
65.97
65.85
63.17
58.76
53.65
48.9
45.32
43.3
42.66
42.85
43.12
42.83
41.58
39.3
36.18
32.55
28.72
24.89
21.05
17.06
12.7
7.82
2.45
-3.2
-8.78
-13.95
-18.5
-22.48
-26.1
-29.73
-33.77
-38.68
-44.88
-52.61
-61.66
-71.12
-79.28
-84.0
-83.26
-75.89
-62.04
-43.16
-21.56
0.28
20.29
37.14
50.22
59.42
64.92
66.99
66.04
62.61
57.51
51.74
46.37
42.28
39.92
39.15
39.36
39.75
39.74
39.17
38.26
37.29
36.3
34.93
32.64
29.08
24.38
19.18
14.36
10.53
7.74
5.4
2.64
-1.26
-6.48
-12.65
-19.05
-24.97
-30.01
-34.2
-37.93
-41.85
-46.73
-53.31
-62.05
-72.8
-84.51
-95.15
-102.12
-102.95
-96.21
-81.99
-61.96
-38.87
-15.65
5.28
22.46
35.37
44.17
49.31
51.32
50.64
47.75
43.22
37.76
32.18
27.27
23.54
21.14
19.8
19.0
18.21
17.08
15.55
13.72
11.76
9.74
7.59
5.18
2.4
-0.74
-4.17
-7.77
-11.47
-15.25
-19.07
-22.8
-26.3
-29.37
-31.93
-34.13
-36.34
-39.15
-43.25
-49.18
-57.03
-66.17
-75.08
-81.58
-83.35
-78.65
-66.97
-49.32
-27.86
-5.34
15.81
33.93
48.3
58.86
65.87
69.58
70.28
68.36
64.5
59.68
54.95
51.17
48.76
47.63
47.38
47.46
47.38
46.79
45.44
43.13
39.72
35.2
29.71
23.6
17.22
10.85
4.58
-1.65
-7.94
-14.33
-20.75
-27.08
-33.15
-38.81
-44.05
-48.99
-54.0
-59.73
-66.91
-75.99
-86.71
-97.85
-107.22
-112.33
-111.04
-102.4
-86.92
-66.47
-43.67
-21.08
-0.72
16.26
29.41
38.74
44.36
46.44
45.25
41.33
35.59
29.25
23.58
19.57
17.64
17.57
18.62
19.96
20.94
21.35
21.29
20.93
20.24
18.86
16.29
12.1
6.23
-0.85
-8.33
-15.31
-21.13
-25.55
-28.87
-31.75
-35.01
-39.46
-45.66
-53.76
-63.34
-73.28
-81.78
-86.64
-85.85
-78.18
-63.62
-43.53
-20.23
3.67
25.93
45.03
60.22
71.29
78.25
81.26
80.65
77.11
71.7
65.72
60.35
56.38
53.94
52.55
51.35
49.57
46.75
42.93
38.51
33.86
29.08
23.87
17.68
10.1
1.15
-8.58
-18.12
-26.5
-33.19
-38.28
-42.48
-46.85
-52.45
-60.04
-69.78
-81.03
-92.34
-101.5
-105.98
-103.64
-93.37
-75.58
-52.18
-26.02
-0.09
23.28
42.72
57.81
68.6
75.22
77.8
76.61
72.33
66.18
59.63
54.0
49.98
47.5
45.85
44.2
41.97
39.05
35.7
32.28
28.98
25.66
21.9
17.23
11.31
4.21
-3.62
-11.44
-18.46
-24.19
-28.69
-32.58
-36.88
-42.61
-50.49
-60.46
-71.57
-82.0
-89.33
-91.13
-85.59
-72.15
-51.77
-26.77
-0.26
24.74
46.02
62.52
74.18
81.55
85.35
86.14
84.41
80.7
75.8
70.64
66.09
62.7
60.54
59.23
58.2
56.88
54.94
52.27
48.9
44.88
40.27
35.1
29.5
23.67
17.84
12.17
6.68
1.19
-4.53
-10.7
-17.33
-24.23
-31.02
-37.3
-42.81
-47.64
-52.32
-57.74
-64.85
-74.24
-85.63
-97.56
-107.56
-112.7
-110.51
-99.86
-81.37
-57.31
-30.91
-5.34
16.96
34.7
47.61
56.08
60.7
62.06
60.7
57.24
52.42
47.14
42.32
38.64
36.37
35.37
35.13
35.08
34.78
34.07
32.97
31.54
29.72
27.3
24.09
20.06
15.46
10.68
6.1
1.84
-2.22
-6.39
-10.86
-15.57
-20.22
-24.43
-28.01
-31.05
-33.99
-37.47
-42.13
-48.48
-56.58
-65.87
-74.98
-81.88
-84.2
-79.99
-68.35
-49.9
-26.74
-1.83
21.79
41.84
57.12
67.5
73.45
75.69
74.89
71.68
66.79
61.06
55.48
50.85
47.61
45.73
44.75
44.12
43.36
42.26
40.78
38.91
36.54
33.44
29.43
24.44
18.71
12.71
6.96
1.79
-2.8
-7.13
-11.67
-16.76
-22.4
-28.24
-33.74
-38.41
-42.13
-45.22
-48.34
-52.34
-57.95
-65.5
-74.69
-84.43
-92.87
-97.73
-96.87
-88.9
-73.83
-53.04
-29.05
-4.71
17.52
36.03
50.29
60.36
66.64
69.55
69.46
66.92
62.74
58.05
53.97
51.31
50.21
50.2
50.45
50.24
49.34
47.98
46.62
45.51
44.5
43.0
40.34
36.1
30.37
23.66
16.74
10.29
4.71
0.0
-4.15
-8.26
-12.81
-18.07
-23.96
-30.06
-35.76
-40.57
-44.31
-47.32
-50.32
-54.22
-59.83
-67.54
-77.06
-87.32
-96.45
-102.17
-102.32
-95.56
-81.87
-62.69
-40.52
-18.21
1.84
18.18
30.32
38.5
43.18
44.87
43.96
40.94
36.47
31.4
26.61
22.78
20.21
18.75
18.05
17.66
17.3
16.85
16.29
15.61
14.68
13.36
11.54
9.21
6.43
3.3
-0.11
-3.77
-7.66
-11.66
-15.57
-19.22
-22.5
-25.39
-28.0
-30.52
-33.19
-36.4
-40.65
-46.4
-53.81
-62.31
-70.43
-76.06
-76.95
-71.56
-59.63
-42.33
-21.87
-0.86
18.47
34.71
47.17
55.81
60.83
62.52
61.3
57.78
52.77
47.27
42.2
38.27
35.84
34.86
34.95
35.6
36.27
36.49
35.93
34.32
31.58
27.7
22.85
17.37
11.68
6.23
1.3
-3.04
-7.05
-11.12
-15.62
-20.69
-26.14
-31.48
-36.18
-39.94
-42.8
-45.25
-48.0
-51.89
-57.54
-65.1
-73.99
-82.81
-89.47
-91.61
-87.38
-76.02
-58.31
-36.35
-12.94
9.24
28.31
43.45
54.65
62.28
66.78
68.49
67.8
65.31
61.82
58.22
55.18
52.97
51.4
50.05
48.54
46.74
44.76
42.8
40.97
39.09
36.79
33.67
29.51
24.36
18.59
12.71
7.24
2.42
-1.77
-5.72
-9.94
-14.94
-20.9
-27.64
-34.58
-41.05
-46.49
-50.8
-54.39
-58.05
-62.71
-69.16
-77.68
-87.83
-98.32
-107.12
-111.89
-110.61
-102.27
-87.29
-67.42
-45.25
-23.43
-3.91
12.29
24.98
34.44
40.95
44.73
45.92
44.83
42.07
38.5
35.05
32.46
31.09
30.89
31.48
32.36
33.11
33.43
33.23
32.48
31.18
29.3
26.79
23.66
20.03
16.1
12.13
8.33
4.75
1.33
-2.12
-5.77
-9.69
-13.83
-18.06
-22.33
-26.78
-31.82
-37.92
-45.32
-53.67
-61.83
-68.06
-70.47
-67.64
-59.08
-45.35
-27.89
-8.61
10.64
28.3
43.28
54.97
63.11
67.74
69.12
67.7
64.17
59.36
54.19
49.47
45.75
43.15
41.41
40.13
38.94
37.69
36.43
35.23
33.98
32.38
30.01
26.62
22.29
17.39
12.51
8.07
4.24
0.8
-2.67
-6.58
-11.15
-16.3
-21.66
-26.76
-31.17
-34.74
-37.63
-40.4
-43.82
-48.72
-55.62
-64.41
-74.06
-82.72
-88.05
-87.87
-80.88
-67.11
-47.98
-25.89
-3.5
16.93
33.97
47.07
56.34
62.19
65.08
65.43
63.67
60.35
56.22
52.08
48.61
46.17
44.63
43.5
42.18
40.32
37.93
35.31
32.76
30.31
27.57
23.99
19.17
13.14
6.39
-0.35
-6.45
-11.68
-16.21
-20.49
-24.99
-29.94
-35.26
-40.68
-45.81
-50.38
-54.3
-57.72
-61.08
-64.97
-70.04
-76.69
-84.73
-93.24
-100.5
-104.37
-102.83
-94.67
-79.91
-59.87
-36.8
-13.25
8.56
27.13
41.78
52.45
59.43
63.09
63.82
62.07
58.5
53.97
49.44
45.77
43.45
42.52
42.58
43.06
43.39
43.21
42.36
40.75
38.31
34.95
30.67
25.62
20.18
14.76
9.7
5.03
0.53
-4.11
-9.05
-14.22
-19.35
-24.06
-28.2
-31.89
-35.53
-39.66
-44.89
-51.66
-60.06
-69.6
-79.01
-86.33
-89.3
-86.09
-75.9
-59.38
-38.49
-15.81
6.12
25.5
41.36
53.48
61.95
66.99
68.8
67.73
64.38
59.71
54.84
50.83
48.31
47.36
47.47
47.9
47.99
47.4
46.26
44.94
43.74
42.69
41.45
39.47
36.37
32.11
27.14
22.18
17.91
14.6
11.99
9.41
6.08
1.45
-4.49
-11.27
-18.12
-24.35
-29.57
-33.88
-37.79
-42.0
-47.25
-54.15
-62.93
-73.29
-84.23
-93.97
-100.26
-100.94
-94.61
-81.19
-62.04
-39.61
-16.69
4.34
21.97
35.64
45.44
51.77
55.03
55.56
53.74
50.12
45.52
40.82
36.83
34.02
32.38
31.49
30.83
29.97
28.77
27.31
25.72
23.98
21.84
19.01
15.3
10.87
6.11
1.53
-2.56
-6.16
-9.59
-13.29
-17.57
-22.43
-27.58
-32.52
-36.84
-40.33
-43.15
-45.8
-49.08
-53.78
-60.45
-69.01
-78.46
-86.93
-92.05
-91.55
-84.1
-69.7
-49.81
-26.82
-3.4
18.26
36.69
51.26
61.83
68.52
71.58
71.45
68.84
64.66
59.96
55.63
52.26
50.03
48.78
48.11
47.62
47.04
46.25
45.27
44.08
42.57
40.43
37.3
32.97
27.54
21.51
15.6
10.41
6.21
2.73
-0.66
-4.71
-9.84
-16.01
-22.7
-29.17
-34.73
-39.01
-42.11
-44.61
-47.38
-51.48
-57.78
-66.57
-77.25
-88.12
-96.66
-100.14
-96.38
-84.56
-65.47
-41.34
-15.14
10.19
32.49
50.55
64.09
73.4
78.98
81.31
80.84
78.05
73.55
68.14
62.75
58.19
54.98
53.22
52.59
52.59
52.79
52.95
53.07
53.17
53.11
52.49
50.71
47.25
41.94
35.03
27.29
19.64
12.9
7.49
3.3
-0.22
-3.86
-8.34
-14.03
-20.82
-28.19
-35.49
-42.13
-47.88
-52.9
-57.69
-62.92
-69.32
-77.43
-87.36
-98.5
-109.35
-117.62
-120.81
-116.9
-105.12
-86.33
-62.84
-37.67
-13.66
7.16
23.86
36.36
45.02
50.27
52.48
52.02
49.43
45.43
40.91
36.74
33.51
31.5
30.61
30.46
30.58
30.52
29.9
28.54
26.41
23.56
20.1
16.06
11.36
5.85
-0.58
-7.86
-15.65
-23.38
-30.48
-36.54
-41.44
-45.39
-48.77
-52.08
-55.79
-60.32
-65.96
-72.7
-79.96
-86.49
-90.53
-90.2
-84.17
-72.15
-55.0
-34.52
-12.86
7.98
26.47
41.65
52.94
60.05
62.95
61.95
57.82
51.73
45.07
39.12
34.73
32.13
31.01
30.74
30.67
30.39
29.8
28.99
28.01
26.79
24.99
22.25
18.27
13.01
6.77
0.06
-6.5
-12.34
-17.2
-21.15
-24.61
-28.3
-33.03
-39.52
-48.04
-58.12
-68.37
-76.61
-80.39
-77.72
-67.8
-51.31
-30.24
-7.24
15.1
34.9
51.21
63.7
72.39
77.37
78.71
76.73
72.08
65.88
59.38
53.65
49.27
46.19
43.85
41.61
39.03
36.06
33.01
30.22
27.78
25.34
22.29
17.96
11.99
4.55
-3.69
-11.81
-18.95
-24.65
-29.05
-32.81
-36.94
-42.49
-50.17
-60.08
-71.42
-82.49
-90.94
-94.28
-90.68
-79.46
-61.47
-38.85
-14.45
8.96
29.32
45.55
57.5
65.56
70.22
71.91
70.95
67.75
63.01
57.66
52.75
49.11
47.09
46.46
46.53
46.54
45.91
44.46
42.36
39.87
37.23
34.33
30.88
26.44
20.67
13.55
5.44
-3.01
-11.02
-18.03
-23.83
-28.63
-32.99
-37.64
-43.36
-50.72
-59.98
-70.83
-82.27
-92.51
-99.25
-100.27
-94.07
-80.48
-60.86
-37.73
-14.08
7.5
25.37
39.01
48.66
54.81
57.88
58.05
55.47
50.6
44.3
37.71
31.95
27.65
24.86
23.13
21.81
20.4
18.66
16.66
14.49
12.25
9.92
7.42
4.59
1.29
-2.66
-7.32
-12.54
-17.98
-23.14
-27.57
-31.09
-33.88
-36.37
-39.13
-42.64
-47.26
-53.22
-60.51
-68.69
-76.67
-82.68
-84.59
-80.57
-69.75
-52.68
-31.25
-8.15
13.99
33.23
48.57
59.82
67.17
70.9
71.28
68.72
63.98
58.13
52.44
47.91
45.09
43.89
43.7
43.7
43.21
41.9
39.75
37.06
34.12
31.12
28.0
24.5
20.28
15.06
8.84
1.94
-5.11
-11.75
-17.55
-22.43
-26.6
-30.51
-34.65
-39.54
-45.65
-53.23
-62.17
-71.68
-80.17
-85.47
-85.35
-78.32
-64.24
-44.48
-21.55
1.67
22.65
39.81
52.49
60.78
65.12
66.1
64.35
60.5
55.31
49.57
44.1
39.56
36.41
34.8
34.54
35.22
36.27
37.17
37.57
37.25
36.14
34.23
31.58
28.25
24.37
20.04
15.36
10.35
4.96
-0.82
-6.92
-13.16
-19.23
-24.9
-30.04
-34.79
-39.52
-44.78
-51.16
-59.07
-68.44
-78.47
-87.52
-93.43
-94.01
-87.84
-74.78
-56.2
-34.54
-12.62
7.17
23.36
35.54
43.95
49.01
51.03
50.11
46.43
40.56
33.53
26.72
21.37
18.18
17.03
17.14
17.47
17.26
16.16
14.3
12.01
9.48
6.73
3.55
-0.21
-4.58
-9.46
-14.62
-19.82
-24.82
-29.46
-33.58
-37.11
-40.02
-42.45
-44.66
-47.09
-50.25
-54.64
-60.59
-67.88
-75.58
-81.96
-84.85
-82.29
-73.24
-58.03
-38.36
-16.71
4.47
23.34
38.92
50.86
59.1
63.6
64.37
61.73
56.45
49.77
43.1
37.63
34.03
32.31
31.98
32.28
32.49
32.13
30.99
29.13
26.69
23.8
20.46
16.57
11.98
6.67
0.73
-5.54
-11.84
-17.85
-23.38
-28.39
-33.05
-37.71
-42.84
-48.95
-56.49
-65.54
-75.58
-85.36
-92.95
-96.2
-93.29
-83.39
-66.99
-45.86
-22.51
0.48
21.07
38.08
51.01
59.88
64.91
66.43
64.95
61.24
56.27
51.06
46.39
42.67
39.97
38.11
36.89
36.13
35.68
35.34
34.78
33.64
31.57
28.45
24.38
19.68
14.7
9.76
5.06
0.62
-3.62
-7.78
-12.0
-16.33
-20.69
-24.87
-28.64
-31.88
-34.79
-37.98
-42.32
-48.68
-57.35
-67.67
-77.9
-85.55
-88.11
-83.8
-72.22
-54.46
-32.71
-9.63
12.34
31.46
46.77
57.98
65.18
68.66
68.89
66.47
62.24
57.13
52.03
47.64
44.3
42.0
40.49
39.44
38.64
37.99
37.41
36.72
35.54
33.41
29.91
24.9
18.69
11.84
5.01
-1.35
-7.15
-12.67
-18.3
-24.34
-30.78
-37.37
-43.68
-49.32
-54.06
-57.93
-61.3
-64.82
-69.35
-75.59
-83.66
-92.71
-100.82
-105.41
-104.04
-95.22
-78.99
-56.94
-31.7
-6.13
17.33
37.08
52.36
63.0
69.21
71.45
70.4
66.97
62.28
57.47
53.47
50.83
49.61
49.45
49.86
50.33
50.56
50.42
49.84
48.7
46.77
43.83
39.79
34.75
29.08
23.17
17.32
11.57
5.75
-0.4
-6.97
-13.83
-20.56
-26.73
-32.04
-36.5
-40.49
-44.62
-49.64
-56.2
-64.64
-74.66
-85.14
-94.13
-99.22
-98.13
-89.51
-73.48
-51.69
-26.87
-1.98
20.56
39.33
53.83
64.18
70.63
73.46
72.97
69.73
64.69
59.1
54.12
50.58
48.66
47.98
47.9
47.79
47.31
46.45
45.31
43.96
42.32
40.1
36.96
32.73
27.47
21.54
15.48
9.86
5.06
1.17
-2.11
-5.37
-9.21
-13.91
-19.28
-24.7
-29.39
-32.88
-35.25
-37.22
-39.87
-44.23
-50.97
-60.03
-70.61
-81.08
-89.29
-92.91
-90.02
-79.74
-62.56
-40.33
-15.78
8.25
29.53
46.76
59.58
68.16
72.92
74.31
72.85
69.2
64.19
58.77
53.73
49.63
46.56
44.32
42.5
40.79
39.01
37.15
35.23
33.24
30.97
28.14
24.52
20.09
15.07
9.89
4.97
0.54
-3.53
-7.64
-12.26
-17.68
-23.85
-30.36
-36.58
-41.97
-46.33
-49.93
-53.49
-57.91
-64.02
-72.21
-82.22
-92.94
-102.58
-108.89
-109.75
-103.68
-90.37
-70.86
-47.3
-22.36
1.41
22.1
38.75
51.07
59.27
63.69
64.8
63.2
59.76
55.5
51.37
48.04
45.77
44.42
43.72
43.41
43.32
43.36
43.37
43.03
41.96
39.77
36.33
31.79
26.53
21.06
15.8
10.92
6.36
1.86
-2.95
-8.25
-14.01
-19.94
-25.6
-30.54
-34.54
-37.76
-40.72
-44.26
-49.26
-56.29
-65.23
-75.08
-83.94
-89.43
-89.36
-82.33
-68.3
-48.6
-25.54
-1.83
20.18
38.84
53.39
63.73
70.19
73.19
73.18
70.69
66.4
61.24
56.23
52.27
49.87
48.99
49.02
49.15
48.71
47.4
45.36
43.01
40.7
38.55
36.34
33.65
30.16
25.72
20.55
15.14
10.1
5.89
2.63
0.04
-2.54
-5.76
-10.08
-15.44
-21.41
-27.32
-32.58
-36.95
-40.56
-43.87
-47.45
-51.92
-57.83
-65.51
-74.81
-84.88
-93.97
-99.72
-99.8
-92.65
-78.15
-57.8
-34.19
-10.27
11.45
29.44
43.12
52.57
58.23
60.6
60.25
57.89
54.33
50.39
46.7
43.55
40.9
38.5
36.05
33.42
30.68
28.03
25.61
23.41
21.1
18.24
14.43
9.54
3.82
-2.22
-7.96
-12.99
-17.23
-20.97
-24.68
-28.73
-33.2
-37.81
-42.06
-45.48
-47.84
-49.31
-50.38
-51.8
-54.36
-58.68
-64.96
-72.68
-80.55
-86.51
-88.28
-84.0
-72.86
-55.51
-33.91
-10.74
11.37
30.46
45.48
56.22
62.93
66.09
66.26
64.13
60.55
56.45
52.65
49.67
47.6
46.21
45.17
44.22
43.29
42.41
41.53
40.44
38.75
36.07
32.17
27.14
21.35
15.36
9.71
4.72
0.39
-3.57
-7.63
-12.18
-17.3
-22.78
-28.08
-32.71
-36.41
-39.41
-42.39
-46.32
-52.17
-60.45
-70.93
-82.4
-92.74
-99.38
-99.98
-93.11
-78.79
-58.46
-34.64
-10.13
12.61
31.95
47.15
58.13
65.17
68.71
69.24
67.36
63.91
59.78
55.88
52.87
51.02
50.13
49.78
49.49
48.99
48.28
47.47
46.63
45.59
43.9
41.1
36.86
31.3
24.93
18.53
12.81
8.09
4.24
0.68
-3.33
-8.35
-14.52
-21.49
-28.54
-34.93
-40.12
-44.12
-47.4
-50.8
-55.34
-61.83
-70.68
-81.52
-93.16
-103.54
-110.22
-110.96
-104.43
-90.75
-71.48
-49.16
-26.55
-5.91
11.4
24.93
34.75
41.17
44.47
44.97
43.16
39.75
35.59
31.53
28.23
26.04
25.01
25.0
25.69
26.69
27.54
27.87
27.34
25.84
23.43
20.26
16.52
12.33
7.76
2.87
-2.21
-7.27
-12.07
-16.46
-20.37
-23.81
-26.88
-29.65
-32.3
-35.18
-38.84
-43.93
-50.82
-59.21
-67.86
-74.68
-77.27
-73.71
-63.22
-46.53
-25.62
-3.16
18.3
36.86
51.55
62.18
69.04
72.53
73.1
71.16
67.24
62.08
56.53
51.46
47.52
44.94
43.57
42.99
42.72
42.35
41.57
40.13
37.77
34.3
29.68
24.17
18.25
12.47
7.17
2.37
-2.21
-6.91
-11.92
-17.17
-22.41
-27.3
-31.67
-35.53
-39.13
-42.97
-47.67
-53.88
-61.94
-71.6
-81.64
-89.99
-94.17
-92.05
-82.58
-66.19
-44.6
-20.32
4.06
26.49
45.6
60.79
71.88
79.02
82.51
82.82
80.58
76.59
71.74
66.86
62.61
59.27
56.75
54.65
52.55
50.21
47.72
45.33
43.19
41.14
38.66
35.11
30.08
23.7
16.53
9.4
2.94
-2.7
-7.86
-13.1
-18.92
-25.44
-32.37
-39.18
-45.31
-50.39
-54.44
-57.84
-61.35
-65.88
-72.3
-80.98
-91.46
-102.27
-111.02
-115.07
-112.31
-101.92
-84.65
-62.63
-38.66
-15.4
5.22
22.23
35.39
44.92
51.14
54.39
55.12
53.91
51.51
48.8
46.53
45.12
44.64
44.74
44.9
44.64
43.71
42.23
40.58
39.17
38.15
37.21
35.6
32.42
26.93
19.07
9.46
-0.66
-9.9
-17.18
-21.98
-24.45
-25.23
-25.2
-25.33
-26.62
-29.99
-36.02
-44.61
-54.66
-64.08
-70.22
-70.66
-64.06
-50.63
-32.1
-11.08
9.71
28.2
43.26
54.63
62.6
67.51
69.68
69.28
66.62
62.26
57.03
51.98
47.99
45.59
44.77
45.02
45.59
45.73
44.77
42.3
38.14
32.41
25.54
18.18
11.06
4.79
-0.34
-4.38
-7.62
-10.45
-13.26
-16.33
-19.84
-23.85
-28.28
-33.02
-37.93
-43.06
-48.75
-55.62
-64.23
-74.64
-85.94
-96.12
-102.52
-102.57
-94.79
-79.35
-58.13
-34.08
-10.25
10.97
28.33
41.53
50.84
56.6
59.05
58.39
55.0
49.58
43.15
36.81
31.45
27.5
24.9
23.18
21.7
19.88
17.4
14.29
10.75
7.05
3.31
-0.58
-4.85
-9.76
-15.38
-21.54
-27.84
-33.8
-39.04
-43.36
-46.77
-49.37
-51.4
-53.2
-55.31
-58.42
-63.16
-69.7
-77.42
-84.74
-89.43
-89.18
-82.47
-69.08
-50.22
-28.22
-5.77
14.83
32.14
45.71
55.79
62.84
67.17
68.84
67.81
64.31
59.04
53.13
47.82
43.98
41.76
40.61
39.62
38.02
35.53
32.41
29.21
26.38
24.02
21.8
19.13
15.44
10.42
4.15
-2.88
-10.0
-16.52
-21.99
-26.39
-30.14
-33.95
-38.64
-44.88
-52.91
-62.4
-72.43
-81.4
-87.36
-88.36
-82.95
-70.78
-52.71
-30.72
-7.36
14.92
34.32
49.91
61.55
69.51
74.19
75.91
74.98
71.85
67.21
62.01
57.23
53.58
51.35
50.29
49.86
49.5
48.88
47.86
46.44
44.49
41.69
37.7
32.36
25.89
18.95
12.34
6.7
2.22
-1.44
-4.94
-8.96
-13.88
-19.66
-25.93
-32.18
-38.06
-43.55
-49.04
-55.26
-63.02
-72.78
-84.32
-96.37
-106.77
-112.86
-112.33
-104.02
-88.34
-67.23
-43.6
-20.37
0.22
16.99
29.76
38.87
44.85
48.09
48.92
47.7
44.99
41.51
37.99
34.99
32.7
31.04
29.72
28.47
27.17
25.86
24.64
23.55
22.49
21.24
19.58
17.29
14.31
10.69
6.57
2.13
-2.43
-6.91
-11.15
-15.05
-18.62
-22.04
-25.58
-29.64
-34.6
-40.79
-48.4
-57.42
-67.35
-77.0
-84.53
-87.7
-84.53
-74.08
-56.87
-34.84
-10.79
12.51
33.09
49.94
62.87
72.08
77.79
80.14
79.39
76.12
71.2
65.73
60.62
56.38
53.02
50.23
47.66
45.2
42.98
41.26
40.13
39.35
38.31
36.35
33.07
28.53
23.25
17.84
12.76
8.09
3.5
-1.49
-7.3
-14.03
-21.5
-29.23
-36.62
-43.14
-48.45
-52.6
-56.07
-59.7
-64.43
-70.81
-78.52
-86.16
-91.4
-91.69
-85.11
-71.08
-50.64
-26.17
-0.66
23.11
43.2
58.64
69.39
75.9
78.79
78.71
76.26
72.08
66.93
61.57
56.75
53.02
50.58
49.31
48.82
48.67
48.54
48.23
47.62
46.49
44.46
41.02
35.8
28.78
20.49
11.9
4.14
-1.91
-6.04
-8.73
-11.05
-14.24
-19.21
-26.2
-34.75
-43.81
-52.3
-59.44
-65.09
-69.77
-74.5
-80.32
-87.93
-97.22
-107.08
-115.49
-119.93
-118.09
-108.67
-91.92
-69.7
-45.1
-21.55
-1.84
12.58
21.83
27.34
31.16
35.11
40.29
46.84
54.15
61.26
67.31
71.77
74.38
75.02
73.59
69.99
64.32
56.96
48.59
39.99
31.88
24.7
18.65
13.69
9.7
6.46
3.67
0.95
-2.07
-5.61
-9.66
-13.98
-18.22
-22.12
-25.64
-29.07
-32.95
-37.97
-44.81
-53.83
-64.75
-76.39
-86.69
-93.1
-93.33
-86.09
-71.62
-51.62
-28.68
-5.47
15.9
34.19
48.92
60.01
67.52
71.57
72.44
70.66
67.08
62.64
58.21
54.32
51.11
48.4
45.88
43.33
40.74
38.3
36.29
34.82
33.7
32.4
30.24
26.67
21.61
15.47
9.1
3.42
-0.99
-4.06
-6.32
-8.55
-11.49
-15.51
-20.5
-25.9
-30.97
-35.11
-38.15
-40.38
-42.59
-45.81
-51.02
-58.77
-68.76
-79.76
-89.54
-95.47
-95.15
-87.23
-71.88
-50.83
-26.82
-2.79
18.83
36.6
50.1
59.62
65.79
69.22
70.38
69.6
67.14
63.33
58.6
53.48
48.45
43.83
39.68
35.88
32.3
28.99
26.16
24.03
22.59
21.45
19.93
17.34
13.34
8.09
2.16
-3.78
-9.2
-14.03
-18.51
-23.09
-28.13
-33.75
-39.77
-45.77
-51.29
-55.99
-59.81
-63.04
-66.28
-70.32
-75.9
-83.39
-92.47
-101.98
-109.87
-113.7
-111.28
-101.39
-84.3
-61.75
-36.42
-11.15
11.76
30.9
45.74
56.33
62.98
66.12
66.26
64.12
60.58
56.56
52.8
49.7
47.27
45.28
43.43
41.59
39.89
38.59
37.95
37.95
38.24
38.17
37.05
34.35
29.89
23.84
16.55
8.47
0.0
-8.47
-16.52
-23.7
-29.62
-34.15
-37.53
-40.42
-43.83
-48.74
-55.93
-65.47
-76.53
-87.26
-95.18
-97.71
-93.0
-80.55
-61.4
-37.84
-12.73
11.26
32.1
48.7
60.72
68.34
72.02
72.39
70.16
66.06
60.87
55.31
50.07
45.65
42.33
40.06
38.6
37.59
36.78
36.03
35.3
34.41
33.05
30.73
27.06
22.0
15.97
9.67
3.86
-1.07
-5.19
-9.0
-13.08
-17.81
-23.21
-28.88
-34.29
-38.95
-42.71
-45.81
-48.98
-53.2
-59.4
-67.98
-78.32
-88.62
-96.1
-97.78
-91.44
-76.52
-54.42
-28.15
-1.35
22.77
42.27
56.63
66.47
72.85
76.71
78.62
78.75
77.16
74.02
69.67
64.62
59.37
54.27
49.52
45.28
41.74
39.12
37.58
36.99
36.86
36.33
34.49
30.71
25.01
17.96
10.56
3.71
-2.18
-7.31
-12.37
-18.07
-24.74
-32.14
-39.56
-46.2
-51.52
-55.51
-58.68
-61.92
-66.25
-72.52
-81.1
-91.66
-102.93
-112.79
-118.71
-118.4
-110.53
-95.22
-74.02
-49.44
-24.27
-0.89
19.13
35.03
46.67
54.21
57.89
58.08
55.43
50.87
45.63
40.98
37.88
36.7
37.1
38.17
38.84
38.23
36.0
32.42
28.18
24.08
20.64
17.89
15.41
12.51
8.64
3.6
-2.33
-8.6
-14.56
-19.84
-24.38
-28.49
-32.65
-37.42
-43.34
-50.75
-59.65
-69.41
-78.62
-85.22
-86.95
-82.01
-69.7
-50.8
-27.39
-2.36
21.47
41.9
57.82
69.05
76.02
79.34
79.6
77.25
72.88
67.19
61.14
55.67
51.41
48.52
46.65
45.22
43.71
41.89
39.87
37.86
36.03
34.31
32.51
30.27
27.33
23.41
18.36
12.07
4.65
-3.53
-11.87
-19.66
-26.28
-31.52
-35.59
-39.08
-42.83
-47.71
-54.41
-63.21
-73.61
-84.2
-92.68
-96.27
-92.6
-80.52
-60.68
-35.43
-8.07
18.05
40.47
57.95
70.33
78.03
81.68
81.84
79.06
74.04
67.63
60.86
54.66
49.75
46.41
44.46
43.41
42.59
41.43
39.62
37.15
34.23
31.13
28.01
24.82
21.33
17.34
12.75
7.62
2.18
-3.34
-8.75
-13.88
-18.57
-22.66
-26.09
-28.98
-31.85
-35.44
-40.59
-47.79
-56.78
-66.37
-74.46
-78.57
-76.42
-66.68
-49.3
-25.55
2.34
31.83
60.58
86.78
109.19
127.0
139.78
147.51
150.68
150.33
147.9
144.92
142.68
141.92
142.74
144.49
145.88
145.33
141.4
133.46
121.96
108.35
94.45
81.51
69.72
58.13
45.45
30.88
14.61
-2.3
-18.64
-33.79
-48.04
-62.27
-77.38
-93.75
-111.2
-129.21
-147.26
-164.81
-181.07
-194.64
-203.59
-205.79
-199.81
-185.63
-164.89
-140.54
-115.99
-94.02
-76.23
-62.77
-52.8
-45.0
-38.2
-31.66
-25.1
-18.6
-12.31
-6.27
-0.28
6.03
13.04
20.93
29.44
37.91
45.38
50.93
53.99
54.47
52.78
49.64
45.82
41.91
38.25
34.87
31.53
27.87
23.48
18.01
11.26
3.3
-5.5
-14.53
-23.13
-30.74
-37.24
-43.05
-48.91
-55.48
-62.74
-69.62
-74.22
-74.43
-68.77
-57.1
-40.64
-21.58
-2.21
15.7
31.15
43.71
53.19
59.31
61.7
60.1
54.73
46.28
35.88
24.76
14.03
4.5
-3.33
-9.29
-13.35
-15.73
-16.81
-17.16
-17.42
-18.22
-19.99
-22.97
-27.21
-32.63
-39.15
-46.63
-54.98
-64.01
-73.5
-83.16
-92.62
-101.46
-109.25
-115.71
-120.88
-125.19
-129.54
-134.98
-142.34
-151.61
-161.6
-170.03
-174.01
-171.13
-160.35
-142.44
-119.83
-95.81
-73.43
-54.69
-40.25
-29.63
-21.86
-15.95
-11.31
-7.6
-4.61
-1.93
1.09
5.17
10.81
17.93
25.88
33.55
39.9
44.31
46.75
47.69
47.7
47.15
46.08
44.37
41.88
38.66
34.91
30.86
26.58
22.01
17.02
11.56
5.66
-0.54
-6.92
-13.55
-20.64
-28.49
-37.19
-46.23
-54.41
-59.96
-60.98
-56.12
-45.11
-28.92
-9.49
10.81
29.88
46.31
59.5
69.49
76.72
81.8
85.27
87.68
89.51
91.15
92.84
94.63
96.38
97.76
98.41
98.03
96.53
94.09
91.03
87.62
84.03
80.19
75.89
70.93
65.23
58.88
52.08
45.05
37.87
30.58
23.1
15.43
7.6
-0.23
-7.87
-15.15
-22.02
-28.67
-35.55
-43.37
-52.89
-64.51
-77.87
-91.5
-102.89
-109.03
-107.35
-96.63
-77.52
-52.34
-24.42
2.9
27.05
46.65
61.34
71.35
77.18
79.33
78.31
74.81
69.68
63.95
58.63
54.46
51.78
50.46
50.0
49.78
49.22
48.0
46.0
43.27
39.82
35.59
30.42
24.2
16.95
8.99
0.86
-6.77
-13.28
-18.34
-21.97
-24.58
-26.83
-29.39
-32.8
-37.3
-43.0
-49.93
-58.12
-67.51
-77.63
-87.25
-94.33
-96.32
-90.93
-76.91
-54.66
-26.32
4.8
35.16
61.8
82.93
97.85
106.68
109.83
107.89
101.58
91.96
80.62
69.43
60.22
54.2
51.66
51.87
53.49
55.03
55.33
53.87
50.72
46.42
41.66
37.02
32.75
28.69
24.36
19.23
12.98
5.68
-2.14
-9.77
-16.6
-22.44
-27.59
-32.71
-38.63
-46.07
-55.49
-66.82
-79.31
-91.3
-100.38
-103.82
-99.37
-86.06
-64.72
-37.81
-8.78
18.98
42.94
61.84
75.51
84.47
89.42
90.99
89.77
86.41
81.77
76.83
72.48
69.25
67.23
66.06
65.18
64.1
62.6
60.7
58.52
56.06
53.1
49.19
43.94
37.22
29.32
20.83
12.5
4.86
-1.96
-8.2
-14.3
-20.59
-27.09
-33.52
-39.49
-44.75
-49.38
-53.84
-58.9
-65.38
-73.96
-84.78
-97.18
-109.55
-119.48
-124.25
-121.62
-110.63
-91.97
-67.86
-41.41
-15.69
6.97
25.31
38.96
48.07
52.93
53.9
51.46
46.42
39.96
33.46
28.18
24.91
23.76
24.18
25.28
26.12
26.14
25.22
23.62
21.73
19.79
17.75
15.29
12.05
7.84
2.84
-2.48
-7.53
-11.85
-15.35
-18.3
-21.2
-24.58
-28.93
-34.59
-41.85
-50.91
-61.67
-73.42
-84.65
-93.09
-96.11
-91.63
-78.82
-58.57
-33.32
-6.42
18.87
40.15
56.28
67.18
73.44
75.8
74.95
71.49
66.08
59.57
52.9
46.91
42.14
38.69
36.27
34.4
32.66
30.85
29.05
27.47
26.3
25.55
24.96
24.13
22.64
20.13
16.43
11.5
5.37
-1.76
-9.59
-17.59
-25.09
-31.44
-36.22
-39.46
-41.66
-43.67
-46.49
-50.97
-57.48
-65.64
-74.12
-80.79
-83.16
-79.15
-67.86
-50.01
-27.83
-4.39
