0
49.48
51.23
52.68
53.65
53.97
53.47
52.04
49.55
46.03
41.63
36.59
31.24
25.79
20.42
15.12
9.8
4.27
-1.61
-7.88
-14.38
-20.89
-27.2
-33.22
-39.16
-45.43
-52.58
-61.13
-71.31
-82.97
-95.3
-106.83
-115.59
-119.53
-117.16
-108.09
-93.26
-74.63
-54.59
-35.16
-17.57
-2.26
10.83
21.82
30.66
37.18
41.38
43.65
44.72
45.51
46.83
49.08
52.16
55.61
58.76
61.05
62.2
62.27
61.52
60.26
58.61
56.4
53.33
49.15
43.91
38.02
32.04
26.53
21.72
17.4
13.1
8.27
2.59
-3.91
-10.86
-17.74
-24.17
-30.05
-35.61
-41.37
-47.94
-55.79
-65.23
-76.22
-88.33
-100.63
-111.61
-119.37
-121.99
-118.2
-107.81
-91.98
-72.81
-52.69
-33.56
-16.47
-1.62
11.27
22.45
31.95
39.56
45.13
48.83
51.18
52.9
54.67
56.84
59.37
61.93
64.11
65.6
66.34
66.45
66.17
65.57
64.55
62.79
59.92
55.78
50.51
44.58
38.63
33.25
28.74
25.08
21.88
18.62
14.76
9.95
4.13
-2.49
-9.46
-16.31
-22.72
-28.65
-34.48
-40.79
-48.28
-57.49
-68.54
-80.99
-93.71
-105.02
-112.93
-115.63
-111.93
-101.75
-86.16
-67.08
-46.77
-27.24
-9.76
5.18
17.59
27.65
35.49
41.12
44.69
46.63
47.68
48.72
50.47
53.2
56.67
60.29
63.34
65.37
66.27
66.26
65.65
64.68
63.3
61.22
58.07
53.58
47.95
41.66
35.45
29.98
25.43
21.5
17.51
12.79
7.02
0.38
-6.58
-13.25
-19.28
-24.81
-30.42
-36.81
-44.64
-54.22
-65.42
-77.67
-89.96
-100.84
-108.63
-111.74
-109.03
-100.27
-86.28
-68.76
-49.83
-31.32
-14.42
0.45
13.33
24.33
33.35
40.17
44.66
47.09
48.19
48.92
50.13
52.22
55.14
58.4
61.44
63.8
65.27
65.87
65.76
65.13
63.98
62.19
59.44
55.51
50.42
44.57
38.58
33.08
28.36
24.25
20.18
15.52
9.9
3.39
-3.64
-10.69
-17.41
-23.7
-29.71
-35.8
-42.45
-50.16
-59.37
-70.33
-82.77
-95.83
-107.97
-117.21
-121.59
-119.72
-111.22
-96.86
-78.42
-58.13
-38.06
-19.69
-3.7
9.83
21.12
30.4
37.75
43.21
46.92
49.31
50.96
52.53
54.48
56.88
59.49
61.86
63.56
64.38
64.37
63.81
62.97
62.03
60.9
59.3
56.91
53.51
49.09
43.89
38.32
32.83
27.78
23.27
19.14
15.0
10.41
5.01
-1.23
-8.09
-15.17
-22.07
-28.6
-34.92
-41.38
-48.51
-56.74
-66.37
-77.33
-89.17
-100.86
-110.86
-117.33
-118.61
-113.7
-102.63
-86.56
-67.38
-47.24
-27.93
-10.61
4.22
16.45
26.18
33.47
38.47
41.5
43.13
44.13
45.26
47.02
49.47
52.32
55.07
57.29
58.85
59.76
60.18
60.1
59.33
57.58
54.64
50.53
45.56
40.22
35.01
30.22
25.82
21.53
16.91
11.63
5.57
-1.07
-7.84
-14.34
-20.35
-26.02
-31.8
-38.27
-46.0
-55.3
-66.21
-78.31
-90.59
-101.46
-108.96
-111.21
-107.04
-96.49
-80.84
-62.17
-42.7
-24.19
-7.6
6.71
18.72
28.46
35.92
41.15
44.44
46.34
47.59
48.89
50.71
53.16
55.97
58.75
61.09
62.8
63.9
64.5
64.61
64.06
62.52
59.73
55.62
50.37
44.45
38.34
32.44
26.97
21.9
16.98
11.89
6.19
-0.38
-7.83
-15.84
-23.85
-31.33
-38.05
-44.29
-50.66
-57.96
-66.89
-77.74
-90.23
-103.46
-115.95
-125.7
-130.71
-129.37
-121.1
-106.56
-87.52
-66.35
-45.26
-25.82
-8.7
6.0
18.44
28.7
36.73
42.53
46.34
48.62
50.13
51.58
53.48
56.03
59.04
62.14
64.9
66.99
68.26
68.7
68.37
67.27
65.36
62.6
59.02
54.73
49.99
45.03
40.0
34.99
29.98
24.98
20.03
15.13
10.23
5.14
-0.42
-6.66
-13.61
-21.07
-28.65
-35.94
-42.75
-49.2
-55.69
-62.89
-71.36
-81.45
-93.0
-105.16
-116.45
-124.93
-128.67
-126.32
-117.5
-102.99
-84.44
-63.91
-43.31
-24.03
-6.87
7.82
19.89
29.36
36.34
41.11
44.2
46.29
48.08
50.16
52.86
56.15
59.73
63.14
65.98
68.05
69.32
69.91
69.91
69.29
67.84
65.37
61.74
57.07
51.68
46.08
40.73
35.95
31.78
27.94
23.98
19.45
14.1
8.01
1.53
-4.91
-10.98
-16.65
-22.17
-28.01
-34.65
-42.56
-51.98
-62.87
-74.72
-86.39
-96.19
-102.2
-102.8
-97.2
-85.78
-69.94
-51.67
-32.9
-15.03
1.13
15.24
27.16
36.71
43.75
48.26
50.57
51.29
51.29
51.37
52.1
53.65
55.76
57.99
59.81
60.88
61.14
60.73
59.87
58.59
56.69
53.82
49.69
44.32
38.11
31.71
25.73
20.49
15.92
11.57
6.91
1.55
-4.63
-11.41
-18.43
-25.32
-31.84
-38.04
-44.2
-50.78
-58.34
-67.37
-78.07
-90.11
-102.52
-113.61
-121.34
-123.8
-119.76
-109.22
-93.37
-74.25
-54.12
-34.8
-17.34
-2.07
11.1
22.27
31.41
38.37
43.19
46.2
48.09
49.65
51.49
53.88
56.67
59.48
61.93
63.81
65.05
65.72
65.85
65.38
64.11
61.85
58.41
53.78
48.16
41.94
35.69
29.87
24.83
20.48
16.46
12.22
7.25
1.33
-5.49
-12.81
-20.18
-27.21
-33.8
-40.16
-46.77
-54.22
-63.06
-73.55
-85.45
-97.98
-109.69
-118.75
-123.25
-121.79
-113.89
-100.24
-82.53
-62.99
-43.71
-26.13
-10.89
2.08
13.06
22.26
29.62
34.99
38.41
40.25
41.23
42.18
43.7
46.04
48.95
51.98
54.66
56.68
57.98
58.68
58.88
58.57
57.55
55.58
52.45
48.19
43.14
37.86
32.95
28.77
25.27
22.03
18.42
13.93
8.4
2.07
-4.6
-11.14
-17.27
-23.03
-28.67
-34.6
-41.31
-49.24
-58.7
-69.65
-81.45
-92.81
-101.88
-106.68
-105.68
-98.27
-85.03
-67.51
-47.83
-28.06
-9.8
6.03
19.09
29.39
37.09
42.44
45.73
47.47
48.28
48.83
49.57
50.72
52.16
53.63
54.82
55.6
55.98
56.08
56.03
55.8
55.26
54.1
52.03
48.8
44.4
38.99
32.92
26.65
20.55
14.81
9.38
4.03
-1.53
-7.51
-13.91
-20.52
-27.01
-33.18
-39.04
-45.01
-51.75
-59.94
-70.04
-81.96
-94.92
-107.4
-117.45
-123.03
-122.58
-115.49
-102.28
-84.53
-64.4
-44.08
-25.19
-8.6
5.53
17.42
27.3
35.26
41.26
45.33
47.76
49.1
50.03
51.18
52.82
54.97
57.28
59.37
60.91
61.77
61.97
61.64
60.82
59.43
57.24
54.01
49.64
44.39
38.76
33.38
28.66
24.66
21.0
17.07
12.33
6.57
-0.04
-7.02
-13.82
-20.03
-25.53
-30.53
-35.58
-41.35
-48.54
-57.64
-68.67
-81.05
-93.51
-104.24
-111.21
-112.65
-107.59
-96.2
-79.8
-60.45
-40.4
-21.41
-4.51
9.99
22.22
32.31
40.26
46.05
49.74
51.74
52.77
53.62
54.92
56.88
59.3
61.72
63.65
64.8
65.16
64.95
64.38
63.5
62.11
59.86
56.39
51.67
45.99
39.93
34.11
28.96
24.55
20.64
16.77
12.49
7.5
1.69
-4.78
-11.58
-18.27
-24.55
-30.38
-36.08
-42.24
-49.49
-58.27
-68.63
-80.15
-91.89
-102.51
-110.37
-113.84
-111.76
-103.73
-90.38
-73.17
-53.96
-34.5
-16.03
0.74
15.46
27.85
37.65
44.63
48.89
50.88
51.37
51.23
51.24
51.87
53.24
55.16
57.28
59.18
60.55
61.21
61.13
60.37
58.88
56.55
53.22
48.91
43.81
38.34
32.95
27.91
23.14
18.29
12.86
6.52
-0.75
-8.63
-16.61
-24.29
-31.51
-38.52
-45.85
-54.19
-64.06
-75.58
-88.23
-100.84
-111.63
-118.7
-120.44
-116.04
-105.69
-90.58
-72.43
-53.18
-34.38
-17.06
-1.71
11.46
22.38
30.98
37.24
41.34
43.72
45.04
46.05
47.32
49.08
51.2
53.32
55.04
56.14
56.66
56.72
56.43
55.69
54.19
51.62
47.76
42.75
37.01
31.12
25.61
20.74
16.41
12.25
7.72
2.42
-3.78
-10.7
-17.95
-25.11
-32.0
-38.73
-45.7
-53.43
-62.41
-72.93
-84.87
-97.67
-110.03
-120.16
-125.96
-125.73
-118.65
-105.24
-87.16
-66.72
-46.07
-26.68
-9.18
6.3
19.75
30.99
39.72
45.78
49.4
51.27
52.34
53.49
55.26
57.69
60.46
63.05
65.04
66.27
66.81
66.9
66.71
66.15
64.91
62.52
58.7
53.5
47.44
41.27
35.64
30.85
26.61
22.31
17.32
11.25
4.16
-3.53
-11.26
-18.57
-25.28
-31.5
-37.64
-44.28
-52.03
-61.37
-72.43
-84.81
-97.36
-108.36
-115.74
-117.67
-113.06
-101.97
-85.54
-65.77
-44.83
-24.54
-6.01
10.3
24.36
36.16
45.63
52.58
57.02
59.31
60.23
60.74
61.7
63.51
66.07
68.89
71.36
73.03
73.71
73.45
72.41
70.73
68.44
65.49
61.81
57.38
52.34
47.0
41.73
36.81
32.27
27.84
23.01
17.36
10.72
3.35
-4.24
-11.53
-18.28
-24.65
-31.12
-38.31
-46.76
-56.73
-68.08
-80.12
-91.56
-100.64
-105.41
-104.3
-96.64
-82.99
-64.95
-44.74
-24.54
-6.03
9.82
22.63
32.43
39.42
43.96
46.49
47.57
47.87
48.05
48.64
49.91
51.84
54.13
56.33
58.07
59.14
59.59
59.58
59.23
58.46
56.96
54.35
50.39
45.13
38.98
32.55
26.39
20.81
15.74
10.78
5.45
-0.62
-7.53
-15.02
-22.62
-29.89
-36.63
-43.0
-49.45
-56.67
-65.28
-75.63
-87.6
-100.43
-112.75
-122.71
-128.37
-128.17
-121.48
-108.81
-91.66
-72.11
-52.12
-33.11
-15.74
-0.15
13.65
25.51
35.06
41.96
46.2
48.27
49.14
49.83
51.12
53.24
55.91
58.59
60.73
62.1
62.72
62.81
62.49
61.73
60.32
57.92
54.37
49.75
44.38
38.76
33.34
28.43
24.05
19.96
15.78
11.13
5.74
-0.48
-7.38
-14.64
-21.83
-28.62
-34.85
-40.74
-46.77
-53.61
-61.88
-71.9
-83.48
-95.82
-107.44
-116.51
-121.13
-119.87
-112.24
-98.87
-81.37
-61.9
-42.51
-24.63
-8.88
4.73
16.44
26.32
34.29
40.13
43.88
45.95
47.09
48.1
49.51
51.43
53.59
55.56
57.1
58.14
58.78
59.13
59.15
58.62
57.28
54.91
51.5
47.18
42.28
37.15
32.11
27.36
22.9
18.62
14.28
9.65
4.58
-0.89
-6.65
-12.53
-18.36
-24.08
-29.76
-35.64
-42.08
-49.54
-58.43
-68.85
-80.44
-92.15
-102.35
-109.03
-110.42
-105.45
-94.19
-77.86
-58.54
-38.48
-19.53
-2.76
11.52
23.39
32.93
40.08
44.68
46.84
47.09
46.47
46.06
46.67
48.5
51.18
54.03
56.51
58.3
59.44
60.05
60.16
59.62
58.15
55.52
51.69
46.89
41.53
36.03
30.7
25.58
20.49
15.08
9.11
2.51
-4.48
-11.45
-17.97
-23.83
-29.08
-34.2
-39.83
-46.73
-55.45
-66.15
-78.39
-91.05
-102.41
-110.44
-113.31
-109.91
-100.21
-85.27
-67.0
-47.58
-28.85
-11.97
2.63
15.03
25.46
34.01
40.64
45.23
47.86
48.88
48.96
48.82
49.08
50.04
51.68
53.7
55.73
57.46
58.66
59.25
59.13
58.12
55.95
52.42
47.54
41.7
35.52
29.68
24.67
20.51
16.81
12.93
8.3
2.64
-4.02
-11.3
-18.74
-25.9
-32.52
-38.64
-44.64
-51.16
-58.95
-68.58
-80.12
-92.93
-105.67
-116.47
-123.29
-124.46
-119.1
-107.41
-90.65
-70.82
-50.1
-30.28
-12.41
3.13
16.35
27.32
36.0
42.32
46.36
48.58
49.77
50.85
52.46
54.83
57.73
60.66
63.13
64.77
65.57
65.62
65.2
64.54
63.62
62.29
60.25
57.26
53.24
48.42
43.1
37.67
32.4
27.38
22.6
17.98
13.37
8.57
3.33
-2.6
-9.46
-17.29
-26.05
-35.6
-45.83
-56.72
-68.31
-80.63
-93.56
-106.68
-119.1
-129.53
-136.38
-138.1
-133.72
-123.19
-107.5
-88.36
-67.74
-47.26
-27.96
-10.36
5.28
18.63
29.27
36.93
41.66
44.1
45.28
46.36
48.13
50.89
54.37
58.04
61.35
63.96
65.77
66.88
67.35
67.17
66.23
64.3
61.25
57.11
52.15
46.81
41.53
36.64
32.16
27.83
23.25
17.99
11.92
5.15
-1.96
-8.97
-15.59
-21.85
-28.05
-34.75
-42.61
-52.1
-63.33
-75.83
-88.47
-99.5
-106.96
-109.09
-104.89
-94.45
-78.91
-60.16
-40.26
-20.97
-3.48
11.53
23.81
33.29
40.01
44.16
46.17
46.74
46.7
46.93
47.98
49.99
52.67
55.44
57.73
59.23
59.92
60.0
59.59
58.58
56.6
53.28
48.46
42.41
35.68
28.92
22.56
16.72
11.17
5.55
-0.44
-6.93
-13.82
-20.85
-27.77
-34.46
-41.06
-47.97
-55.74
-64.91
-75.82
-88.31
-101.67
-114.53
-125.07
-131.3
-131.58
-125.09
-112.22
-94.45
-73.92
-52.79
-32.65
-14.3
2.0
16.2
28.14
37.54
44.2
48.32
50.53
51.74
52.87
54.52
56.84
59.64
62.51
65.08
67.12
68.56
69.42
69.67
69.1
67.35
64.07
59.15
52.9
45.98
39.22
33.24
28.17
23.63
18.92
13.38
6.66
-1.14
-9.53
-17.91
-25.84
-33.21
-40.34
-47.9
-56.63
-67.17
-79.61
-93.34
-106.98
-118.61
-126.1
-127.74
-122.6
-110.86
-93.71
-73.09
-51.11
-29.58
-9.75
7.76
22.69
34.93
44.37
51.03
55.18
57.47
58.83
60.14
61.99
64.45
67.15
69.59
71.37
72.41
72.78
72.58
71.81
70.32
67.97
64.7
60.64
56.03
51.09
46.02
40.89
35.64
30.12
24.16
17.64
10.6
3.25
-4.14
-11.29
-18.1
-24.77
-31.68
-39.4
-48.5
-59.3
-71.71
-85.03
-97.74
-107.78
-112.91
-111.45
-102.83
-87.87
-68.56
-47.38
-26.54
-7.55
8.9
22.69
33.92
42.63
48.84
52.66
54.45
54.86
54.69
54.67
55.26
56.64
58.69
61.09
63.47
65.46
66.75
67.12
66.46
64.75
62.03
58.4
54.03
49.14
43.95
38.62
33.19
27.56
21.57
15.14
8.29
1.16
-6.12
-13.49
-21.1
-29.24
-38.28
-48.51
-59.95
-72.18
-84.22
-94.47
-101.04
-102.17
-96.87
-85.28
-68.8
-49.54
-29.77
-11.26
5.02
18.7
29.76
38.18
43.98
47.29
48.53
48.45
47.94
47.82
48.54
50.15
52.28
54.43
56.06
56.85
56.64
55.49
53.52
50.85
47.54
43.62
39.07
33.93
28.33
22.31
15.93
9.15
1.95
-5.62
-13.38
-21.05
-28.39
-35.29
-41.94
-48.8
-56.56
-65.92
-77.32
-90.61
-104.81
-118.1
-128.14
-132.64
-130.08
-120.14
-103.85
-83.28
-60.83
-38.68
-18.33
-0.53
14.41
26.5
35.8
42.46
46.76
49.22
50.55
51.48
52.62
54.25
56.34
58.59
60.66
62.3
63.35
63.74
63.36
62.03
59.55
55.83
51.02
45.49
39.72
34.13
28.85
23.77
18.61
13.03
6.83
-0.0
-7.3
-14.77
-22.16
-29.35
-36.48
-43.97
-52.48
-62.65
-74.75
-88.42
-102.4
-114.74
-123.11
-125.46
-120.68
-108.89
-91.5
-70.7
-48.88
-27.94
-9.06
7.29
21.01
32.08
40.48
46.2
49.51
51.09
51.85
52.66
54.03
55.98
58.14
60.01
61.25
61.8
61.82
61.48
60.88
59.87
58.22
55.65
52.09
47.6
42.52
37.23
32.07
27.18
22.4
17.38
11.74
5.3
-1.8
-9.1
-16.1
-22.54
-28.52
-34.65
-41.75
-50.53
-61.37
-73.97
-87.38
-99.99
-109.86
-115.03
-114.07
-106.44
-92.72
-74.43
-53.69
-32.6
-12.83
4.55
19.13
30.77
39.51
45.47
48.87
50.15
50.02
49.31
48.8
49.04
50.23
52.21
54.58
56.87
58.67
59.72
59.88
59.09
57.32
54.53
50.76
46.15
41.0
35.62
30.25
24.88
19.23
12.94
5.79
-2.05
-10.15
-17.98
-25.19
-31.89
-38.57
-45.9
-54.55
-64.95
-77.06
-90.33
-103.54
-114.85
-122.11
-123.36
-117.48
-104.61
-86.21
-64.59
-42.24
-21.11
-2.35
13.64
26.83
37.26
44.96
49.98
52.67
53.68
53.89
54.23
55.25
57.05
59.31
61.47
63.1
64.04
64.37
64.29
63.83
62.73
60.63
57.18
52.38
46.63
40.58
34.87
29.83
25.37
21.05
16.26
10.53
3.72
-3.95
-12.02
-19.94
-27.31
-34.13
-40.8
-47.99
-56.51
-66.95
-79.43
-93.4
-107.54
-119.87
-128.13
-130.25
-125.0
-112.46
-93.98
-71.89
-48.76
-26.69
-6.95
10.04
24.29
35.91
44.89
51.19
55.03
56.96
57.89
58.67
59.94
61.85
64.1
66.21
67.73
68.47
68.51
68.1
67.42
66.51
65.17
63.03
59.77
55.25
49.7
43.56
37.44
31.81
26.82
22.28
17.7
12.55
6.43
-0.73
-8.65
-16.86
-24.86
-32.4
-39.56
-46.77
-54.66
-63.9
-74.9
-87.7
-101.73
-115.66
-127.62
-135.43
-137.13
-131.56
-118.81
-100.16
-77.78
-54.12
-31.28
-10.71
6.84
21.11
32.1
39.97
45.05
47.95
49.45
50.45
51.65
53.44
55.79
58.37
60.77
62.7
64.07
64.96
65.5
65.68
65.31
64.08
61.72
58.15
53.55
48.37
43.14
38.33
34.09
30.3
26.49
22.17
16.96
10.79
3.92
-3.18
-10.0
-16.32
-22.28
-28.36
-35.31
-43.83
-54.42
-66.97
-80.64
-93.78
-104.16
-109.51
-108.13
-99.49
-84.37
-64.63
-42.54
-20.25
0.65
19.12
34.58
46.64
55.22
60.58
63.43
64.91
66.22
68.31
71.4
75.02
78.01
79.03
76.95
71.25
62.19
50.7
38.08
25.57
14.09
4.17
-3.98
-10.27
-14.65
-17.1
-17.81
-17.24
-16.14
-15.34
-15.56
-17.1
-19.9
-23.58
-27.66
-31.88
-36.26
-41.14
-47.09
-54.76
-64.61
-76.69
-90.48
-104.69
-117.41
-126.39
-129.57
-125.61
-114.43
-97.16
-75.91
-53.11
-30.86
-10.57
7.13
22.11
34.31
43.67
50.09
53.73
55.14
55.27
55.2
55.73
57.18
59.35
61.78
64.0
65.77
67.1
68.02
68.49
68.19
66.73
63.75
59.15
53.26
46.66
40.03
33.91
28.46
23.47
18.41
12.75
6.12
-1.51
-9.8
-18.25
-26.4
-34.11
-41.56
-49.28
-57.99
-68.32
-80.54
-94.28
-108.41
-121.05
-129.9
-132.86
-128.6
-117.01
-99.32
-77.69
-54.57
-32.06
-11.54
6.3
21.24
33.21
42.22
48.37
52.03
53.96
55.08
56.28
58.08
60.51
63.16
65.44
66.88
67.32
66.99
66.27
65.43
64.44
62.97
60.59
56.94
52.05
46.32
40.37
34.72
29.62
24.88
20.07
14.66
8.4
1.37
-6.02
-13.25
-19.95
-26.06
-31.91
-38.16
-45.53
-54.69
-65.93
-79.06
-93.11
-106.43
-116.86
-122.22
-120.97
-112.73
-98.48
-80.25
-60.48
-41.22
-23.66
-8.0
6.07
18.93
30.55
40.61
48.6
54.34
58.07
60.48
62.36
64.3
66.5
68.81
70.91
72.55
73.64
74.23
74.29
73.7
72.15
69.34
65.15
59.8
53.77
47.67
41.98
36.78
31.79
26.47
20.32
13.16
5.19
-3.05
-11.05
-18.58
-25.81
-33.32
-41.82
-51.93
-63.84
-77.03
-90.29
-101.7
-109.11
-110.67
-105.36
-93.38
-76.07
-55.49
-33.84
-12.95
5.97
22.25
35.54
45.65
52.55
56.35
57.53
56.83
55.23
53.75
53.17
53.88
55.81
58.38
60.82
62.33
62.43
61.05
58.41
54.88
50.78
46.23
41.27
35.94
30.27
24.32
18.12
11.62
4.76
-2.46
-9.92
-17.4
-24.69
-31.75
-38.71
-45.96
-54.07
-63.61
-74.94
-87.89
-101.52
-114.07
-123.31
-127.05
-123.84
-113.43
-96.87
-76.16
-53.63
-31.35
-10.78
7.27
22.47
34.74
44.1
50.64
54.61
56.52
57.1
57.2
57.59
58.66
60.37
62.29
63.89
64.75
64.77
64.05
62.71
60.74
57.92
54.02
48.98
43.12
36.95
31.01
25.56
20.42
15.14
9.15
2.13
-5.86
-14.42
-22.97
-31.1
-38.67
-46.01
-53.79
-62.76
-73.49
-86.05
-99.78
-113.2
-124.34
-131.01
-131.44
-124.77
-111.34
-92.65
-70.87
-48.33
-26.89
-7.7
8.75
22.37
33.17
41.24
46.7
49.95
51.69
52.81
54.09
55.99
58.46
61.08
63.3
64.72
65.28
65.21
64.75
64.03
62.88
60.95
57.94
53.7
48.41
42.5
36.45
30.61
25.05
19.63
14.09
8.21
1.86
-4.95
-12.08
-19.34
-26.58
-33.72
-40.92
-48.58
-57.27
-67.52
-79.52
-92.78
-105.94
-116.98
-123.57
-123.82
-116.87
-103.15
-84.33
-62.73
-40.62
-19.72
-1.01
15.17
28.7
39.46
47.34
52.39
55.0
55.9
56.03
56.23
57.02
58.57
60.73
63.22
65.7
67.87
69.45
70.17
69.8
68.17
65.24
61.11
56.05
50.45
44.68
38.98
33.37
27.63
21.45
14.64
7.24
-0.46
-8.1
-15.44
-22.5
-29.55
-37.03
-45.45
-55.21
-66.52
-79.15
-92.15
-103.86
-112.08
-114.68
-110.26
-98.71
-81.27
-60.18
-37.9
-16.5
2.66
18.89
31.92
41.68
48.2
51.75
52.91
52.61
51.93
51.85
52.92
55.15
58.05
60.89
62.99
63.98
63.87
62.85
61.11
58.64
55.27
50.84
45.45
39.44
33.29
27.37
21.73
16.07
9.94
3.01
-4.73
-12.96
-21.26
-29.27
-36.92
-44.42
-52.26
-60.97
-71.1
-82.98
-96.55
-111.16
-125.4
-137.26
-144.47
-145.12
-138.25
-124.21
-104.53
-81.51
-57.52
-34.44
-13.45
4.91
20.45
33.11
42.88
49.88
54.47
57.31
59.24
61.02
63.1
65.57
68.15
70.51
72.37
73.67
74.46
74.79
74.56
73.46
71.09
67.19
61.77
55.2
48.09
41.06
34.52
28.49
22.64
16.45
9.44
1.48
-7.19
-16.03
-24.54
-32.41
-39.79
-47.14
-55.18
-64.58
-75.78
-88.79
-103.05
-117.29
-129.56
-137.58
-139.24
-133.38
-120.12
-101.0
-78.43
-54.89
-32.31
-11.73
6.51
22.31
35.54
45.97
53.46
58.23
60.98
62.68
64.28
66.36
69.04
72.0
74.72
76.74
77.86
78.12
77.7
76.76
75.25
72.94
69.5
64.73
58.76
52.09
45.39
39.2
33.75
28.77
23.69
17.91
11.06
3.17
-5.43
-14.19
-22.63
-30.49
-37.81
-44.99
-52.71
-61.72
-72.67
-85.75
-100.32
-114.91
-127.28
-134.95
-135.87
-129.12
-115.13
-95.59
-72.88
-49.37
-26.83
-6.29
11.8
27.27
39.92
49.52
55.98
59.6
61.1
61.48
61.76
62.65
64.43
66.92
69.72
72.38
74.49
75.76
75.98
74.99
72.71
69.18
64.57
59.11
53.17
47.01
40.79
34.55
28.15
21.38
14.06
6.12
-2.32
-10.97
-19.46
-27.58
-35.34
-43.08
-51.36
-60.86
-72.07
-85.01
-98.92
-112.23
-122.69
-127.97
-126.28
-117.02
-101.0
-80.15
-56.99
-33.78
-12.19
6.9
23.07
36.1
45.81
52.14
55.4
56.34
56.1
55.82
56.36
58.0
60.47
63.15
65.4
66.84
67.39
67.21
66.48
65.14
62.94
59.55
54.76
48.7
41.87
34.9
28.35
22.37
16.68
10.71
3.95
-3.82
-12.43
-21.39
-30.22
-38.61
-46.62
-54.64
-63.22
-72.99
-84.43
-97.65
-112.18
-126.83
-139.66
-148.27
-150.44
-144.76
-131.22
-111.23
-87.22
-61.92
-37.52
-15.32
4.2
21.02
35.13
46.33
54.39
59.37
61.84
62.87
63.66
65.16
67.71
71.06
74.52
77.43
79.36
80.23
80.25
79.58
78.25
76.02
72.52
67.48
61.0
53.52
45.8
38.54
32.09
26.29
20.59
14.31
7.01
-1.28
-10.1
-18.82
-26.99
-34.51
-41.67
-49.06
-57.36
-67.26
-79.17
-93.08
-108.17
-122.89
-134.94
-141.85
-141.69
-133.65
-118.33
-97.49
-73.49
-48.65
-24.74
-2.87
16.39
32.73
45.98
56.01
62.89
66.98
68.99
69.81
70.36
71.32
72.98
75.23
77.67
79.88
81.58
82.67
83.14
82.93
81.82
79.51
75.77
70.59
64.3
57.44
50.63
44.23
38.25
32.37
26.07
18.98
11.06
2.63
-5.82
-13.9
-21.6
-29.4
-38.13
-48.65
-61.35
-75.99
-91.42
-105.75
-116.68
-122.05
-120.31
-111.04
-95.06
-74.22
-50.94
-27.55
-5.82
13.17
28.92
41.25
50.08
55.52
57.9
57.96
56.73
55.29
54.5
54.77
56.11
58.19
60.55
62.72
64.24
64.65
63.64
61.01
56.75
51.11
44.46
37.26
29.97
22.88
16.13
9.59
2.97
-4.06
-11.67
-19.83
-28.24
-36.58
-44.64
-52.5
-60.46
-69.11
-79.0
-90.59
-103.88
-118.26
-132.26
-143.74
-150.23
-149.63
-140.99
-124.81
-102.94
-77.95
-52.41
-28.22
-6.52
12.22
27.77
40.01
48.95
54.84
58.29
60.14
61.33
62.53
64.07
65.94
67.93
69.83
71.45
72.73
73.48
73.54
72.63
70.47
66.91
61.98
55.88
49.04
41.95
35.04
28.47
22.15
15.75
8.87
1.25
-7.04
-15.73
-24.37
-32.64
-40.51
-48.3
-56.62
-66.16
-77.41
-90.51
-104.99
-119.7
-132.89
-142.4
-146.11
-142.57
-131.37
-113.42
-90.69
-65.67
-40.71
-17.47
3.18
20.97
35.86
47.79
56.64
62.46
65.67
67.08
67.76
68.58
69.99
71.86
73.78
75.27
76.09
76.35
76.26
75.97
75.28
73.73
70.73
65.93
59.42
51.79
43.92
36.59
30.2
24.6
19.24
13.44
6.73
-0.93
-9.19
-17.52
-25.53
-33.06
-40.35
-47.85
-56.22
-66.03
-77.69
-91.13
-105.65
-119.63
-130.8
-136.58
-134.97
-125.16
-107.94
-85.38
-60.21
-34.94
-11.31
9.71
27.71
42.35
53.36
60.59
64.28
65.19
64.5
63.51
63.2
64.08
66.09
68.8
71.61
73.95
75.43
75.78
74.89
72.67
69.06
64.06
57.82
50.71
43.22
35.86
28.89
22.23
15.51
8.22
0.09
-8.87
-18.26
-27.54
-36.3
-44.43
-52.22
-60.3
-69.47
-80.41
-93.4
-108.1
-123.29
-137.0
-146.78
-150.28
-145.96
-133.57
-114.28
-90.3
-64.25
-38.47
-14.58
6.52
24.46
39.09
50.33
58.19
62.98
65.31
66.17
66.6
67.47
69.16
71.6
74.31
76.73
78.42
79.22
79.21
78.53
77.18
75.03
71.82
67.33
61.62
55.0
47.98
41.05
34.51
28.29
22.08
15.42
7.92
-0.6
-9.96
-19.79
-29.58
-38.93
-47.7
-56.13
-64.87
-74.78
-86.63
-100.71
-116.44
-132.2
-145.53
-153.6
-154.11
-145.94
-129.59
-107.0
-80.94
-54.17
-28.77
-5.86
14.11
31.1
45.02
55.77
63.32
67.94
70.31
71.42
72.23
73.5
75.52
78.17
80.99
83.42
84.98
85.47
84.93
83.58
81.57
78.87
75.22
70.27
63.91
56.34
48.16
40.11
32.77
26.33
20.46
14.56
8.0
0.44
-8.05
-17.04
-25.91
-34.17
-41.7
-48.79
-56.09
-64.36
-74.26
-86.15
-99.92
-114.79
-129.31
-141.38
-148.65
-149.04
-141.41
-125.99
-104.4
-79.2
-53.1
-28.28
-6.07
13.05
29.06
41.98
51.82
58.58
62.52
64.26
64.79
65.15
66.12
68.0
70.59
73.41
75.94
77.82
78.93
79.3
78.88
77.53
74.96
70.98
65.59
59.16
52.26
45.45
39.06
32.93
26.67
19.74
11.9
3.26
-5.79
-14.76
-23.39
-31.71
-40.05
-48.95
-58.96
-70.52
-83.74
-98.16
-112.64
-125.31
-133.85
-136.07
-130.57
-117.3
-97.52
-73.56
-48.05
-23.29
-0.93
18.21
33.82
45.87
54.52
60.01
62.81
63.73
63.79
63.98
65.05
67.25
70.28
73.5
76.17
77.8
78.14
77.27
75.27
72.26
68.17
62.94
56.62
49.46
41.89
34.38
27.28
20.66
14.25
7.61
0.25
-8.03
-17.12
-26.53
-35.64
-43.99
-51.63
-59.07
-67.27
-77.28
-89.78
-104.77
-121.36
-137.69
-151.3
-159.55
-160.35
-152.67
-136.9
-114.79
-88.96
-62.16
-36.59
-13.54
6.58
23.83
38.32
50.01
58.76
64.62
68.09
70.05
71.58
73.51
76.17
79.32
82.35
84.66
85.96
86.29
85.97
85.26
84.14
82.26
79.05
74.04
67.18
58.99
50.41
42.43
35.62
29.9
24.59
18.76
11.73
3.34
-6.06
-15.83
-25.34
-34.27
-42.65
-50.84
-59.43
-69.14
-80.64
-94.26
-109.7
-125.68
-140.08
-150.27
-153.79
-149.17
-136.24
-116.35
-91.78
-65.2
-38.93
-14.63
6.75
24.83
39.45
50.61
58.43
63.3
65.94
67.3
68.4
69.96
72.25
75.01
77.75
79.93
81.27
81.77
81.64
81.07
80.07
78.46
75.94
72.26
67.39
61.59
55.28
48.92
42.77
36.81
30.78
24.27
17.0
8.97
0.45
-8.09
-16.24
-23.86
-31.22
-38.93
-47.75
-58.38
-71.11
-85.57
-100.5
-113.81
-122.96
-125.63
-120.4
-107.28
-87.73
-64.19
-39.35
-15.44
6.1
24.55
39.6
51.11
59.0
63.44
64.98
64.6
63.48
62.68
62.87
64.19
66.33
68.72
70.76
72.04
72.35
71.65
70.05
67.59
64.24
59.85
54.34
47.8
40.59
33.23
26.15
19.51
13.05
6.28
-1.22
-9.58
-18.56
-27.69
-36.56
-45.08
-53.45
-62.18
-71.95
-83.32
-96.53
-111.24
-126.29
-139.71
-148.99
-151.75
-146.44
-132.97
-112.69
-88.05
-61.77
-36.16
-12.68
7.97
25.55
39.97
51.09
58.83
63.34
65.23
65.54
65.47
66.06
67.79
70.54
73.62
76.25
77.86
78.28
77.72
76.49
74.7
72.17
68.49
63.39
56.9
49.47
41.76
34.4
27.69
21.49
15.35
8.71
1.21
-7.18
-16.14
-25.15
-33.73
-41.63
-49.05
-56.51
-64.8
-74.72
-86.77
-100.93
-116.49
-131.86
-144.77
-152.69
-153.39
-145.69
-129.9
-107.78
-82.09
-55.66
-30.68
-8.31
11.15
27.78
41.6
52.43
60.13
64.89
67.44
68.88
70.28
72.26
74.82
77.44
79.47
80.48
80.44
79.68
78.6
77.46
76.17
74.34
71.44
67.03
61.02
53.71
45.81
38.14
31.37
25.68
20.76
15.89
10.29
3.5
-4.46
-13.1
-21.75
-29.9
-37.47
-44.92
-53.03
-62.67
-74.41
-88.19
-103.16
-117.67
-129.45
-136.13
-135.83
-127.7
-112.23
-91.1
-66.69
-41.47
-17.41
4.25
22.9
38.32
50.46
59.25
64.81
67.51
68.09
67.57
67.01
67.21
68.5
70.75
73.47
76.08
78.07
79.04
78.72
76.87
73.37
68.28
61.96
55.0
48.11
41.72
35.86
30.1
23.78
16.36
7.68
-2.0
-12.11
-22.08
-31.52
-40.38
-48.89
-57.63
-67.31
-78.62
-91.8
-106.4
-120.92
-133.11
-140.37
-140.54
-132.61
-117.06
-95.71
-71.18
-46.13
-22.62
-1.89
15.59
29.84
40.92
48.91
53.95
56.4
57.01
56.76
56.64
57.24
58.67
60.58
62.46
63.95
64.9
65.33
65.22
64.34
62.34
58.93
54.04
47.94
41.14
34.16
27.33
20.66
13.92
6.81
-0.89
-9.16
-17.75
-26.29
-34.44
-42.04
-49.26
-56.61
-64.88
-74.96
-87.43
-102.15
-117.96
-132.62
-143.24
-147.03
-142.19
-128.61
-107.88
-82.8
-56.41
-31.18
-8.55
11.02
27.52
41.02
51.44
58.78
63.29
65.66
66.88
67.92
69.38
71.34
73.41
75.01
75.75
75.55
74.65
73.41
72.07
70.53
68.38
65.06
60.19
53.83
46.48
38.93
31.87
25.64
20.07
14.67
8.89
2.44
-4.61
-12.0
-19.4
-26.69
-34.02
-41.73
-50.28
-60.15
-71.72
-85.14
-100.03
-115.32
-129.13
-139.05
-142.72
-138.52
-126.23
-107.08
-83.44
-58.04
-33.28
-10.71
8.94
25.53
39.1
49.67
57.26
62.04
64.46
65.31
65.55
65.98
67.15
69.13
71.66
74.32
76.63
78.29
79.01
78.65
77.07
74.18
70.07
64.93
59.15
53.14
47.2
41.43
35.68
29.68
23.13
15.93
8.14
-0.03
-8.32
-16.59
-24.92
-33.61
-43.17
-54.12
-66.74
-80.74
-95.07
-107.94
-117.06
-120.28
-116.16
-104.54
-86.6
-64.58
-41.11
-18.49
1.72
18.8
32.6
43.27
50.92
55.65
57.71
57.68
56.45
55.06
54.39
54.83
56.31
58.34
60.36
61.9
62.65
62.41
61.02
58.38
54.41
49.27
43.18
36.55
29.66
22.71
15.69
8.44
0.81
-7.29
-15.77
-24.42
-33.03
-41.44
-49.71
-58.14
-67.27
-77.7
-89.89
-103.81
-118.7
-132.96
-144.34
-150.42
-149.29
-140.11
-123.47
-101.2
-75.81
-49.81
-25.14
-2.91
16.4
32.64
45.76
55.65
62.42
66.44
68.48
69.45
70.19
71.18
72.48
73.9
75.11
75.94
76.34
76.32
75.84
74.68
72.54
69.11
64.23
58.07
51.07
43.79
36.65
29.83
23.16
16.22
8.62
0.21
-8.9
-18.29
-27.59
-36.52
-45.12
-53.74
-62.9
-73.29
-85.44
-99.49
-114.81
-129.81
-142.06
-148.86
-148.03
-138.7
-121.68
-99.16
-74.0
-48.79
-25.34
-4.51
13.5
28.7
41.01
50.32
56.63
60.29
61.99
62.67
63.21
64.19
65.74
67.67
69.62
71.28
72.55
