0
61.64
58.23
54.59
50.56
46.17
41.61
37.17
33.07
29.46
26.3
23.41
20.53
17.42
13.9
9.88
5.36
0.44
-4.68
-9.8
-14.79
-19.71
-24.78
-30.33
-36.65
-43.75
-51.4
-59.18
-66.67
-73.6
-80.05
-86.34
-93.06
-100.92
-110.53
-122.11
-135.14
-148.13
-158.71
-164.16
-162.21
-151.83
-133.6
-109.58
-82.57
-55.38
-30.09
-7.87
10.98
26.7
39.84
50.97
60.58
68.96
76.2
82.25
87.02
90.52
92.85
94.25
95.01
95.39
95.66
96.03
96.63
97.46
98.33
98.83
98.56
97.16
94.56
90.9
86.49
81.7
76.88
72.25
67.95
64.02
60.4
56.93
53.38
49.54
45.31
40.75
36.09
31.6
27.46
23.62
19.82
15.68
10.88
5.32
-0.83
-7.15
-13.2
-18.64
-23.41
-27.71
-31.96
-36.65
-42.12
-48.51
-55.63
-63.09
-70.42
-77.24
-83.41
-89.12
-94.97
-101.81
-110.47
-121.32
-133.82
-146.27
-156.03
-160.18
-156.42
-143.9
-123.57
-97.9
-70.07
-43.09
-19.01
1.26
17.79
31.21
42.26
51.57
59.54
66.38
72.26
77.28
81.52
84.98
87.57
89.15
89.72
89.44
88.67
87.85
87.32
87.15
87.1
86.72
85.56
83.28
79.79
75.25
69.98
64.36
58.72
53.34
48.36
43.81
39.64
35.79
32.11
28.48
24.72
20.69
16.3
11.55
6.52
1.37
-3.79
-8.92
-14.1
-19.46
-25.13
-31.23
-37.81
-44.77
-51.98
-59.14
-65.98
-72.35
-78.41
-84.7
-92.03
-101.14
-112.23
-124.5
-136.13
-144.61
-147.43
-142.85
-130.51
-111.48
-87.9
-62.4
-37.42
-14.75
4.64
20.54
33.24
43.25
51.16
57.42
62.43
66.44
69.67
72.24
74.21
75.63
76.49
76.87
76.92
76.84
76.85
77.04
77.36
77.59
77.4
76.49
74.63
71.76
67.97
63.47
58.55
53.49
48.52
43.84
39.54
35.62
32.0
28.56
25.15
21.66
18.02
14.16
10.09
5.85
1.53
-2.78
-7.07
-11.41
-15.95
-20.92
-26.42
-32.44
-38.76
-45.08
-51.12
-56.71
-61.95
-67.17
-72.98
-80.14
-89.23
-100.35
-112.67
-124.36
-132.88
-135.71
-131.16
-119.1
-100.9
-79.04
-56.23
-34.61
-15.44
0.93
14.68
26.17
35.7
43.46
49.67
54.54
58.3
61.17
63.26
64.59
65.12
64.87
64.02
62.88
61.83
61.2
61.12
61.43
61.75
61.55
60.36
57.9
54.2
49.55
44.43
39.27
34.42
29.98
25.89
21.94
17.85
13.37
8.35
2.72
-3.39
-9.73
-15.96
-21.8
-27.09
-31.89
-36.47
-41.23
-46.65
-53.17
-61.09
-70.34
-80.3
-89.65
-96.58
-99.22
-96.3
-87.59
-74.03
-57.41
-39.71
-22.62
-7.16
6.25
17.59
26.97
34.53
40.43
44.87
48.09
50.31
51.69
52.32
52.24
51.53
50.32
48.8
47.22
45.82
44.71
43.84
42.91
41.5
39.22
35.87
31.56
26.64
21.53
16.47
11.46
6.33
0.87
-5.05
-11.31
-17.65
-23.75
-29.35
-34.39
-38.95
-43.33
-48.0
-53.47
-60.21
-68.37
-77.58
-86.74
-94.24
-98.27
-97.39
-91.03
-79.69
-64.71
-47.93
-31.08
-15.42
-1.65
10.09
19.89
27.99
34.59
39.81
43.68
46.22
47.49
47.59
46.72
45.14
43.14
41.01
39.05
37.46
36.34
35.59
34.93
33.92
32.06
29.05
24.86
19.75
14.21
8.77
3.7
-0.98
-5.57
-10.45
-15.98
-22.17
-28.75
-35.15
-40.82
-45.43
-49.08
-52.31
-56.0
-61.04
-68.01
-76.84
-86.61
-95.67
-101.98
-103.68
-99.68
-89.97
-75.63
-58.45
-40.39
-23.07
-7.47
6.04
17.57
27.4
35.88
43.21
49.49
54.69
58.66
61.25
62.42
62.35
61.4
60.06
58.8
57.89
57.37
57.14
57.01
56.78
56.29
55.31
53.63
51.01
47.36
42.76
37.45
31.77
26.04
20.49
15.22
10.23
5.53
1.07
-3.21
-7.5
-11.99
-16.89
-22.37
-28.4
-34.77
-41.12
-47.07
-52.41
-57.22
-61.97
-67.39
-74.23
-82.87
-92.93
-103.21
-111.8
-116.6
-115.92
-109.01
-96.28
-79.2
-59.77
-40.03
-21.53
-5.08
9.18
21.55
32.46
42.21
50.91
58.45
64.69
69.51
72.89
74.88
75.53
74.97
73.35
71.0
68.41
66.14
64.66
64.15
64.39
64.83
64.81
63.78
61.56
58.31
54.45
50.42
46.5
42.77
39.15
35.57
32.02
28.63
25.47
22.53
19.66
16.59
13.12
9.15
4.75
0.16
-4.4
-8.73
-12.77
-16.59
-20.43
-24.57
-29.25
-34.54
-40.32
-46.22
-51.86
-56.88
-61.22
-65.11
-69.12
-73.96
-80.35
-88.66
-98.6
-109.08
-118.19
-123.71
-123.76
-117.4
-104.99
-88.07
-68.75
-49.08
-30.56
-13.96
0.52
13.07
24.0
33.69
42.42
50.3
57.27
63.05
67.43
70.3
71.79
72.15
71.69
70.64
69.2
67.59
66.06
64.9
64.18
63.74
63.23
62.23
60.42
57.73
54.29
50.33
46.11
41.89
37.89
34.25
30.96
27.84
24.57
20.9
16.76
12.35
8.03
4.06
0.42
-3.26
-7.49
-12.72
-19.01
-26.08
-33.34
-40.22
-46.34
-51.66
-56.46
-61.32
-66.88
-73.77
-82.29
-92.19
-102.49
-111.51
-117.26
-117.91
-112.5
-101.18
-85.28
-66.82
-47.94
-30.32
-14.83
-1.6
9.76
19.82
29.06
37.69
45.68
52.84
58.94
63.78
67.27
69.41
70.3
70.12
69.16
67.83
66.58
65.79
65.64
65.98
66.44
66.49
65.7
63.89
61.18
57.89
54.4
50.98
47.76
44.73
41.8
38.89
35.94
32.88
29.65
26.24
22.59
18.71
14.6
10.25
5.72
1.14
-3.25
-7.19
-10.49
-13.24
-15.77
-18.65
-22.37
-27.18
-32.92
-39.12
-45.14
-50.53
-55.19
-59.41
-63.8
-69.05
-75.71
-83.99
-93.53
-103.28
-111.59
-116.52
-116.38
-110.33
-98.72
-83.04
-65.4
-47.92
-32.05
-18.41
-6.87
3.13
12.14
20.51
28.37
35.61
42.11
47.68
52.2
55.62
57.93
59.22
59.67
59.53
59.12
58.78
58.81
59.3
60.05
60.67
60.62
59.53
57.28
54.1
50.43
46.75
43.41
40.54
38.09
35.91
33.9
31.99
30.17
28.45
26.85
25.24
23.53
21.58
19.37
17.0
14.63
12.42
10.37
8.35
6.13
3.53
0.53
-2.72
-6.01
-9.14
-12.08
-14.86
-17.62
-20.52
-23.76
-27.51
-31.9
-36.83
-42.07
-47.23
-52.01
-56.31
-60.36
-64.68
-69.86
-76.35
-84.21
-92.92
-101.39
-108.05
-111.21
-109.52
-102.42
-90.38
-74.83
-57.76
-41.15
-26.49
-14.51
-5.11
2.28
8.42
14.0
19.4
24.75
29.91
34.66
38.74
42.0
44.38
45.91
46.76
47.2
47.54
48.05
48.87
49.96
51.07
51.84
51.94
51.17
49.53
47.2
44.46
41.6
38.84
36.29
33.94
31.76
29.69
27.69
25.71
23.7
21.59
19.32
16.99
14.71
12.61
10.71
8.89
6.92
4.64
1.96
-0.96
-3.91
-6.67
-9.12
-11.27
-13.31
-15.46
-17.99
-21.11
-24.94
-29.41
-34.33
-39.4
-44.32
-48.91
-53.17
-57.27
-61.63
-66.78
-73.2
-80.95
-89.45
-97.31
-102.69
-103.76
-99.48
-89.9
-76.3
-60.6
-44.84
-30.5
-18.32
-8.31
-0.06
7.0
13.34
19.21
24.59
29.32
33.19
36.1
38.08
39.34
40.17
40.82
41.47
42.24
43.21
44.43
45.85
47.33
48.6
49.4
49.51
48.85
47.54
45.75
43.73
41.69
39.78
38.03
36.36
34.56
32.44
29.94
27.15
24.35
21.79
19.62
17.76
16.02
14.19
12.19
10.08
7.89
5.63
3.22
0.58
-2.22
-5.02
-7.61
-9.87
-11.92
-14.04
-16.61
-19.91
-24.01
-28.72
-33.68
-38.46
-42.74
-46.44
-49.72
-53.05
-57.04
-62.29
-69.13
-77.35
-86.09
-93.9
-98.97
-99.74
-95.27
-85.63
-71.93
-55.91
-39.48
-24.22
-11.06
-0.28
8.32
15.1
20.47
24.74
28.19
31.06
33.56
35.84
37.98
39.87
41.37
42.37
42.82
42.84
42.66
42.51
42.57
42.85
43.22
43.46
43.3
42.62
41.41
39.83
38.07
36.27
34.46
32.54
30.43
28.1
25.63
23.14
20.74
18.46
16.26
14.07
11.83
9.5
7.04
4.44
1.64
-1.39
-4.65
-8.13
-11.84
-15.76
-19.89
-24.18
-28.53
-32.81
-36.93
-40.97
-45.22
-50.08
-56.01
-63.15
-71.21
-79.23
-85.79
-89.34
-88.66
-83.29
-73.68
-61.0
-46.75
-32.32
-18.66
-6.25
4.74
14.26
22.29
28.73
33.55
36.88
38.98
40.26
41.08
41.72
42.25
42.65
42.84
42.77
42.55
42.26
42.09
42.07
42.21
42.33
42.21
41.61
40.36
38.38
35.73
32.53
28.9
24.97
20.88
16.76
12.71
8.8
4.93
0.92
-3.48
-8.42
-13.86
-19.56
-25.2
-30.51
-35.38
-39.94
-44.45
-49.34
-55.05
-61.92
-69.94
-78.51
-86.44
-92.08
-93.78
-90.46
-81.98
-69.25
-53.85
-37.59
-21.96
-7.9
4.26
14.55
23.11
30.05
35.4
39.2
41.59
42.83
43.34
43.48
43.49
43.43
43.19
42.69
42.01
41.35
41.01
41.1
41.53
41.95
41.87
40.86
38.75
35.56
31.52
26.93
22.14
17.4
12.87
8.6
4.45
0.21
-4.33
-9.27
-14.53
-19.88
-25.09
-30.0
-34.6
-39.06
-43.69
-48.89
-55.16
-62.81
-71.81
-81.49
-90.48
-96.9
-98.94
-95.4
-86.24
-72.49
-55.97
-38.66
-22.21
-7.59
4.84
15.14
23.59
30.51
36.17
40.77
44.5
47.45
49.72
51.3
52.17
52.35
51.96
51.24
50.5
50.07
50.14
50.66
51.44
52.11
52.37
52.0
50.88
49.01
46.42
43.24
39.74
36.28
33.23
30.77
28.84
27.13
25.22
22.8
19.82
16.48
13.05
9.76
6.58
3.29
-0.41
-4.74
-9.68
-15.04
-20.48
-25.73
-30.66
-35.37
-40.11
-45.36
-51.62
-59.29
-68.42
-78.48
-88.22
-95.85
-99.49
-97.8
-90.46
-78.29
-62.94
-46.37
-30.21
-15.47
-2.5
8.76
18.55
27.1
34.59
41.18
46.97
52.03
56.29
59.64
61.93
63.08
63.1
62.2
60.66
58.85
57.11
55.7
54.75
54.23
53.93
53.56
52.82
51.51
49.62
47.3
44.77
42.23
39.8
37.45
35.07
32.54
29.81
26.94
24.11
21.55
19.48
17.94
16.83
15.83
14.55
12.59
9.76
6.13
2.04
-2.03
-5.68
-8.71
-11.26
-13.65
-16.32
-19.56
-23.46
-27.88
-32.55
-37.14
-41.47
-45.48
-49.35
-53.42
-58.23
-64.25
-71.68
-80.2
-88.77
-95.81
-99.54
-98.58
-92.34
-81.3
-66.84
-50.82
-35.01
-20.73
-8.54
1.56
10.03
17.37
24.02
30.24
36.04
41.37
46.03
49.81
52.45
53.78
53.78
52.69
50.97
49.17
47.76
46.98
46.82
47.02
47.28
47.31
46.93
46.08
44.79
43.18
41.37
39.52
37.69
35.91
34.18
32.46
30.72
28.97
27.21
25.46
23.75
22.07
20.44
18.82
17.09
15.15
12.94
10.53
8.05
5.61
3.21
0.79
-1.77
-4.49
-7.29
-10.1
-12.87
-15.72
-18.86
-22.43
-26.42
-30.55
-34.49
-38.02
-41.08
-43.88
-46.84
-50.41
-55.05
-61.04
-68.36
-76.49
-84.35
-90.47
-93.29
-91.67
-85.27
-74.7
-61.32
-46.85
-32.88
-20.56
-10.4
-2.33
4.1
9.55
14.58
19.55
24.52
29.28
33.49
36.79
39.0
40.13
40.37
40.06
39.58
39.28
39.39
40.0
41.01
42.17
43.17
43.67
43.46
42.49
40.86
38.86
36.86
35.14
33.89
33.02
32.3
31.4
30.1
28.33
26.17
23.76
21.26
18.75
16.33
14.04
11.98
10.2
8.62
7.09
5.36
3.25
0.69
-2.25
-5.35
-8.39
-11.18
-13.59
-15.6
-17.3
-18.91
-20.73
-23.05
-26.02
-29.61
-33.58
-37.6
-41.42
-44.87
-47.99
-51.01
-54.32
-58.44
-63.78
-70.45
-77.95
-85.04
-90.02
-91.23
-87.64
-79.3
-67.29
-53.37
-39.3
-26.41
-15.39
-6.32
1.0
6.95
11.92
16.28
20.27
24.01
27.47
30.46
32.8
34.43
35.44
35.99
36.31
36.56
36.88
37.36
38.11
39.1
40.18
41.1
41.58
41.47
40.77
39.63
38.28
36.87
35.52
34.22
32.95
31.61
30.09
28.32
26.29
24.12
22.08
20.37
19.1
18.07
16.98
15.52
13.59
11.32
9.05
7.09
5.62
4.56
3.67
2.57
0.94
-1.41
-4.45
-7.94
-11.46
-14.63
-17.23
-19.33
-21.28
-23.49
-26.29
-29.67
-33.4
-37.11
-40.5
-43.44
-45.99
-48.44
-51.18
-54.68
-59.49
-65.9
-73.83
-82.53
-90.6
-96.21
-97.64
-93.86
-84.86
-71.78
-56.43
-40.79
-26.48
-14.41
-4.84
2.54
8.26
12.88
16.82
20.37
23.63
26.61
29.3
31.68
33.7
35.31
36.48
37.18
37.56
37.88
38.41
39.43
40.92
42.7
44.36
45.49
45.83
45.29
43.99
42.19
40.15
38.11
36.2
34.46
32.94
31.59
30.42
29.37
28.35
27.29
26.12
24.84
23.53
22.22
20.93
19.56
18.04
16.32
14.45
12.51
10.57
8.7
6.82
4.84
2.64
0.15
-2.65
-5.68
-8.81
-11.84
-14.66
-17.27
-19.79
-22.49
-25.62
-29.34
-33.61
-38.21
-42.82
-47.04
-50.62
-53.49
-55.96
-58.65
-62.33
-67.65
-74.63
-82.46
-89.55
-93.97
-94.06
-88.99
-79.07
-65.5
-50.05
-34.47
-20.17
-8.05
1.59
8.87
14.21
18.21
21.41
24.22
26.86
29.34
31.61
33.62
35.33
36.72
37.79
38.57
39.13
39.65
40.38
41.54
43.18
45.15
47.0
48.2
48.35
47.3
45.28
42.76
40.25
38.09
36.37
34.97
33.73
32.49
31.28
30.16
29.22
28.47
27.85
27.2
26.35
25.2
23.7
21.86
19.74
17.41
14.94
12.44
9.95
7.53
5.18
2.81
0.32
-2.36
-5.2
-8.08
-10.81
-13.23
-15.38
-17.51
-19.99
-23.2
-27.28
-32.05
-37.08
-41.81
-45.85
-49.06
-51.72
-54.4
-57.8
-62.52
-68.87
-76.57
-84.68
-91.72
-95.86
-95.61
-90.16
-79.77
-65.73
-49.94
-34.36
-20.48
-9.04
-0.08
6.81
12.2
16.62
20.42
23.88
27.12
30.25
33.26
36.05
38.46
40.33
41.61
42.39
42.9
43.39
44.05
44.9
45.79
46.5
46.8
46.54
45.66
44.24
42.39
40.31
38.22
36.29
34.66
33.33
32.14
30.94
29.58
28.09
26.58
25.23
24.08
23.05
21.92
20.48
18.66
16.56
14.41
12.41
10.7
9.18
7.68
5.95
3.82
1.28
-1.51
-4.37
-7.06
-9.46
-11.61
-13.66
-15.82
-18.27
-21.07
-24.21
-27.54
-30.9
-34.16
-37.27
-40.34
-43.65
-47.64
-52.77
-59.31
-67.03
-75.15
-82.28
-86.78
-87.23
-82.91
-74.06
-61.87
-48.1
-34.47
-22.29
-12.15
-4.01
2.59
8.14
12.99
17.33
21.18
24.51
27.35
29.76
31.84
33.67
35.31
36.82
38.24
39.61
40.95
42.28
43.61
44.91
46.06
46.88
47.16
46.76
45.68
44.15
42.5
41.03
39.87
38.89
37.84
36.48
34.7
32.56
30.3
28.08
26.01
24.08
22.19
20.23
18.14
15.97
13.82
11.85
10.17
8.83
7.75
6.71
5.53
3.96
1.91
-0.58
-3.36
-6.19
-8.89
-11.4
-13.82
-16.37
-19.28
-22.65
-26.37
-30.15
-33.66
-36.68
-39.2
-41.49
-43.96
-47.1
-51.31
-56.73
-63.05
-69.44
-74.57
-76.91
-75.23
-69.09
-59.06
-46.59
-33.54
-21.54
-11.53
-3.74
2.19
6.82
10.65
14.02
17.11
20.0
22.67
25.04
26.94
28.25
28.92
29.07
28.94
28.82
28.91
29.37
30.21
31.34
32.58
33.64
34.22
34.09
33.2
31.7
29.89
28.07
26.43
25.02
23.78
22.65
21.57
20.56
19.57
18.59
17.51
16.31
15.02
13.72
12.51
11.38
10.3
9.11
7.65
5.82
3.63
1.17
-1.39
-3.89
-6.28
-8.58
-10.99
-13.71
-16.85
-20.38
-24.15
-27.92
-31.47
-34.64
-37.49
-40.23
-43.23
-46.98
-51.86
-57.93
-64.72
-71.18
-75.89
-77.5
-75.16
-68.82
-59.26
-47.79
-35.79
-24.4
-14.29
-5.68
1.48
7.37
12.17
16.01
18.99
21.25
22.96
24.29
25.39
26.32
27.08
27.64
27.99
28.26
28.63
29.27
30.18
31.21
32.09
32.6
32.63
32.23
31.52
30.6
29.48
28.19
26.78
25.35
23.93
22.5
20.95
19.2
17.19
15.05
12.91
10.93
9.12
7.38
5.53
3.4
0.93
-1.84
-4.77
-7.69
-10.47
-13.12
-15.78
-18.69
-22.03
-25.84
-29.96
-34.1
-38.05
-41.74
-45.39
-49.37
-54.09
-59.88
-66.8
-74.44
-82.02
-88.34
-92.06
-92.12
-88.03
-80.15
-69.55
-57.65
-45.86
-35.08
-25.62
-17.31
-9.8
-2.76
3.96
10.31
16.15
21.34
25.76
29.35
32.14
34.18
35.65
36.77
37.81
38.97
40.38
41.99
43.64
45.12
46.21
46.83
47.01
46.86
46.49
45.94
45.19
44.14
42.73
40.9
38.66
36.01
33.01
29.76
26.48
23.46
20.95
19.08
17.69
16.39
14.72
12.31
9.12
5.36
1.38
-2.5
-6.12
-9.54
-12.89
-16.3
-19.87
-23.63
-27.53
-31.55
-35.65
-39.8
-44.06
-48.62
-53.87
-60.31
-68.24
-77.52
-87.34
-96.26
-102.56
-104.75
-102.06
-94.61
-83.37
-69.82
-55.44
-41.48
-28.71
-17.49
-7.77
0.73
8.46
15.84
23.14
30.43
37.56
44.22
50.07
54.85
58.42
60.82
62.23
63.0
63.56
64.28
65.4
66.88
68.41
69.53
69.86
69.21
67.7
65.62
63.25
60.7
58.0
55.08
51.98
48.84
45.88
43.27
41.05
39.12
37.36
35.65
33.99
32.4
30.93
29.58
28.27
26.88
25.2
23.07
20.33
16.99
13.21
9.25
5.38
1.73
-1.78
-5.41
-9.39
-13.87
-18.81
-24.01
-29.23
-34.3
-39.11
-43.59
-47.74
-51.68
-55.65
-60.16
-65.82
-73.09
-81.95
-91.57
-100.37
-106.35
-107.69
-103.44
-93.91
-80.56
-65.47
-50.69
-37.6
-26.68
-17.67
-9.95
-2.84
4.1
11.13
18.33
25.66
32.88
39.65
45.5
50.02
52.99
54.5
54.96
54.99
55.21
56.04
57.6
59.65
61.75
63.4
64.21
64.04
62.97
61.21
58.98
56.39
53.51
50.38
47.15
44.02
41.18
38.74
36.62
34.65
32.61
30.39
27.97
25.49
23.08
20.88
18.95
17.2
15.42
13.39
10.93
7.97
4.62
1.09
-2.34
-5.49
-8.33
-10.96
-13.62
-16.6
-20.13
-24.31
-29.08
-34.13
-39.06
-43.48
-47.23
-50.45
-53.62
-57.44
-62.6
-69.48
-77.92
-87.09
-95.54
-101.53
-103.44
-100.34
-92.26
-80.25
-66.05
-51.49
-37.99
-26.26
-16.31
-7.71
0.03
7.28
14.18
20.69
26.73
32.14
36.81
40.67
43.66
45.84
47.32
48.31
48.97
49.5
50.05
50.71
51.51
52.33
53.0
53.25
52.89
51.88
50.31
48.44
46.48
44.59
42.82
41.08
39.28
37.28
35.07
32.71
30.28
27.87
25.55
23.36
21.26
19.26
17.32
15.45
13.6
11.69
9.61
7.28
4.69
1.96
-0.8
-3.54
-6.32
-9.33
-12.74
-16.64
-20.97
-25.55
-30.17
-34.64
-38.84
-42.74
-46.45
-50.2
-54.4
-59.52
-65.94
-73.59
-81.82
-89.34
-94.52
-95.78
-92.17
-83.72
-71.52
-57.33
-43.15
-30.53
-20.29
-12.29
-5.87
-0.1
5.7
11.83
18.18
24.42
30.18
35.11
38.99
41.66
43.11
43.46
43.07
42.42
42.09
42.45
43.57
45.17
46.77
47.83
48.01
47.22
45.65
43.65
41.56
39.66
38.0
36.56
35.19
33.76
32.18
30.46
28.63
26.76
24.91
23.08
21.31
19.62
18.03
16.52
15.07
13.6
12.07
10.45
8.66
6.66
4.29
1.45
-1.88
-5.52
-9.13
-12.35
-14.96
-17.07
-19.01
-21.25
-24.13
-27.73
-31.76
-35.82
-39.53
-42.73
-45.58
-48.44
-51.82
-56.17
-61.76
-68.52
-75.9
-82.87
-88.05
-90.1
-88.0
-81.53
-71.28
-58.55
-45.0
-32.16
-21.1
-12.2
-5.24
0.4
5.38
10.19
15.08
19.96
24.61
28.77
32.21
34.82
36.58
37.59
38.03
38.18
38.34
38.73
39.46
40.48
41.62
42.66
43.37
43.57
43.2
42.26
40.84
39.09
37.13
35.1
33.08
31.14
29.34
27.7
26.22
24.8
23.33
21.66
19.78
17.78
15.8
13.98
12.34
10.75
9.02
6.99
4.65
2.09
-0.5
-2.98
-5.34
-7.65
-10.1
-12.86
-16.08
-19.74
-23.73
-27.85
-31.85
-35.56
-38.92
-42.0
-44.98
-48.17
-51.94
-56.69
-62.61
-69.5
-76.57
-82.45
-85.53
-84.49
-78.84
-69.15
-56.84
-43.72
-31.39
-20.81
-12.26
-5.54
-0.19
4.26
8.18
11.79
15.17
18.26
20.95
23.12
24.73
25.87
26.63
27.2
27.72
28.34
29.25
30.64
32.58
34.99
37.56
39.81
41.31
41.78
41.19
39.71
37.63
35.23
32.73
30.29
28.0
25.88
23.91
22.02
20.21
18.46
16.77
15.09
13.33
11.37
9.15
6.7
4.15
1.67
-0.67
-2.89
-5.14
-7.55
-10.22
-13.15
-16.31
-19.64
-22.96
-26.17
-29.13
-31.87
-34.59
-37.67
-41.61
-46.83
-53.43
-60.99
-68.7
-75.28
-79.42
-80.05
-76.67
-69.44
-59.29
-47.57
-35.68
-24.75
-15.34
-7.42
-0.57
5.74
11.88
17.89
23.49
28.26
31.85
34.15
35.38
35.96
36.31
36.72
37.21
37.66
37.97
38.16
38.37
38.68
39.02
39.13
38.68
37.46
35.54
33.27
31.08
29.26
27.83
26.58
25.2
23.51
21.52
19.4
17.46
15.86
14.64
13.62
12.54
11.06
9.01
6.32
3.18
-0.12
-3.25
-6.0
-8.38
-10.67
-13.29
-16.56
-20.62
-25.35
-30.36
-35.27
-39.82
-44.0
-48.0
-52.21
-57.05
-62.88
-69.81
-77.58
-85.39
-91.95
-95.74
-95.46
-90.48
-81.12
-68.53
-54.42
-40.44
-27.75
-16.88
-7.79
-0.04
6.8
13.13
19.16
24.91
30.3
35.12
39.18
42.29
44.4
45.59
46.12
46.32
46.53
46.99
47.82
48.96
50.22
51.33
51.99
51.96
51.09
49.39
47.05
44.37
41.67
39.22
37.1
35.27
33.58
31.84
29.95
27.97
25.97
24.08
22.39
20.88
19.53
18.27
16.99
15.6
13.96
11.91
9.4
6.46
3.29
0.15
-2.7
-5.16
-7.37
-9.62
-12.29
-15.69
-19.89
-24.72
-29.76
-34.55
-38.71
-42.19
-45.2
-48.23
-51.82
-56.44
-62.3
-69.28
-76.73
-83.56
-88.34
-89.7
-86.73
-79.38
-68.58
-55.87
-42.95
-31.1
-20.91
-12.29
-4.76
2.21
9.0
15.77
22.52
29.1
35.29
40.8
45.31
48.61
50.58
51.34
51.15
50.47
49.78
49.51
49.87
50.8
51.96
52.84
53.0
52.23
50.63
48.46
46.04
43.63
41.32
39.14
37.09
35.22
33.55
32.01
30.47
28.82
27.04
25.2
23.42
21.79
20.33
18.98
17.71
16.54
15.41
14.2
12.68
10.57
7.71
4.17
0.32
-3.47
-6.78
-9.48
-11.68
-13.68
-15.8
-18.33
-21.35
-24.77
-28.4
-32.01
-35.42
-38.62
-41.71
-45.02
-48.99
-54.07
-60.56
-68.4
-76.87
-84.62
-89.93
-91.2
-87.52
-79.06
-67.05
-53.29
-39.64
-27.46
-17.38
-9.4
-3.12
1.99
6.44
10.67
15.01
19.53
24.15
28.57
32.44
35.56
37.85
39.44
40.53
41.31
41.92
42.57
43.37
44.41
45.64
46.81
47.53
47.46
46.42
44.51
42.06
39.46
36.98
34.64
32.37
30.03
27.62
25.26
23.14
21.39
19.93
18.58
17.18
15.61
13.95
12.38
11.03
9.89
8.78
7.4
5.44
2.82
-0.33
-3.59
-6.56
-8.98
-10.9
-12.61
-14.57
-17.11
-20.32
-24.08
-28.15
-32.32
-36.41
-40.37
-44.14
-47.72
-51.3
-55.32
-60.35
-66.81
-74.61
-82.86
-90.02
-94.23
-94.02
-88.8
-79.08
-66.24
-52.08
-38.23
-25.84
-15.38
-6.81
0.25
6.28
11.7
16.82
21.82
26.75
31.53
35.99
39.85
42.78
44.55
45.06
44.51
43.35
42.15
41.44
41.46
42.18
43.27
44.25
44.75
44.59
43.76
42.41
40.79
39.05
37.27
35.43
33.48
31.45
29.45
27.64
26.17
25.06
24.21
23.41
22.46
21.24
19.71
17.9
15.92
13.82
11.63
9.36
6.92
4.28
1.4
-1.66
-4.73
-7.59
-10.07
-12.19
-14.19
-16.48
-19.42
-23.18
-27.59
-32.29
-36.84
-40.99
-44.71
-48.23
-51.88
-56.08
-61.19
-67.49
-75.05
-83.47
-91.84
-98.72
-102.43
-101.65
-95.81
-85.39
-71.75
-56.7
-41.95
-28.74
-17.62
-8.52
-1.02
5.41
11.26
16.79
22.06
26.99
31.44
35.3
38.48
40.91
42.54
43.36
43.5
43.26
43.04
43.24
44.02
45.26
46.57
47.48
47.61
46.81
45.12
42.8
40.21
37.71
35.59
34.02
32.94
32.11
31.27
30.15
28.66
26.88
24.92
22.91
20.92
19.0
17.19
15.52
13.9
12.16
10.04
7.28
3.88
0.08
-3.74
-7.15
-10.0
-12.39
-14.68
-17.29
-20.51
-24.38
-28.75
-33.35
-37.84
-42.09
-46.03
-49.8
-53.69
-58.17
-63.75
-70.83
-79.31
-88.44
-96.78
-102.43
-103.63
-99.32
-89.6
-75.68
-59.54
-43.29
-28.53
-16.14
-6.17
1.83
8.5
14.38
19.78
24.81
29.42
33.48
36.87
39.54
41.52
42.9
43.83
44.53
45.22
46.07
47.18
48.46
49.7
50.65
51.13
51.05
50.5
49.62
48.56
47.4
46.16
44.85
43.51
42.2
40.96
39.78
38.55
37.14
35.43
33.43
31.22
28.98
26.82
24.8
22.81
20.67
18.27
15.48
12.34
8.94
5.44
2.03
-1.16
-3.99
-6.47
-8.74
-11.05
-13.71
-16.95
-20.87
-25.38
-30.24
-35.16
-39.94
-44.47
-48.79
-53.14
-57.93
-63.72
-70.91
-79.53
-88.86
-97.44
-103.37
-104.88
-100.98
-91.85
-78.73
-63.5
-48.01
-33.58
-20.93
-10.23
-1.33
6.02
12.12
17.37
22.16
26.75
31.25
35.52
39.36
42.57
45.01
46.7
47.73
48.27
48.57
48.94
49.64
50.85
52.48
54.21
55.54
56.02
55.4
53.77
51.46
48.9
46.52
44.52
42.89
41.52
40.18
38.69
36.99
35.13
33.16
31.16
29.16
27.16
25.17
23.19
21.27
19.41
17.59
15.7
13.59
11.04
7.89
4.12
-0.15
-4.62
-8.88
-12.54
-15.46
-17.77
-19.89
-22.3
-25.42
-29.33
-33.84
-38.56
-43.14
-47.4
-51.41
-55.53
-60.23
-66.1
-73.55
-82.47
-92.1
-100.94
-107.05
-108.66
-104.7
-95.24
-81.48
-65.24
-48.5
-32.79
-19.05
-7.57
1.75
9.29
15.47
20.76
25.54
30.01
34.23
38.11
41.5
44.25
46.29
47.66
48.45
48.94
49.38
50.02
50.97
52.1
53.16
53.8
53.73
52.85
51.24
49.09
46.63
44.03
41.39
38.84
36.5
34.51
32.92
31.7
30.66
29.55
28.19
26.52
24.68
22.88
21.31
19.99
18.76
17.34
15.47
13.08
10.21
7.09
3.93
0.86
-2.15
-5.17
-8.33
-11.76
-15.49
-19.52
-23.85
-28.38
-32.99
-37.5
-41.72
-45.64
-49.42
-53.47
-58.36
-64.52
-71.97
-80.07
-87.55
-92.71
-93.97
-90.33
-81.81
-69.41
-54.83
-39.95
-26.36
-14.98
-6.01
0.87
6.2
10.61
14.5
18.12
21.59
24.92
28.07
31.01
33.65
35.9
37.65
38.91
39.82
40.64
41.71
43.28
45.33
47.55
49.39
50.28
49.83
48.08
45.34
42.16
39.02
36.2
33.71
31.43
29.21
27.06
25.08
23.39
21.97
20.73
19.44
17.92
16.06
13.83
11.27
8.45
5.47
2.5
-0.34
-3.0
-5.63
-8.49
-11.88
-15.93
-20.49
-25.2
-29.67
-33.62
-37.1
-40.36
-43.76
-47.72
-52.63
-58.81
-66.39
-75.03
-83.77
-91.06
-95.11
-94.56
-88.98
-79.04
-66.27
-52.55
-39.44
-27.86
-18.01
-9.62
-2.29
4.36
10.53
16.37
21.93
27.22
32.2
36.64
40.26
42.79
44.1
44.42
44.21
44.1
44.59
45.87
47.74
49.75
51.38
52.23
52.13
51.11
49.32
47.0
44.43
41.84
39.46
37.33
35.43
33.61
31.75
29.77
27.64
25.38
22.99
20.53
18.07
15.78
13.82
12.25
10.91
9.5
7.68
5.26
2.28
-1.03
-4.36
-7.5
-10.41
-13.23
-16.19
-19.53
-23.4
-27.75
-32.35
-36.93
-41.2
-45.1
-48.73
-52.42
-56.56
-61.54
-67.61
-74.77
-82.7
-90.6
-97.17
-100.87
-100.33
-94.88
-84.83
-71.45
-56.6
-42.05
-29.04
-18.06
-8.99
-1.38
5.27
11.38
17.17
22.75
28.09
32.98
37.21
40.59
43.04
44.67
45.73
46.48
47.13
47.81
48.57
49.42
50.33
51.24
51.95
52.23
51.89
50.81
49.07
46.87
44.5
42.17
39.96
37.85
35.77
33.7
31.69
29.85
28.27
26.96
25.81
24.64
23.22
21.42
19.15
16.45
13.41
10.12
6.71
3.28
-0.06
-3.18
-5.96
-8.34
-10.43
-12.45
-14.82
-17.91
-21.95
-26.87
-32.31
-37.8
-42.91
-47.42
-51.49
-55.56
-60.21
-66.04
-73.44
-82.33
-92.01
-101.13
-107.9
-110.52
-107.8
-99.55
-86.7
-71.01
-54.51
-38.92
-25.31
-14.04
-4.87
2.73
9.4
15.65
21.81
27.95
33.97
39.53
44.27
47.86
50.04
50.85
50.55
49.69
48.95
48.86
49.63
51.03
52.57
53.67
53.99
53.49
52.4
51.0
49.5
47.94
46.32
44.63
42.9
41.14
39.27
37.2
34.83
32.16
29.27
26.29
23.37
20.59
18.03
15.75
13.75
11.98
10.31
8.51
6.42
3.89
0.97
-2.24
-5.55
-8.82
-11.92
-14.81
-17.53
-20.22
-23.1
-26.36
-30.09
-34.17
-38.36
-42.38
-46.1
-49.6
-53.19
-57.31
-62.42
-68.86
-76.63
-85.27
-93.67
-100.26
-103.33
-101.63
-94.76
-83.41
-69.1
-53.67
-38.76
-25.43
-14.13
-4.81
2.86
9.34
15.14
20.69
26.25
31.75
36.9
41.21
44.31
46.06
46.63
46.4
45.82
45.31
45.19
45.64
46.66
48.05
49.49
50.56
50.98
50.65
49.7
48.38
46.94
45.51
44.05
42.49
40.76
38.91
37.07
35.39
33.91
32.52
31.0
29.14
26.84
24.15
21.32
18.63
16.26
14.25
12.43
10.49
8.19
5.45
2.36
-0.82
-3.85
-6.62
-9.21
-11.91
-15.09
-19.05
-23.84
-29.31
-35.06
-40.69
-45.85
-50.43
-54.59
-58.72
-63.41
-69.25
-76.59
-85.32
-94.67
-103.23
-109.22
-110.91
-107.22
-98.07
-84.5
-68.33
-51.63
-36.15
-22.89
-12.1
-3.39
3.89
10.39
16.49
22.36
27.93
33.09
37.64
41.45
44.41
46.47
47.7
48.27
48.5
48.76
49.38
50.54
52.18
54.0
55.55
56.37
56.22
55.09
53.23
51.03
48.83
46.79
44.92
43.14
41.37
39.58
37.79
35.98
34.11
32.12
29.98
27.72
25.44
23.17
20.95
18.71
16.39
13.95
11.37
8.58
5.59
2.38
-1.02
-4.49
-7.93
-11.3
-14.72
-18.4
-22.51
-27.02
-31.71
-36.24
-40.39
-44.17
-47.87
-51.98
-56.95
-63.16
-70.69
-79.24
-88.0
-95.68
-100.74
-101.75
-97.89
-89.24
-76.85
-62.36
-47.5
-33.61
-21.43
-11.11
-2.41
5.06
11.66
17.6
22.95
27.68
31.74
35.11
37.83
39.98
41.6
42.75
43.51
44.08
44.73
45.78
47.33
49.22
51.06
52.3
52.6
51.84
50.27
48.27
46.28
44.5
42.99
41.65
40.26
38.71
36.95
35.03
32.91
30.62
28.13
25.51
22.89
20.45
18.3
16.34
14.23
11.56
8.13
3.97
-0.54
-4.9
-8.78
-12.15
-15.32
-18.69
-22.58
-27.01
-31.78
-36.52
-40.92
-44.92
-48.66
-52.56
-57.21
-63.19
-70.78
-79.73
-89.08
-97.21
-102.33
-102.93
-98.33
-88.89
-75.91
-61.12
-46.22
-32.45
-20.39
-10.08
-1.2
6.71
14.01
20.91
27.45
33.52
38.96
43.56
47.24
49.91
51.6
52.44
52.7
52.68
52.71
52.97
53.44
53.97
54.29
54.14
53.38
52.02
50.19
48.11
46.0
44.01
42.19
40.48
38.72
36.78
34.63
32.41
30.31
28.58
27.3
26.34
25.45
24.29
22.65
20.51
17.97
15.26
12.53
9.86
7.23
4.54
1.73
-1.19
-4.17
-7.13
-10.05
-13.01
-16.17
-19.66
-23.55
-27.8
-32.25
-36.68
-40.95
-44.98
-48.86
-52.76
-56.96
-61.84
-67.8
-75.13
-83.68
-92.68
-100.68
-105.92
-106.83
-102.6
-93.47
-80.67
-65.99
-51.19
-37.54
-25.67
-15.63
-7.06
0.46
7.37
13.99
20.47
26.76
32.66
37.92
42.27
45.55
47.74
48.98
49.53
49.73
49.9
50.26
50.89
51.7
52.47
52.99
53.03
52.49
51.36
49.78
47.95
46.15
44.52
43.09
