0
-61.51
-46.73
-31.42
-16.64
-3.06
8.99
19.29
27.62
33.76
37.73
39.81
40.57
40.75
40.95
41.55
42.64
44.1
45.69
47.22
48.49
49.29
49.43
48.7
47.0
44.35
40.94
37.06
33.08
29.28
25.77
22.47
19.13
15.46
11.26
6.51
1.33
-4.01
-9.27
-14.35
-19.3
-24.33
-29.81
-36.12
-43.56
-52.18
-61.63
-71.08
-79.25
-84.65
-85.98
-82.47
-74.18
-61.94
-47.16
-31.37
-15.9
-1.56
11.2
22.25
31.43
38.6
43.62
46.54
47.75
47.92
47.8
47.97
48.65
49.71
50.82
51.66
52.09
52.14
51.94
51.5
50.7
49.29
47.0
43.7
39.46
34.55
29.43
24.51
20.06
16.07
12.28
8.3
3.8
-1.33
-6.88
-12.51
-17.92
-23.02
-28.0
-33.24
-39.19
-46.16
-54.27
-63.31
-72.67
-81.31
-87.91
-91.08
-89.8
-83.76
-73.47
-60.13
-45.25
-30.16
-15.76
-2.51
9.44
19.99
28.94
36.07
41.16
44.26
45.67
45.96
45.81
45.77
46.13
46.84
47.63
48.16
48.28
48.03
47.57
46.97
46.09
44.61
42.19
38.69
34.3
29.47
24.72
20.41
16.58
13.01
9.3
5.08
0.18
-5.32
-11.1
-16.77
-21.99
-26.67
-31.02
-35.49
-40.61
-46.81
-54.28
-62.8
-71.74
-80.05
-86.36
-89.3
-87.83
-81.66
-71.34
-58.15
-43.71
-29.44
-16.24
-4.48
5.81
14.61
21.8
27.16
30.58
32.28
32.74
32.67
32.7
33.21
34.33
35.86
37.5
38.96
39.98
40.49
40.45
39.85
38.65
36.81
34.29
31.15
27.6
23.89
20.19
16.55
12.87
9.04
5.0
0.79
-3.51
-7.87
-12.45
-17.49
-23.29
-30.05
-37.83
-46.44
-55.39
-63.81
-70.49
-74.14
-73.69
-68.75
-59.79
-47.96
-34.78
-21.64
-9.45
1.36
10.66
18.51
24.9
29.75
32.98
34.67
35.07
34.59
33.74
32.97
32.61
32.75
33.29
34.03
34.73
35.19
35.19
34.51
32.92
30.34
26.86
22.8
18.51
14.24
10.0
5.55
0.64
-4.79
-10.55
-16.3
-21.68
-26.58
-31.14
-35.77
-40.99
-47.3
-55.07
-64.34
-74.69
-85.06
-93.92
-99.54
-100.56
-96.43
-87.62
-75.39
-61.32
-46.85
-32.9
-19.87
-7.85
3.14
12.98
21.44
28.32
33.56
37.35
40.03
41.99
43.54
44.82
45.81
46.48
46.87
47.14
47.48
47.94
48.28
48.0
46.59
43.74
39.61
34.71
29.73
25.23
21.4
18.02
14.65
10.79
6.14
0.68
-5.39
-11.71
-17.98
-24.04
-29.93
-35.89
-42.35
-49.71
-58.29
-68.09
-78.62
-88.92
-97.6
-103.14
-104.29
-100.38
-91.58
-78.81
-63.53
-47.28
-31.41
-16.79
-3.9
7.15
16.33
23.65
29.12
32.84
35.12
36.47
37.54
38.87
40.73
43.07
45.54
47.68
49.15
49.78
49.62
48.82
47.54
45.84
43.72
41.09
37.88
34.07
29.67
24.76
19.42
13.66
7.54
1.12
-5.49
-12.11
-18.59
-24.9
-31.23
-37.94
-45.52
-54.35
-64.43
-75.2
-85.41
-93.4
-97.41
-96.16
-89.28
-77.44
-62.13
-45.18
-28.21
-12.3
2.1
14.9
26.04
35.37
42.59
47.5
50.23
51.31
51.52
51.63
52.11
53.04
54.17
55.19
55.9
56.33
56.62
56.78
56.57
55.53
53.21
49.41
44.35
38.57
32.68
27.02
21.6
16.05
9.97
3.11
-4.47
-12.42
-20.32
-27.8
-34.72
-41.25
-47.83
-55.12
-63.77
-74.2
-86.23
-98.99
-110.93
-120.13
-124.78
-123.71
-116.66
-104.33
-88.13
-69.7
-50.58
-31.93
-14.43
1.51
15.65
27.82
37.89
45.83
51.81
56.14
59.32
61.79
63.93
65.93
67.86
69.66
71.26
72.54
73.43
73.85
73.68
72.79
71.01
68.2
64.35
59.62
54.35
48.93
43.66
38.61
33.6
28.25
22.22
15.29
7.54
-0.71
-9.01
-16.92
-24.21
-30.93
-37.55
-44.76
-53.37
-63.89
-76.26
-89.66
-102.52
-112.84
-118.66
-118.62
-112.25
-100.13
-83.73
-64.89
-45.41
-26.68
-9.54
5.67
18.85
29.94
38.91
45.77
50.7
54.09
56.43
58.27
59.98
61.75
63.56
65.29
66.85
68.17
69.21
69.93
70.25
69.97
68.81
66.51
62.96
58.3
52.93
47.39
42.08
37.12
32.27
27.07
21.11
14.31
6.91
-0.63
-7.85
-14.53
-20.73
-26.81
-33.23
-40.52
-49.1
-59.16
-70.4
-81.99
-92.42
-99.87
-102.54
-99.25
-89.82
-75.17
-57.02
-37.43
-18.24
-0.72
14.53
27.35
37.82
45.97
51.77
55.25
56.71
56.82
56.44
56.41
57.21
58.79
60.7
62.36
63.33
63.5
63.03
62.13
60.91
59.23
56.86
53.57
49.37
44.48
39.3
34.2
29.37
24.66
19.72
14.11
7.58
0.23
-7.53
-15.13
-22.12
-28.38
-34.25
-40.28
-47.14
-55.4
-65.31
-76.8
-89.35
-101.95
-113.09
-121.01
-124.09
-121.27
-112.45
-98.48
-80.92
-61.57
-42.03
-23.38
-6.23
9.19
22.77
34.38
43.83
50.97
55.86
58.77
60.3
61.1
61.79
62.69
63.81
64.94
65.83
66.31
66.31
65.88
65.05
63.76
61.85
59.1
55.34
50.55
44.94
38.93
33.04
27.68
22.93
18.52
13.89
8.53
2.2
-4.9
-12.22
-19.22
-25.56
-31.27
-36.81
-42.78
-49.8
-58.36
-68.55
-80.04
-91.91
-102.73
-110.81
-114.55
-112.91
-105.7
-93.6
-77.91
-60.23
-42.05
-24.51
-8.38
5.96
18.27
28.44
36.38
42.11
45.81
47.89
49.0
49.82
50.89
52.43
54.33
56.24
57.87
59.06
59.81
60.16
60.04
59.25
57.51
54.66
50.76
46.06
40.93
35.7
30.6
25.69
20.93
16.22
11.38
6.24
0.7
-5.25
-11.39
-17.44
-23.17
-28.59
-34.01
-40.01
-47.18
-55.84
-65.77
-76.09
-85.31
-91.7
-93.65
-90.24
-81.47
-68.29
-52.27
-35.15
-18.35
-2.81
10.97
22.66
32.01
38.81
43.04
44.94
45.18
44.56
43.86
43.59
43.95
44.82
46.0
47.25
48.38
49.27
49.7
49.4
48.01
45.27
41.16
36.03
30.5
25.22
20.61
16.64
12.88
8.79
3.92
-1.8
-8.16
-14.8
-21.39
-27.74
-33.81
-39.69
-45.6
-51.9
-59.1
-67.67
-77.74
-88.82
-99.67
-108.53
-113.56
-113.39
-107.55
-96.52
-81.59
-64.38
-46.43
-28.92
-12.59
2.15
15.08
25.98
34.68
41.09
45.29
47.67
48.81
49.37
49.92
50.76
51.96
53.43
55.0
56.53
57.88
58.91
59.41
59.12
57.75
55.1
51.12
46.04
40.33
34.55
29.2
24.46
20.16
15.88
11.11
5.59
-0.6
-7.12
-13.53
-19.46
-24.83
-29.76
-34.6
-39.86
-46.1
-53.83
-63.21
-73.85
-84.7
-94.18
-100.59
-102.53
-99.34
-91.23
-79.1
-64.28
-48.17
-31.95
-16.51
-2.41
10.02
20.6
29.25
35.94
40.72
43.83
45.66
46.77
47.69
48.79
50.15
51.62
52.9
53.76
54.14
54.06
53.62
52.82
51.52
49.5
46.61
42.85
38.43
33.7
29.05
24.76
20.82
17.06
13.11
8.68
3.66
-1.77
-7.24
-12.32
-16.82
-20.86
-24.86
-29.44
-35.23
-42.59
-51.54
-61.62
-71.91
-81.06
-87.57
-90.11
-87.87
-80.78
-69.6
-55.58
-40.26
-24.98
-10.72
1.92
12.7
21.49
28.22
32.84
35.43
36.26
35.88
35.04
34.47
34.71
35.92
37.88
40.12
42.16
43.65
44.4
44.39
43.61
42.09
39.82
36.85
33.26
29.14
24.59
19.71
14.55
9.21
3.72
-1.87
-7.55
-13.27
-18.96
-24.58
-30.18
-36.06
-42.72
-50.65
-60.05
-70.52
-81.01
-89.96
-95.76
-97.09
-93.34
-84.68
-71.93
-56.45
-39.81
-23.46
-8.55
4.28
14.9
23.42
30.12
35.18
38.74
41.0
42.23
42.82
43.14
43.41
43.7
43.99
44.26
44.59
45.02
45.47
45.64
45.08
43.43
40.53
36.58
31.97
27.2
22.62
18.33
14.25
10.09
5.53
0.33
-5.55
-11.92
-18.47
-24.84
-30.91
-36.8
-42.88
-49.66
-57.59
-66.89
-77.31
-88.09
-97.88
-105.02
-107.85
-105.32
-97.26
-84.51
-68.61
-51.34
-34.21
-18.22
-3.86
8.66
19.24
27.81
34.39
39.2
42.62
45.15
47.24
49.16
51.0
52.67
54.01
54.94
55.51
55.84
56.09
56.26
56.15
55.42
53.69
50.76
46.73
41.96
36.98
32.23
27.91
23.96
20.0
15.57
10.32
4.1
-2.86
-10.16
-17.26
-23.83
-29.87
-35.75
-42.11
-49.58
-58.55
-68.98
-80.26
-91.27
-100.47
-106.19
-107.02
-102.24
-92.06
-77.63
-60.72
-43.13
-26.24
-10.81
2.93
14.94
25.11
33.22
39.11
42.94
45.24
46.76
48.2
49.93
51.95
54.01
55.8
57.17
58.14
58.82
59.32
59.6
59.48
58.66
56.84
53.86
49.79
44.97
39.87
34.92
30.34
25.99
21.54
16.6
11.0
4.86
-1.46
-7.54
-13.17
-18.42
-23.65
-29.43
-36.31
-44.66
-54.47
-65.26
-75.98
-85.23
-91.39
-93.11
-89.59
-80.89
-67.9
-52.08
-35.13
-18.52
-3.28
10.06
21.34
30.54
37.62
42.57
45.52
46.79
46.93
46.61
46.4
46.67
47.48
48.68
49.98
51.11
51.78
51.81
51.1
49.57
47.26
44.23
40.61
36.48
32.01
27.3
22.48
17.63
12.7
7.63
2.31
-3.29
-9.05
-14.78
-20.33
-25.79
-31.47
-37.89
-45.57
-54.79
-65.32
-76.39
-86.71
-94.75
-99.1
-98.79
-93.5
-83.6
-70.06
-54.16
-37.24
-20.49
-4.84
9.1
20.91
30.35
37.38
42.13
44.98
46.47
47.28
48.02
49.04
50.47
52.15
53.84
55.33
56.45
57.13
57.28
56.76
55.39
53.1
49.93
46.08
41.87
37.61
33.48
29.44
25.26
20.6
15.18
8.95
2.11
-4.83
-11.35
-17.1
-22.12
-26.84
-32.0
-38.36
-46.48
-56.48
-67.89
-79.63
-90.16
-97.69
-100.67
-98.2
-90.31
-77.97
-62.79
-46.44
-30.25
-14.97
-0.92
11.75
22.77
31.83
38.66
43.28
46.11
47.79
48.98
50.15
51.48
52.95
54.43
55.78
56.9
57.72
58.14
58.07
57.4
56.05
53.91
50.93
47.16
42.82
38.21
33.64
29.29
25.05
20.64
15.75
10.24
4.22
-2.0
-8.05
-13.69
-18.94
-24.07
-29.53
-35.85
-43.44
-52.48
-62.74
-73.51
-83.61
-91.62
-96.12
-96.1
-91.2
-81.83
-69.09
-54.35
-38.98
-24.02
-10.13
2.34
13.13
21.96
28.63
33.07
35.55
36.63
36.98
37.22
37.66
38.37
39.29
40.34
41.47
42.62
43.68
44.4
44.5
43.71
41.92
39.17
35.67
31.68
27.46
23.17
18.85
14.38
9.58
4.28
-1.58
-7.91
-14.46
-21.01
-27.44
-33.79
-40.29
-47.28
-55.1
-63.91
-73.53
-83.25
-91.83
-97.71
-99.43
-96.12
-87.77
-75.31
-60.22
-44.07
-28.09
-13.03
0.69
12.76
22.87
30.72
36.22
39.59
41.37
42.23
42.81
43.53
44.59
45.95
47.5
49.02
50.25
50.93
50.87
49.93
48.09
45.41
42.03
38.16
33.96
29.6
25.2
20.74
16.07
11.05
5.52
-0.53
-6.95
-13.52
-20.0
-26.26
-32.38
-38.71
-45.71
-53.9
-63.64
-74.77
-86.54
-97.51
-105.86
-109.86
-108.36
-101.23
-89.29
-74.07
-57.29
-40.38
-24.23
-9.21
4.57
17.0
27.87
36.88
43.88
48.95
52.48
54.99
56.9
58.47
59.73
60.63
61.2
61.53
61.73
61.81
61.63
60.87
59.29
56.72
53.23
49.06
44.5
39.82
35.18
30.55
25.76
20.57
14.8
8.45
1.76
-4.91
-11.24
-17.16
-22.84
-28.7
-35.24
-42.92
-52.01
-62.52
-74.03
-85.58
-95.64
-102.43
-104.39
-100.76
-91.79
-78.72
-63.21
-46.85
-30.68
-15.21
-0.62
12.88
24.9
34.94
42.58
47.68
50.51
51.67
51.95
52.05
52.48
53.39
54.69
56.12
57.37
58.2
58.39
57.7
55.92
52.91
48.76
43.77
38.45
33.25
28.39
23.82
19.28
14.49
9.27
3.6
-2.44
-8.72
-15.15
-21.7
-28.43
-35.5
-43.22
-51.91
-61.66
-72.15
-82.44
-91.13
-96.67
-97.76
-93.74
-84.69
-71.4
-55.11
-37.27
-19.17
-1.86
13.95
27.74
39.13
47.8
53.64
56.85
58.0
57.92
57.47
57.29
57.62
58.38
59.33
60.24
60.88
61.09
60.67
59.43
57.25
54.19
50.48
46.4
42.19
37.92
33.52
28.81
23.55
17.61
10.97
3.81
-3.53
-10.69
-17.41
-23.69
-29.83
-36.34
-43.82
-52.7
-63.04
-74.39
-85.7
-95.45
-101.93
-103.67
-99.88
-90.64
-76.89
-60.14
-41.99
-23.78
-6.46
9.38
23.36
35.17
44.56
51.44
55.96
58.54
59.79
60.34
60.68
61.08
61.55
62.01
62.4
62.68
62.86
62.84
62.41
61.27
59.14
55.92
51.72
46.83
41.57
36.2
30.86
25.61
20.42
15.26
10.04
4.59
-1.19
-7.31
-13.6
-19.75
-25.6
-31.22
-36.97
-43.44
-51.2
-60.48
-71.04
-82.02
-92.03
-99.41
-102.65
-100.75
-93.63
-82.05
-67.43
-51.35
-35.06
-19.38
-4.71
8.68
20.4
29.98
37.09
41.74
44.32
45.55
46.15
46.71
47.55
48.71
50.1
51.52
52.76
53.66
54.09
53.97
53.23
51.79
49.54
46.41
42.43
37.84
32.98
28.24
23.89
19.97
16.27
12.42
8.03
2.92
-2.84
-8.93
-14.96
-20.6
-25.75
-30.64
-35.65
-41.29
-47.97
-55.86
-64.77
-74.11
-82.79
-89.38
-92.43
-90.8
-84.11
-72.89
-58.5
-42.62
-26.86
-12.27
0.6
11.63
20.8
28.02
33.19
36.35
37.86
38.31
38.42
38.75
39.57
40.8
42.18
43.44
44.44
45.18
45.68
45.92
45.66
44.58
42.39
39.0
34.59
29.57
24.4
19.39
14.59
9.87
4.99
-0.14
-5.48
-10.85
-16.13
-21.27
-26.41
-31.8
-37.75
-44.54
-52.35
-61.18
-70.71
-80.18
-88.41
-94.02
-95.77
-92.92
-85.51
-74.25
-60.42
-45.36
-30.26
-15.89
-2.72
8.98
18.98
27.01
32.95
36.86
39.13
40.34
41.06
41.7
42.38
43.06
43.62
44.06
44.45
44.83
45.16
45.22
44.76
43.5
41.31
38.13
34.0
29.09
23.7
18.25
13.18
8.73
4.82
1.0
-3.27
-8.38
-14.32
-20.68
-26.89
-32.53
-37.58
-42.42
-47.71
-54.09
-61.96
-71.23
-81.16
-90.54
-97.79
-101.41
-100.36
-94.32
-83.83
-70.02
-54.28
-37.93
-21.99
-7.2
5.99
17.24
26.34
33.21
37.88
40.62
41.88
42.28
42.43
42.78
43.54
44.58
45.64
46.44
46.84
46.9
46.71
46.34
45.6
44.18
41.82
38.4
34.12
29.36
24.57
20.08
15.92
11.9
7.69
3.0
-2.27
-8.0
-13.88
-19.57
-24.91
-29.89
-34.74
-39.79
-45.42
-52.02
-59.88
-69.08
-79.28
-89.56
-98.45
-104.27
-105.58
-101.75
-93.08
-80.69
-66.08
-50.59
-35.22
-20.58
-7.1
4.86
14.97
22.99
28.97
33.15
35.97
37.9
39.33
40.53
41.65
42.76
43.82
44.81
45.7
46.5
47.2
47.72
47.83
47.22
45.59
42.8
39.0
34.58
29.98
25.61
21.6
17.8
13.88
9.44
4.22
-1.74
-8.16
-14.6
-20.69
-26.26
-31.51
-36.9
-43.0
-50.37
-59.2
-69.27
-79.77
-89.36
-96.47
-99.57
-97.65
-90.53
-78.94
-64.25
-48.04
-31.66
-16.05
-1.74
10.97
21.76
30.32
36.4
40.04
41.65
41.93
41.66
41.5
41.82
42.73
44.1
45.7
47.31
48.65
49.47
49.55
48.69
46.8
43.93
40.28
36.13
31.78
27.39
22.93
18.24
13.09
7.36
1.07
-5.55
-12.26
-18.86
-25.33
-31.75
-38.34
-45.36
-53.21
-62.24
-72.62
-84.1
-95.73
-105.91
-112.73
-114.51
-110.33
-100.38
-85.82
-68.41
-49.92
-31.77
-14.8
0.57
14.19
25.89
35.51
42.94
48.24
51.76
54.06
55.81
57.52
59.41
61.4
63.19
64.49
65.16
65.28
65.0
64.44
63.49
61.91
59.41
55.84
51.35
46.27
41.05
35.98
31.09
26.12
20.74
14.7
8.03
0.96
-6.12
-12.94
-19.43
-25.79
-32.41
-39.78
-48.35
-58.36
-69.65
-81.52
-92.62
-101.15
-105.26
-103.57
-95.64
-82.15
-64.66
-45.02
-24.9
-5.43
12.78
29.42
44.22
56.92
67.28
75.28
81.19
85.61
89.19
92.52
95.98
99.64
103.43
107.22
110.94
114.69
118.66
122.93
127.27
130.99
133.01
132.19
127.78
119.69
108.67
95.94
82.8
70.22
58.71
48.47
39.62
32.36
26.88
23.04
20.23
17.34
13.04
6.13
-4.13
-17.9
-34.73
-53.58
-72.88
-90.58
-104.5
-112.7
-114.13
-109.04
-98.97
-86.3
-73.41
-62.03
-52.83
-45.55
-39.47
-33.95
-28.62
-23.46
-18.54
-13.82
-9.14
-4.33
0.59
5.38
9.64
12.98
15.27
16.59
17.2
17.33
17.1
16.47
15.35
13.66
11.39
8.52
5.07
0.94
-3.96
-9.75
-16.44
-23.92
-31.93
-40.11
-48.06
-55.51
-62.4
-68.95
-75.68
-83.25
-92.23
-102.85
-114.67
-126.57
-136.8
-143.42
-144.79
-140.12
-129.62
-114.49
-96.47
-77.36
-58.61
-41.16
-25.48
-11.84
-0.41
8.71
15.53
20.33
23.55
25.75
27.48
29.11
30.9
32.94
35.25
37.72
40.16
42.29
43.82
44.47
44.09
42.65
40.2
36.88
32.84
28.22
23.15
17.69
11.94
6.03
0.14
-5.53
-10.84
-15.75
-20.43
-25.19
-30.49
-36.81
-44.63
-54.19
-65.33
-77.32
-88.76
-97.81
-102.6
-101.78
-94.92
-82.66
-66.41
-47.95
-28.9
-10.51
6.48
21.66
34.83
45.81
54.48
60.79
64.85
66.99
67.77
67.86
67.85
68.17
68.91
69.96
71.0
71.73
71.85
71.15
69.56
67.05
63.7
59.6
54.83
49.42
43.37
36.71
29.58
22.28
15.1
8.23
1.65
-4.83
-11.51
-18.66
-26.47
-35.15
-44.88
-55.71
-67.24
-78.42
-87.55
-92.71
-92.32
-85.81
-73.84
-58.04
-40.38
-22.58
-5.71
9.74
23.59
35.6
45.4
52.59
57.01
58.97
59.21
58.71
58.35
58.64
59.61
60.91
62.1
62.84
63.01
62.63
61.74
60.24
57.95
54.74
50.59
45.69
40.21
34.31
27.98
21.16
13.85
6.23
-1.38
-8.67
-15.51
-22.02
-28.63
-35.92
-44.46
-54.61
-66.19
-78.41
-89.78
-98.44
-102.68
-101.4
-94.45
-82.6
-67.19
-49.75
-31.6
-13.72
3.22
18.76
32.53
44.14
53.33
59.96
64.2
66.47
67.41
67.7
67.85
68.11
68.52
69.06
69.69
70.35
70.86
70.85
69.8
67.32
63.29
58.04
52.14
46.16
40.45
35.07
29.82
24.45
18.78
12.71
6.24
-0.56
-7.64
-14.88
-22.2
-29.58
-37.17
-45.26
-54.21
-64.25
-75.15
-86.07
-95.53
-101.79
-103.28
-99.2
-89.78
-76.17
-59.97
-42.69
-25.4
-8.69
7.04
21.31
33.46
42.87
49.26
52.94
54.68
55.46
56.07
56.89
57.93
58.93
59.73
60.25
60.57
60.75
60.75
60.4
59.38
57.39
54.27
50.15
45.43
40.6
36.06
31.89
27.84
23.5
18.45
12.53
5.87
-1.18
-8.14
-14.66
-20.59
-26.03
-31.36
-37.16
-44.11
-52.72
-63.13
-74.83
-86.65
-96.85
-103.56
-105.26
-101.27
-91.91
-78.36
-62.28
-45.3
-28.69
-13.2
0.78
13.0
23.24
31.28
37.04
40.69
42.65
43.53
43.89
44.19
44.7
45.48
46.5
47.62
48.68
49.58
50.22
50.53
50.33
49.41
47.45
44.24
39.79
34.44
28.75
23.31
18.41
14.05
9.84
5.35
0.26
-5.38
-11.31
-17.14
-22.62
-27.79
-32.97
-38.69
-45.5
-53.67
-63.08
-73.12
-82.72
-90.57
-95.32
-95.92
-91.82
-83.15
-70.67
-55.58
-39.29
-23.07
-7.82
5.88
17.73
27.51
35.0
40.09
42.88
43.85
43.78
43.55
43.84
44.96
46.75
48.8
50.61
51.83
52.25
51.85
50.64
48.66
45.9
42.34
38.05
33.24
28.22
23.36
18.89
14.77
10.65
6.08
0.67
-5.63
-12.52
-19.46
-25.97
-31.83
-37.17
-42.47
-48.37
-55.45
-64.08
-74.19
-85.19
-95.86
-104.61
-109.73
-109.91
-104.63
-94.32
-80.22
-63.94
-47.01
-30.57
-15.29
-1.51
10.58
20.79
28.95
35.05
39.32
42.22
44.33
46.1
47.76
49.25
50.4
51.06
51.28
51.28
51.35
51.66
52.11
52.32
51.75
49.91
46.56
41.81
36.13
30.1
24.29
18.95
14.04
9.24
4.2
-1.31
-7.29
-13.54
-19.8
-25.89
-31.78
-37.64
-43.74
-50.49
-58.29
-67.44
-77.95
-89.31
-100.35
-109.44
-114.84
-115.28
-110.38
-100.69
-87.45
-72.1
-55.81
-39.31
-23.01
-7.28
7.32
20.0
30.03
37.02
41.18
43.27
44.31
45.28
46.75
48.84
51.29
53.71
55.77
57.35
58.47
59.22
59.54
59.24
58.0
55.6
52.01
47.52
42.58
37.66
33.04
28.66
24.19
19.25
13.62
7.33
0.64
-6.14
-12.78
-19.18
-25.38
-31.5
-37.72
-44.33
-51.74
-60.37
-70.47
-81.85
-93.63
-104.35
-112.19
-115.49
-113.27
-105.48
-93.0
-77.28
-59.91
-42.21
-25.11
-9.16
5.25
17.74
27.95
35.69
41.05
44.53
46.81
48.59
50.38
52.35
54.41
56.37
58.06
59.35
60.18
60.51
60.22
59.17
57.21
54.25
50.38
45.78
40.76
35.62
30.54
25.48
20.25
14.57
8.31
1.54
-5.47
-12.44
-19.25
-26.03
-33.2
-41.28
-50.79
-61.89
-74.32
-87.19
-99.07
-108.24
-112.99
-112.2
-105.53
-93.66
-77.99
-60.21
-41.88
-24.1
-7.48
7.68
21.12
32.5
41.44
47.74
51.57
53.48
54.31
54.84
55.58
56.64
57.92
59.18
60.33
61.3
62.07
62.46
62.21
60.96
58.45
54.6
49.6
43.85
37.83
31.89
26.19
20.62
14.87
8.63
1.71
-5.81
-13.59
-21.22
-28.41
-35.18
-41.88
-49.13
-57.61
-67.78
-79.66
-92.57
-105.18
-115.63
-121.96
-122.68
-117.09
-105.56
-89.28
-69.98
-49.4
-29.01
-9.74
7.86
23.5
36.96
48.01
56.41
62.13
65.45
67.06
67.88
68.76
70.21
72.19
74.33
76.13
77.29
77.8
77.81
77.39
76.38
74.44
71.25
66.79
61.36
55.54
49.89
44.64
39.67
34.49
28.6
21.69
13.87
5.6
-2.53
-10.06
-16.88
-23.31
-30.0
-37.68
-46.94
-57.96
-70.46
-83.59
-95.96
-105.81
-111.38
-111.3
-105.07
-93.22
-77.15
-58.7
-39.58
-21.06
-3.86
11.65
25.15
36.32
44.88
50.78
54.33
56.19
57.21
58.06
59.17
60.63
62.29
63.93
65.33
66.4
66.97
66.89
65.93
63.89
60.73
56.54
51.64
46.37
40.99
35.52
29.83
23.78
17.31
10.58
3.8
-2.82
-9.31
-15.84
-22.74
-30.31
-38.81
-48.42
-59.12
-70.61
-82.05
-92.1
-99.04
-101.31
-97.94
-88.94
-75.29
-58.51
-40.26
-21.91
-4.41
11.58
25.61
37.32
46.48
53.09
57.37
59.76
60.82
61.14
61.23
61.49
62.15
63.2
64.45
65.61
66.36
66.46
65.69
63.91
61.0
57.01
52.09
46.56
40.76
34.97
29.22
23.44
17.42
11.03
4.25
-2.79
-9.95
-17.09
-24.16
-31.29
-38.73
-46.89
-56.16
-66.69
-78.17
-89.69
-99.8
-106.8
-109.24
-106.27
-97.94
-85.07
-69.06
-51.42
-33.45
-16.06
0.23
15.09
28.22
39.21
47.75
53.7
57.33
59.28
60.37
61.32
62.47
63.78
64.96
65.72
65.95
65.79
65.41
64.89
64.07
62.57
60.0
56.16
51.21
45.6
39.95
34.76
30.18
26.0
21.69
16.68
10.66
3.75
-3.59
-10.72
-17.14
-22.76
-27.93
-33.27
-39.5
-47.13
-56.34
-66.96
-78.34
-89.47
-98.96
-105.29
-107.16
-103.77
-95.18
-82.27
-66.44
-49.27
-32.07
-15.74
-0.78
12.55
23.97
33.21
40.02
44.44
46.88
48.06
48.86
49.92
51.46
53.23
54.78
55.67
55.84
55.5
55.06
54.73
54.44
53.8
52.31
49.62
45.68
40.8
35.43
30.07
25.0
20.29
15.75
11.13
6.17
0.82
-4.83
-10.54
-16.14
-21.53
-26.82
-32.24
-38.08
-44.67
-52.33
-61.21
-71.08
-81.2
-90.31
-96.85
-99.4
-97.17
-90.21
-79.41
-66.08
-51.59
-36.96
-22.81
-9.49
2.73
13.45
22.22
28.68
32.77
34.79
35.42
35.47
35.68
36.49
37.99
39.98
42.11
44.07
45.59
46.52
46.71
46.01
44.34
41.71
38.28
34.32
30.14
25.93
21.76
17.44
12.75
7.49
1.63
-4.65
-11.07
-17.33
-23.29
-29.01
-34.7
-40.7
-47.39
-55.1
-63.98
-73.86
-84.06
-93.38
-100.24
-103.12
-101.01
-93.79
-82.24
-67.75
-51.87
-35.81
-20.34
-5.85
7.36
18.94
28.44
35.52
40.13
42.63
43.73
44.23
44.8
45.77
47.1
48.54
49.75
50.53
50.79
50.58
49.93
48.76
46.91
44.15
40.4
35.76
30.57
25.27
20.19
15.46
10.91
6.21
1.09
-4.55
-10.6
-16.77
-22.79
-28.49
-33.91
-39.23
-44.8
-51.04
-58.43
-67.3
-77.63
-88.82
-99.62
-108.33
-113.3
-113.38
-108.32
-98.71
-85.75
-70.77
-54.89
-38.85
-23.13
-8.04
6.06
18.74
29.53
38.11
44.37
48.52
51.1
52.79
54.19
55.61
57.06
58.32
59.18
59.59
59.65
59.5
59.11
58.26
56.62
53.9
50.06
45.29
40.01
34.68
29.64
25.06
20.85
16.72
12.28
7.15
1.17
-5.56
-12.73
-19.94
-26.92
-33.64
-40.26
-47.06
-54.37
-62.53
-71.8
-82.2
-93.38
-104.4
-113.85
-120.07
-121.64
-117.88
-108.99
-96.01
-80.47
-63.9
-47.44
-31.78
-17.18
-3.77
8.29
18.7
27.07
33.2
37.21
39.61
41.14
42.5
44.09
45.99
48.03
49.95
51.53
52.66
53.24
53.15
52.2
50.25
47.29
43.5
39.18
34.67
30.23
25.91
21.54
16.87
11.68
5.91
-0.28
-6.63
-12.85
-18.83
-24.62
-30.49
-36.87
-44.3
-53.27
-63.97
-76.11
-88.68
-100.02
-108.2
-111.61
-109.39
-101.72
-89.6
-74.46
-57.71
-40.47
-23.55
-7.54
7.01
19.65
30.0
37.91
43.52
47.19
49.49
51.04
52.37
53.82
55.48
57.22
58.88
60.27
61.23
61.67
61.45
60.35
58.18
54.84
50.44
45.26
39.74
34.24
28.95
23.79
18.44
12.48
5.64
-2.11
-10.42
-18.76
-26.65
-33.92
-40.84
-48.03
-56.3
-66.33
-78.44
-92.27
-106.8
-120.38
-131.03
-136.92
-136.85
-130.62
-118.98
-103.37
-85.38
-66.32
-47.06
-28.07
-9.73
7.51
23.07
36.42
47.26
55.67
62.1
67.13
71.33
75.0
78.16
80.69
82.48
83.58
84.22
84.71
85.23
85.71
85.77
84.91
82.66
78.82
73.52
67.19
60.39
53.6
47.07
40.72
34.3
27.5
20.15
12.29
4.18
-3.88
-11.69
-19.25
-26.79
-34.72
-43.51
-53.57
-65.16
-78.17
-92.03
-105.57
-117.13
-124.91
-127.37
-123.71
-114.11
-99.65
-81.92
-62.52
-42.69
-23.22
-4.56
12.93
28.79
42.44
53.38
61.41
66.77
70.1
72.29
74.15
76.18
78.44
80.69
82.55
83.73
84.11
83.78
82.83
81.31
79.16
76.18
72.27
67.45
61.95
56.18
50.53
45.24
40.26
35.26
29.76
23.39
16.1
8.2
0.27
-7.11
-13.62
-19.35
-24.81
-30.82
-38.21
-47.65
-59.29
-72.68
-86.65
-99.45
-109.04
-113.6
-112.0
-104.1
-90.8
-73.77
-54.95
-36.02
-18.12
-1.78
12.81
25.58
36.35
44.94
51.29
55.62
58.44
60.41
62.04
63.56
64.95
66.07
66.82
67.29
67.6
67.82
67.85
67.4
66.1
63.65
59.91
54.99
49.21
42.99
36.7
30.5
24.33
17.93
11.08
3.68
-4.14
-12.05
-19.77
-27.16
-34.35
-41.68
-49.64
-58.74
-69.27
-81.17
-93.81
-105.94
-115.83
-121.65
-122.0
-116.28
-104.99
-89.45
-71.43
-52.53
-33.86
-15.94
1.03
16.85
31.07
43.03
52.1
58.07
61.32
62.79
63.62
64.68
66.34
68.39
70.36
71.77
72.42
72.33
71.64
70.38
68.44
65.59
61.67
56.74
51.09
45.2
39.47
34.09
28.9
23.5
17.43
10.44
2.67
-5.44
-13.29
-20.49
-27.01
-33.26
-39.87
-47.5
-56.64
-67.41
-79.56
-92.26
-104.2
-113.71
-119.07
-119.03
-113.18
-102.07
-87.05
-69.77
-51.71
-33.88
-16.83
-0.82
13.9
26.94
37.84
46.25
52.14
55.93
58.3
60.04
61.7
63.5
65.27
66.68
67.48
67.63
67.31
66.74
65.99
64.88
63.03
60.09
55.91
50.64
44.73
38.65
32.82
27.39
22.23
17.07
11.58
5.6
-0.79
-7.33
-13.71
-19.73
-25.51
-31.44
-38.08
-45.91
-55.18
-65.79
-77.22
-88.59
-98.67
-106.08
-109.49
-107.96
-101.31
-90.18
-75.82
-59.68
-43.01
-26.65
-11.06
3.44
16.48
27.58
36.31
42.51
46.39
48.48
49.46
50.05
50.74
51.8
53.23
54.86
56.44
57.71
58.49
58.65
58.04
56.47
53.78
49.91
45.05
39.59
34.04
28.8
24.01
19.54
15.03
10.11
4.5
-1.85
-8.74
-15.75
-22.45
-28.61
-34.33
-40.19
-46.99
-55.44
-65.78
-77.51
-89.38
-99.69
-106.66
-108.88
-105.67
-97.18
-84.32
-68.5
-51.18
-33.59
-16.55
-0.57
13.95
26.51
36.62
43.96
48.6
51.15
52.46
53.39
54.46
55.79
57.18
58.39
59.25
59.74
59.93
59.91
59.62
58.93
57.59
55.34
52.02
47.66
42.54
37.07
31.62
26.29
20.93
15.21
8.89
2.0
-5.17
-12.22
-18.81
-24.87
-30.59
-36.43
-42.97
-50.75
-60.19
-71.36
-83.79
-96.42
-107.72
-115.95
-119.67
-118.05
-111.08
-99.54
-84.72
-68.08
-50.91
-34.07
-18.06
-3.06
10.74
23.03
33.39
41.45
47.15
50.83
53.12
54.71
56.11
57.59
59.15
60.67
62.07
63.24
64.1
64.56
64.53
63.86
62.32
59.63
55.61
50.32
44.15
37.79
31.94
27.01
22.9
19.01
14.58
9.05
2.26
-5.48
-13.58
-21.43
-28.62
-35.02
-40.83
-46.54
-52.86
-60.45
-69.69
-80.41
-91.76
-102.34
-110.46
-114.56
-113.54
-107.12
-95.81
-80.82
-63.7
-45.97
-28.76
-12.78
1.59
14.05
24.33
32.23
37.76
41.38
43.84
45.97
48.38
51.2
54.14
56.72
58.51
59.33
59.25
58.53
57.38
55.96
54.29
52.24
49.65
46.42
42.55
38.2
33.58
28.82
23.91
18.72
13.08
7.02
0.76
-5.42
-11.29
-16.79
-22.16
-27.76
-34.04
-41.42
-50.18
-60.4
-71.77
-83.47
-94.17
-102.16
-105.83
-104.07
-96.76
-84.68
-69.32
-52.36
-35.22
-18.84
-3.7
9.99
21.99
32.0
39.73
45.08
48.26
49.82
50.46
50.79
51.22
51.88
52.7
53.57
54.39
55.11
55.66
55.91
55.58
54.37
51.99
48.32
43.49
37.92
32.13
26.63
21.63
17.0
12.32
7.08
0.96
-6.04
-13.59
-21.26
-28.69
-35.73
-42.56
-49.52
-57.12
-65.89
-76.22
-88.09
-100.89
-113.27
-123.37
-129.21
-129.33
-123.23
-111.49
-95.57
-77.28
-58.24
-39.59
-21.91
-5.49
9.43
22.51
33.3
41.53
47.26
50.98
53.46
55.51
57.65
60.03
62.41
64.39
65.69
66.23
66.19
65.87
65.47
64.94
64.01
62.31
59.52
55.56
50.66
45.24
39.76
34.42
29.2
23.87
18.16
11.92
5.16
-1.96
-9.24
-16.51
-23.68
-30.73
-37.76
-45.11
-53.29
-62.85
-74.15
-87.01
-100.52
-113.08
-122.76
-127.78
-127.04
-120.42
-108.67
-93.18
-75.49
-56.93
-38.44
-20.61
-3.84
11.44
24.79
35.82
44.35
50.5
54.67
57.41
59.28
60.76
62.17
63.64
65.21
66.76
68.12
69.12
69.6
69.5
68.74
67.2
64.65
60.92
56.02
50.27
44.29
38.72
33.93
29.84
25.91
21.49
16.03
9.42
1.95
-5.83
-13.37
-20.32
-26.62
-32.5
-38.43
-45.02
-52.89
-62.54
-74.08
-87.05
-100.25
-111.85
-119.79
-122.32
-118.61
-108.93
-94.57
-77.28
-58.68
-39.95
-21.74
-4.44
11.47
25.35
36.56
44.72
49.96
52.91
54.41
55.34
56.29
57.56
59.17
60.97
62.75
64.26
65.34
65.85
65.69
64.75
62.9
60.01
56.05
51.15
45.63
39.87
34.18
28.62
23.02
17.14
10.81
4.09
-2.79
-9.57
-16.04
-22.18
-28.16
-34.3
-41.07
-49.03
-58.71
-70.37
-83.59
-97.13
-108.98
-116.9
-119.12
-114.88
-104.68
-89.97
-72.6
-54.12
-35.57
-17.43
-0.0
16.32
30.84
42.85
51.82
57.72
61.08
62.79
63.77
64.7
65.83
67.09
68.24
69.11
69.64
69.94
69.98
69.66
68.67
66.69
63.46
59.06
53.8
48.16
42.57
37.24
32.04
26.59
20.46
13.36
5.32
-3.36
-12.2
-20.74
-28.73
-36.2
-43.5
-51.14
