0
-41.38
-28.44
-17.1
-7.98
-1.06
4.16
8.29
11.77
14.86
17.63
20.09
22.25
24.2
26.1
28.14
30.43
32.95
35.52
37.88
39.78
41.14
42.01
42.48
42.61
42.28
41.26
39.33
36.5
33.05
29.51
26.44
24.16
22.63
21.46
20.15
18.29
15.8
12.95
10.16
7.77
5.86
4.18
2.29
-0.21
-3.49
-7.39
-11.52
-15.5
-19.05
-22.14
-24.98
-27.96
-31.51
-35.99
-41.48
-47.65
-53.71
-58.5
-60.77
-59.59
-54.61
-46.27
-35.58
-23.9
-12.52
-2.45
5.79
12.06
16.55
19.54
21.33
22.15
22.2
21.75
21.12
20.75
21.02
22.17
24.16
26.73
29.49
32.05
34.13
35.55
36.21
35.98
34.77
32.6
29.64
26.24
22.8
19.65
16.91
14.5
12.22
9.91
7.51
5.14
2.95
1.01
-0.76
-2.58
-4.75
-7.47
-10.79
-14.58
-18.63
-22.71
-26.68
-30.48
-34.22
-38.13
-42.58
-47.93
-54.27
-61.28
-68.02
-73.1
-75.02
-72.73
-66.03
-55.7
-43.3
-30.55
-18.88
-9.06
-1.18
5.11
10.34
14.89
18.94
22.46
25.39
27.71
29.53
31.06
32.55
34.12
35.81
37.55
39.2
40.73
42.15
43.5
44.69
45.47
45.53
44.54
42.41
39.31
35.63
31.86
28.4
25.51
23.25
21.53
20.17
18.9
17.45
15.65
13.38
10.7
7.82
4.98
2.39
0.13
-1.92
-4.03
-6.52
-9.62
-13.42
-17.78
-22.43
-27.01
-31.22
-34.89
-38.09
-41.08
-44.28
-48.14
-53.04
-59.11
-66.07
-73.1
-78.93
-82.03
-81.12
-75.57
-65.77
-52.99
-39.07
-25.79
-14.41
-5.39
1.53
6.99
11.7
16.1
20.35
24.4
28.1
31.32
34.05
36.37
38.44
40.39
42.29
44.12
45.76
47.07
47.93
48.3
48.24
47.83
47.09
45.93
44.2
41.83
38.92
35.78
32.86
30.55
28.96
27.92
27.02
25.88
24.34
22.49
20.57
18.78
17.14
15.52
13.71
11.6
9.15
6.43
3.56
0.63
-2.26
-5.0
-7.54
-9.94
-12.38
-15.17
-18.51
-22.43
-26.67
-30.81
-34.47
-37.48
-39.98
-42.36
-45.1
-48.67
-53.41
-59.4
-66.32
-73.31
-79.02
-81.89
-80.59
-74.58
-64.4
-51.49
-37.79
-25.03
-14.3
-5.85
0.71
6.02
10.62
14.8
18.61
21.97
24.88
27.37
29.58
31.64
33.65
35.67
37.7
39.73
41.72
43.6
45.23
46.45
47.08
46.96
45.99
44.17
41.6
38.52
35.31
32.36
29.97
28.24
27.01
25.95
24.73
23.16
21.29
19.34
17.53
15.95
14.54
13.04
11.24
8.97
6.29
3.37
0.5
-2.1
-4.38
-6.51
-8.85
-11.74
-15.33
-19.45
-23.64
-27.38
-30.3
-32.42
-34.08
-35.84
-38.25
-41.71
-46.35
-52.02
-58.17
-63.93
-68.14
-69.55
-67.2
-60.82
-50.93
-38.83
-26.18
-14.57
-5.01
2.2
7.35
11.04
13.81
15.99
17.64
18.78
19.49
20.06
20.85
22.21
24.22
26.74
29.43
31.91
33.91
35.35
36.27
36.75
36.8
36.37
35.31
33.57
31.19
28.36
25.39
22.56
20.08
17.99
16.23
14.63
13.07
11.43
9.67
7.75
5.65
3.38
0.97
-1.52
-4.02
-6.51
-9.05
-11.75
-14.74
-18.11
-21.84
-25.79
-29.78
-33.62
-37.22
-40.64
-44.11
-48.01
-52.7
-58.39
-64.88
-71.42
-76.72
-79.31
-77.96
-72.17
-62.4
-49.97
-36.62
-24.0
-13.2
-4.6
2.01
7.14
11.32
14.93
18.1
20.84
23.14
25.09
26.89
28.79
31.01
33.58
36.35
39.0
41.25
42.94
44.12
44.91
45.39
45.48
44.96
43.63
41.42
38.56
35.45
32.52
30.06
28.06
26.34
24.63
22.77
20.75
18.71
16.83
15.21
13.82
12.52
11.09
9.32
7.06
4.26
1.02
-2.45
-5.87
-9.04
-11.94
-14.73
-17.69
-21.06
-24.87
-28.94
-32.96
-36.69
-40.01
-43.04
-46.09
-49.59
-54.0
-59.62
-66.46
-73.98
-81.03
-85.98
-87.21
-83.66
-75.3
-63.19
-49.15
-35.12
-22.57
-12.21
-4.08
2.27
7.36
11.66
15.49
19.03
22.39
25.61
28.68
31.61
34.41
37.09
39.61
41.94
44.05
45.92
47.55
48.91
49.93
50.47
50.34
49.41
47.7
45.37
42.73
40.12
37.79
35.86
34.25
32.78
31.26
29.55
27.62
25.57
23.52
21.59
19.85
18.28
16.84
15.47
14.01
12.25
10.01
7.14
3.74
0.08
-3.45
-6.5
-9.02
-11.21
-13.52
-16.37
-19.99
-24.31
-28.98
-33.55
-37.64
-41.11
-44.11
-47.04
-50.45
-54.83
-60.45
-67.15
-74.2
-80.38
-84.17
-84.18
-79.58
-70.45
-57.76
-43.18
-28.55
-15.43
-4.78
3.17
8.72
12.5
15.24
17.52
19.79
22.24
24.92
27.75
30.62
33.45
36.12
38.57
40.74
42.59
44.13
45.41
46.44
47.16
47.45
47.13
46.11
44.41
42.16
39.6
36.94
34.33
31.89
29.66
27.61
25.65
23.67
21.59
19.46
17.46
15.79
14.53
13.49
12.32
10.64
8.25
5.31
2.2
-0.72
-3.28
-5.64
-8.11
-10.96
-14.32
-18.03
-21.87
-25.57
-28.99
-32.09
-34.95
-37.73
-40.71
-44.23
-48.62
-53.95
-59.9
-65.61
-69.77
-70.99
-68.22
-61.17
-50.47
-37.51
-24.05
-11.7
-1.55
6.04
11.23
14.53
16.51
17.6
18.07
18.15
18.12
18.32
19.14
20.81
23.33
26.43
29.7
32.68
35.08
36.81
37.94
38.56
38.68
38.17
36.82
34.5
31.32
27.62
23.92
20.71
18.25
16.43
14.88
13.14
10.92
8.23
5.38
2.76
0.62
-1.06
-2.57
-4.37
-6.82
-10.09
-14.08
-18.54
-23.1
-27.45
-31.4
-34.97
-38.36
-41.99
-46.37
-51.87
-58.5
-65.64
-72.05
-76.12
-76.34
-71.86
-62.82
-50.38
-36.32
-22.51
-10.37
-0.63
6.61
11.69
15.14
17.47
19.13
20.46
21.79
23.33
25.2
27.41
29.87
32.42
34.88
37.12
39.05
40.62
41.83
42.66
43.09
43.1
42.62
41.6
39.97
37.72
34.88
31.57
28.06
24.7
21.83
19.63
18.07
16.83
15.49
13.68
11.23
8.27
5.13
2.14
-0.53
-2.92
-5.27
-7.85
-10.9
-14.48
-18.49
-22.72
-26.95
-30.96
-34.66
-38.08
-41.37
-44.85
-48.9
-53.91
-59.97
-66.78
-73.44
-78.61
-80.82
-78.9
-72.49
-62.12
-49.13
-35.26
-22.12
-10.84
-1.89
4.85
9.82
13.61
16.74
19.56
22.26
24.88
27.4
29.78
32.08
34.35
36.68
39.05
41.42
43.66
45.64
47.27
48.45
49.05
48.96
48.07
46.39
44.02
41.2
38.17
35.17
32.37
29.84
27.58
25.53
23.58
21.66
19.72
17.8
15.96
14.23
12.55
10.79
8.79
6.44
3.78
0.93
-1.96
-4.85
-7.84
-11.12
-14.82
-18.92
-23.23
-27.44
-31.27
-34.57
-37.43
-40.15
-43.16
-46.94
-51.85
-58.02
-65.09
-72.19
-77.97
-80.87
-79.62
-73.64
-63.35
-50.06
-35.63
-21.87
-10.1
-0.86
5.96
10.91
14.58
17.48
19.91
22.04
23.99
25.89
27.89
30.13
32.67
35.46
38.3
40.96
43.23
44.98
46.24
47.04
47.44
47.36
46.7
45.34
43.31
40.79
38.02
35.27
32.66
30.21
27.87
25.58
23.38
21.3
19.36
17.57
15.86
14.16
12.36
10.41
8.28
6.0
3.64
1.28
-1.05
-3.44
-6.06
-9.15
-12.78
-16.85
-21.05
-25.02
-28.48
-31.41
-34.02
-36.7
-39.85
-43.87
-48.93
-54.98
-61.51
-67.54
-71.73
-72.66
-69.37
-61.72
-50.54
-37.41
-24.16
-12.34
-2.83
4.2
9.07
12.34
14.48
15.86
16.69
17.18
17.6
18.25
19.43
21.27
23.7
26.48
29.3
31.87
34.08
35.92
37.44
38.59
39.18
38.95
37.66
35.3
32.14
28.62
25.28
22.49
20.38
18.78
17.38
15.85
13.94
11.62
9.04
6.42
4.06
2.15
0.66
-0.64
-2.14
-4.3
-7.38
-11.35
-15.83
-20.3
-24.29
-27.64
-30.59
-33.65
-37.38
-42.16
-48.04
-54.65
-61.21
-66.63
-69.65
-69.16
-64.52
-55.85
-44.11
-30.84
-17.83
-6.5
2.34
8.63
12.88
15.77
17.93
19.72
21.23
22.45
23.36
24.09
24.88
26.05
27.81
30.16
32.88
35.59
37.95
39.73
40.84
41.3
41.12
40.23
38.55
36.07
32.95
29.5
26.16
23.29
21.05
19.35
17.9
16.37
14.53
12.29
9.76
7.11
4.49
1.97
-0.42
-2.74
-5.04
-7.46
-10.17
-13.36
-17.15
-21.5
-26.18
-30.83
-35.11
-38.86
-42.15
-45.35
-48.98
-53.56
-59.41
-66.42
-73.88
-80.46
-84.47
-84.35
-79.22
-69.26
-55.74
-40.64
-26.06
-13.54
-3.81
3.24
8.22
11.91
14.95
17.75
20.55
23.41
26.33
29.24
32.07
34.73
37.19
39.46
41.54
43.43
45.08
46.43
47.4
47.95
48.01
47.51
46.33
44.42
41.81
38.69
35.38
32.21
29.44
27.15
25.25
23.57
21.94
20.26
18.44
16.47
14.27
11.81
9.15
6.36
3.6
0.97
-1.57
-4.18
-7.16
-10.73
-14.95
-19.62
-24.36
-28.75
-32.5
-35.6
-38.31
-41.05
-44.3
-48.49
-53.86
-60.34
-67.41
-74.0
-78.61
-79.7
-76.19
-67.9
-55.74
-41.45
-27.05
-14.25
-4.01
3.56
8.96
12.97
16.29
19.35
22.28
25.03
27.5
29.66
31.63
33.62
35.79
38.21
40.73
43.13
45.19
46.79
47.97
48.79
49.26
49.26
48.56
46.98
44.5
41.33
37.87
34.55
31.68
29.39
27.55
25.94
24.34
22.6
20.73
18.77
16.79
14.8
12.74
10.52
8.11
5.56
2.94
0.32
-2.39
-5.4
-8.91
-13.01
-17.54
-22.08
-26.18
-29.52
-32.12
-34.37
-36.89
-40.31
-45.05
-51.12
-58.05
-64.86
-70.2
-72.62
-70.97
-64.82
-54.69
-41.92
-28.38
-15.8
-5.36
2.54
8.17
12.13
14.98
17.09
18.6
19.59
20.23
20.81
21.66
23.05
25.02
27.43
29.98
32.4
34.5
36.23
37.57
38.52
38.96
38.73
37.62
35.57
32.67
29.24
25.7
22.51
19.93
18.03
16.62
15.34
13.86
11.96
9.62
7.04
4.49
2.22
0.3
-1.38
-3.08
-5.16
-7.82
-11.13
-14.94
-18.95
-22.8
-26.28
-29.39
-32.38
-35.7
-39.82
-45.04
-51.28
-57.94
-63.98
-68.09
-69.03
-66.01
-58.95
-48.54
-36.1
-23.21
-11.32
-1.41
6.18
11.61
15.34
17.85
19.51
20.47
20.88
20.98
21.14
21.75
23.11
25.24
27.87
30.55
32.91
34.69
35.88
36.57
36.88
36.83
36.34
35.31
33.63
31.31
28.42
25.21
21.98
19.05
16.63
14.74
13.18
11.6
9.7
7.37
4.75
2.12
-0.21
-2.14
-3.83
-5.63
-7.94
-11.04
-15.0
-19.63
-24.58
-29.43
-33.8
-37.5
-40.59
-43.44
-46.65
-50.89
-56.61
-63.78
-71.62
-78.67
-83.14
-83.38
-78.57
-68.98
-55.94
-41.46
-27.52
-15.6
-6.31
0.47
5.38
9.22
12.65
16.14
19.84
23.69
27.47
30.93
33.93
36.43
38.53
40.36
42.02
43.52
44.87
46.12
47.27
48.27
48.95
49.0
48.15
46.28
43.5
40.14
36.65
33.41
30.67
28.48
26.72
25.24
23.8
22.23
20.34
18.02
15.28
12.21
9.05
6.01
3.27
0.83
-1.46
-3.9
-6.78
-10.3
-14.45
-19.05
-23.77
-28.26
-32.27
-35.73
-38.78
-41.77
-45.16
-49.46
-55.01
-61.74
-69.02
-75.61
-79.88
-80.28
-75.88
-66.76
-54.11
-39.82
-25.93
-13.97
-4.63
2.22
7.22
11.17
14.68
18.08
21.42
24.64
27.62
30.33
32.81
35.18
37.57
40.02
42.39
44.49
46.1
47.11
47.6
47.73
47.62
47.22
46.35
44.76
42.4
39.45
36.36
33.56
31.3
29.52
27.93
26.21
24.19
21.99
19.85
18.01
16.48
15.1
13.53
11.52
8.99
6.04
2.93
-0.12
-2.98
-5.65
-8.3
-11.15
-14.43
-18.19
-22.34
-26.59
-30.6
-34.13
-37.14
-39.82
-42.54
-45.77
-49.88
-55.08
-61.2
-67.63
-73.2
-76.49
-76.1
-71.21
-61.97
-49.56
-35.79
-22.53
-11.16
-2.25
4.34
9.14
12.68
15.32
17.26
18.6
19.56
20.43
21.56
23.2
25.45
28.22
31.25
34.22
36.84
38.94
40.43
41.34
41.73
41.62
40.95
39.62
37.54
34.7
31.32
27.78
24.57
22.05
20.36
19.28
18.37
17.21
15.54
13.39
11.0
8.68
6.59
4.72
2.89
0.81
-1.72
-4.84
-8.56
-12.71
-17.03
-21.21
-24.96
-28.17
-30.95
-33.62
-36.68
-40.61
-45.72
-51.97
-58.81
-65.23
-69.84
-71.25
-68.47
-61.33
-50.54
-37.6
-24.33
-12.29
-2.46
4.93
10.21
13.97
16.72
18.8
20.34
21.39
22.11
22.74
23.59
24.95
26.91
29.4
32.14
34.8
37.07
38.77
39.87
40.39
40.35
39.76
38.53
36.63
34.1
31.1
27.95
24.97
22.39
20.31
18.63
17.17
15.72
14.15
12.41
10.52
8.46
6.17
3.64
0.87
-2.01
-4.86
-7.62
-10.36
-13.3
-16.72
-20.73
-25.23
-29.91
-34.41
-38.46
-42.07
-45.49
-49.18
-53.62
-59.16
-65.83
-73.22
-80.34
-85.76
-87.89
-85.52
-78.25
-66.73
-52.56
-37.73
-24.05
-12.67
-3.92
2.54
7.44
11.47
15.2
18.89
22.55
26.06
29.25
32.05
34.53
36.84
39.13
41.42
43.64
45.6
47.2
48.42
49.32
49.9
50.07
49.64
48.4
46.36
43.71
40.84
38.11
35.77
33.82
32.08
30.29
28.25
25.92
23.41
20.94
18.69
16.74
15.03
13.34
11.42
9.05
6.13
2.72
-0.95
-4.56
-7.9
-10.88
-13.67
-16.56
-19.85
-23.72
-28.07
-32.65
-37.07
-41.05
-44.51
-47.68
-51.02
-55.13
-60.48
-67.1
-74.43
-81.23
-85.82
-86.6
-82.59
-73.82
-61.37
-47.0
-32.63
-19.79
-9.34
-1.39
4.53
9.15
13.19
17.16
21.22
25.22
28.91
32.06
34.68
36.96
39.16
41.42
43.68
45.77
47.49
48.78
49.71
50.38
50.74
50.61
49.7
47.84
45.07
41.74
38.33
35.27
32.82
30.96
29.52
28.21
26.81
25.18
23.29
21.19
19.03
16.97
15.18
13.69
12.36
10.87
8.89
6.19
2.86
-0.78
-4.33
-7.49
-10.2
-12.68
-15.25
-18.23
-21.75
-25.75
-30.01
-34.19
-37.99
-41.24
-44.03
-46.77
-50.07
-54.59
-60.63
-67.92
-75.45
-81.62
-84.69
-83.29
-76.92
-66.14
-52.43
-37.72
-23.82
-12.0
-2.77
4.04
9.01
12.8
15.97
18.81
21.46
23.92
26.22
28.43
30.68
33.03
35.45
37.81
39.94
41.78
43.37
44.82
46.16
47.26
47.89
47.73
46.61
44.58
41.89
38.89
35.89
33.09
30.56
28.32
26.3
24.48
22.77
21.12
19.46
17.75
15.96
14.06
12.04
9.86
7.53
5.08
2.57
0.04
-2.51
-5.17
-8.08
-11.33
-14.95
-18.81
-22.71
-26.42
-29.79
-32.85
-35.79
-38.91
-42.55
-46.96
-52.19
-57.98
-63.58
-67.89
-69.66
-67.85
-62.03
-52.59
-40.68
-27.87
-15.65
-5.09
3.32
9.6
14.04
16.91
18.44
18.84
18.42
17.64
17.07
17.25
18.5
20.86
24.01
27.45
30.68
33.35
35.33
36.62
37.29
37.34
36.73
35.35
33.21
30.42
27.25
24.0
20.95
18.2
15.67
13.18
10.53
7.71
4.88
2.3
0.19
-1.45
-2.89
-4.56
-6.9
-10.1
-14.08
-18.47
-22.78
-26.67
-30.0
-32.99
-36.07
-39.79
-44.66
-50.91
-58.37
-66.24
-73.22
-77.69
-78.21
-73.93
-64.99
-52.5
-38.25
-24.15
-11.75
-1.87
5.41
10.54
14.19
16.93
19.15
21.01
22.61
24.03
25.44
27.02
28.89
31.04
33.34
35.59
37.62
39.36
40.81
42.02
42.94
43.42
43.23
42.13
40.03
37.0
33.37
29.59
26.14
23.38
21.35
19.85
18.43
16.64
14.21
11.14
7.75
4.45
1.59
-0.75
-2.79
-4.96
-7.69
-11.24
-15.59
-20.44
-25.37
-29.95
-33.97
-37.44
-40.65
-44.08
-48.31
-53.81
-60.76
-68.76
-76.79
-83.24
-86.35
-84.72
-77.87
-66.43
-52.05
-36.85
-22.77
-11.08
-2.12
4.47
9.43
13.52
17.26
20.9
24.48
27.9
31.08
33.92
36.39
38.52
40.38
42.07
43.68
45.24
46.73
48.11
49.29
50.15
50.54
50.3
49.26
47.35
44.62
41.3
37.74
34.3
31.28
28.76
26.63
24.68
22.7
20.54
18.18
15.63
12.91
10.07
7.15
4.24
1.45
-1.17
-3.71
-6.34
-9.35
-12.95
-17.15
-21.8
-26.57
-31.14
-35.34
-39.12
-42.63
-46.14
-50.02
-54.68
-60.41
-67.17
-74.31
-80.52
-84.08
-83.42
-77.67
-67.15
-53.25
-38.01
-23.44
-10.92
-1.01
6.44
11.97
16.19
19.59
22.54
25.3
28.07
30.96
33.93
36.86
39.61
42.06
44.21
46.1
47.78
49.23
50.39
51.15
51.45
51.25
50.51
49.16
47.14
44.44
41.18
37.63
34.16
31.11
28.58
26.49
24.63
22.77
20.8
18.7
16.48
14.13
11.62
8.93
6.14
3.39
0.83
-1.54
-3.87
-6.42
-9.46
-13.1
-17.2
-21.45
-25.48
-29.04
-32.05
-34.68
-37.28
-40.31
-44.21
-49.25
-55.42
-62.24
-68.72
-73.52
-75.19
-72.66
-65.64
-54.79
-41.58
-27.86
-15.29
-4.93
2.96
8.72
12.95
16.17
18.67
20.48
21.61
22.17
22.49
23.02
24.15
26.06
28.6
31.41
34.04
36.19
37.79
38.92
39.71
40.13
39.96
38.95
36.91
33.94
30.42
26.86
23.7
21.17
19.21
17.52
15.74
13.64
11.18
8.55
6.02
3.83
2.05
0.48
-1.25
-3.58
-6.79
-10.86
-15.49
-20.2
-24.53
-28.28
-31.52
-34.6
-38.02
-42.25
-47.6
-54.01
-60.95
-67.35
-71.82
-72.95
-69.77
-62.18
-50.98
-37.69
-24.08
-11.65
-1.33
6.59
12.35
16.36
19.08
20.84
21.92
22.54
22.98
23.53
24.45
25.9
27.87
30.2
32.63
34.93
36.96
38.69
40.13
41.22
41.79
41.59
40.38
38.06
34.77
30.9
26.94
23.39
20.51
18.29
16.45
14.59
12.32
9.51
6.27
2.93
-0.14
-2.75
-4.96
-7.11
-9.64
-12.87
-16.89
-21.5
-26.27
-30.78
-34.8
-38.35
-41.73
-45.39
-49.81
-55.37
-62.19
-69.97
-77.86
-84.43
-88.0
-87.03
-80.81
-69.75
-55.39
-39.96
-25.56
-13.58
-4.4
2.44
7.83
12.55
17.06
21.4
25.41
28.93
31.88
34.35
36.49
38.49
40.5
42.54
44.58
46.51
48.2
49.58
50.62
51.3
51.54
51.21
50.13
48.17
45.33
41.79
37.87
34.0
30.51
27.63
25.35
23.51
21.81
19.94
17.66
14.93
11.86
8.7
5.73
3.06
0.56
-2.06
-5.19
-9.07
-13.69
-18.75
-23.79
-28.36
-32.26
-35.52
-38.41
-41.32
-44.71
-48.98
-54.46
-61.22
-68.89
-76.5
-82.53
-85.24
-83.27
-76.14
-64.52
-50.07
-34.9
-20.89
-9.19
-0.12
6.68
11.89
16.17
19.98
23.57
26.96
30.14
33.07
35.75
38.25
40.64
42.96
45.15
47.12
48.75
50.0
50.95
51.69
52.24
52.45
52.04
50.74
48.43
45.28
41.65
38.0
34.67
31.77
29.24
26.91
24.69
22.56
20.56
18.65
16.69
14.45
11.8
8.73
5.44
2.19
-0.82
-3.6
-6.34
-9.32
-12.75
-16.7
-21.04
-25.53
-29.92
-34.01
-37.67
-40.91
-43.92
-47.05
-50.76
-55.47
-61.33
-67.97
-74.37
-79.07
-80.49
-77.47
-69.72
-57.97
-43.78
-29.09
-15.63
-4.52
3.9
9.87
14.0
16.88
18.93
20.4
21.45
22.29
23.2
24.47
26.31
28.72
31.48
34.25
36.71
38.69
40.21
41.37
42.29
42.89
42.93
42.12
40.26
37.37
33.77
29.94
26.35
23.33
20.93
18.98
17.18
15.24
13.04
10.59
8.09
5.73
3.56
1.45
-0.92
-3.87
-7.57
-11.91
-16.52
-20.93
-24.75
-27.93
-30.71
-33.56
-37.03
-41.54
-47.31
-54.2
-61.65
-68.65
-73.8
-75.64
-73.05
-65.67
-54.17
-40.05
-25.31
-11.8
-0.75
7.46
13.18
17.13
20.02
22.25
23.9
24.89
25.27
25.29
25.44
26.22
27.91
30.45
33.43
36.36
38.81
40.65
41.93
42.81
43.29
43.18
42.14
39.9
36.49
32.27
27.88
23.98
20.94
18.75
17.05
15.33
13.16
10.37
7.08
3.63
0.35
-2.52
-4.96
-7.16
-9.47
-12.25
-15.72
-19.91
-24.59
-29.41
-34.0
-38.16
-41.87
-45.4
-49.18
-53.71
-59.41
-66.44
-74.43
-82.4
-88.78
-91.79
-89.95
-82.69
-70.59
-55.31
-39.04
-23.86
-11.14
-1.33
5.94
11.42
15.89
19.92
23.74
27.35
30.66
33.56
36.02
38.12
40.03
41.92
43.93
46.09
48.29
50.35
52.07
53.26
53.81
53.62
52.61
50.73
48.01
44.58
40.73
36.82
33.22
30.17
27.7
25.63
23.69
21.66
19.4
16.94
14.35
11.73
9.11
6.47
3.79
1.06
-1.76
-4.7
-7.86
-11.39
-15.39
-19.86
-24.66
-29.48
-34.02
-38.06
-41.63
-44.95
-48.49
-52.81
-58.35
-65.27
-73.22
-81.23
-87.77
-91.14
-89.92
-83.53
-72.47
-58.19
-42.64
-27.71
-14.68
-4.04
4.38
11.13
16.77
21.7
26.11
30.04
33.54
36.63
39.45
42.12
44.73
47.29
49.68
51.76
53.43
54.66
55.52
56.12
56.46
56.43
55.84
54.49
52.32
49.48
46.26
43.02
40.01
37.31
34.83
32.41
29.91
27.29
24.62
22.0
19.48
17.02
14.47
11.72
8.7
5.47
2.18
-1.03
-4.13
-7.25
-10.59
-14.38
-18.68
-23.39
-28.24
-32.9
-37.1
-40.74
-43.95
-47.05
-50.54
-54.99
-60.8
-67.97
-75.86
-83.11
-87.92
-88.53
-83.89
-74.11
-60.45
-44.96
-29.74
-16.41
-5.75
2.24
8.04
12.23
15.29
17.55
19.18
20.36
21.31
22.3
23.63
25.55
28.14
31.23
34.49
37.47
39.87
41.57
42.69
43.4
43.78
43.64
42.64
40.49
37.16
33.0
28.6
24.63
21.47
19.15
17.33
15.54
13.41
10.87
8.15
5.62
3.55
2.0
0.68
-0.82
-2.95
-5.97
-9.87
-14.33
-18.93
-23.23
-27.02
-30.36
-33.6
-37.2
-41.61
-47.13
-53.69
-60.84
-67.6
-72.64
-74.52
-72.09
-64.93
-53.59
-39.56
-24.8
-11.17
0.1
8.64
14.77
19.11
22.21
24.35
25.57
25.91
25.57
24.95
24.6
25.01
26.38
28.63
31.42
34.32
36.97
39.17
40.84
41.95
42.45
42.15
40.86
38.47
35.06
30.98
26.78
22.97
19.86
17.41
15.27
12.98
10.17
6.8
3.15
-0.33
-3.25
-5.56
-7.54
-9.7
-12.55
-16.35
-21.0
-26.11
-31.21
-35.93
-40.15
-44.03
-47.93
-52.33
-57.67
-64.26
-72.01
-80.22
-87.56
-92.19
-92.34
-86.92
-76.03
-61.0
-44.05
-27.52
-13.2
-1.93
6.4
12.48
17.14
21.06
24.6
27.83
30.73
33.28
35.56
37.71
39.87
42.11
44.41
46.65
48.73
50.57
52.15
53.43
54.32
54.61
54.08
52.59
50.14
46.9
43.16
39.24
35.46
32.09
29.28
26.99
25.03
23.05
20.72
17.88
14.58
11.13
7.86
5.04
2.64
0.45
-1.94
-4.9
-8.68
-13.32
-18.66
-24.39
-30.05
-35.24
-39.69
-43.43
-46.8
-50.4
-54.92
-60.89
-68.37
-76.75
-84.64
-90.2
-91.57
-87.51
-77.85
-63.66
-46.94
-30.0
-14.82
-2.55
6.56
13.01
17.63
21.27
24.47
27.5
30.32
32.88
35.15
37.3
39.54
42.0
44.68
47.36
49.75
51.65
53.04
54.02
54.71
55.13
55.08
54.29
52.51
49.65
45.87
41.54
37.13
33.1
29.75
27.13
25.1
23.35
21.59
19.58
17.22
14.49
11.46
8.28
5.05
1.9
-1.15
-4.17
-7.34
-10.88
-14.94
-19.47
-24.26
-28.94
-33.19
-36.9
-40.21
-43.5
-47.31
-52.09
-58.12
-65.31
-73.09
-80.34
-85.58
-87.19
-84.0
-75.65
-62.91
-47.44
-31.36
-16.58
-4.29
5.17
12.12
17.16
20.8
23.32
24.88
25.65
25.98
26.35
27.21
28.83
31.22
34.1
37.11
39.93
42.36
44.33
45.83
46.8
47.08
46.46
44.75
41.93
38.18
33.92
29.63
25.78
22.59
20.01
17.76
15.46
12.88
9.98
7.02
4.3
2.01
0.07
-1.86
-4.22
-7.33
-11.23
-15.72
-20.38
-24.86
-28.95
-32.7
-36.37
-40.39
-45.21
-51.16
-58.2
-65.73
-72.55
-77.04
-77.61
-73.26
-64.01
-50.92
-35.8
-20.62
-6.97
4.25
12.84
19.05
23.27
25.86
27.08
27.17
26.53
25.67
25.17
25.53
27.01
29.51
32.65
35.96
39.02
41.59
43.66
45.23
46.22
46.38
45.37
42.97
39.22
34.55
29.59
24.98
21.1
17.96
15.28
12.65
9.77
6.59
3.28
0.1
-2.76
-5.31
-7.76
-10.45
-13.72
-17.72
-22.41
-27.52
-32.64
-37.4
-41.63
-45.46
-49.36
-53.98
-59.97
-67.64
-76.7
-86.12
-94.16
-98.78
-98.23
-91.6
-79.25
-62.77
-44.54
-27.01
-11.96
-0.21
8.42
14.69
19.54
23.66
27.41
30.86
33.94
36.62
38.95
41.11
43.27
45.53
47.9
50.29
52.54
54.5
56.08
57.19
57.74
57.6
56.58
54.57
51.58
47.79
43.55
39.3
35.42
32.13
29.38
26.92
24.41
21.52
18.1
14.22
10.19
6.34
2.97
0.14
-2.4
-5.09
-8.42
-12.66
-17.78
-23.44
-29.09
-34.24
-38.63
-42.38
-45.93
-49.93
-55.01
-61.55
-69.53
-78.31
-86.58
-92.59
-94.53
-91.08
-81.9
-67.89
-50.95
-33.4
-17.35
-4.1
6.03
13.53
19.28
24.04
28.28
32.08
35.34
37.99
40.06
41.74
43.29
44.92
46.71
48.63
50.57
52.44
54.18
55.69
56.81
57.32
56.96
55.53
53.0
49.53
45.45
41.16
37.02
33.34
30.27
27.81
25.79
23.96
22.0
19.65
16.83
13.61
10.19
6.76
3.49
0.4
-2.6
-5.67
-9.05
-12.93
-17.45
-22.57
-28.05
-33.47
-38.4
-42.6
-46.11
-49.33
-52.88
-57.37
-63.27
-70.58
-78.74
-86.53
-92.29
-94.22
-90.99
-82.19
-68.63
-52.09
-34.87
-19.02
-5.86
4.24
11.67
17.17
21.43
24.87
27.62
29.72
31.26
32.47
33.71
35.3
37.42
40.02
42.88
45.64
48.0
49.77
50.9
51.44
51.45
50.89
49.65
47.56
44.53
40.69
36.39
32.15
28.46
25.56
23.31
21.31
19.1
16.45
13.47
10.52
7.98
6.01
4.4
2.71
0.43
-2.72
-6.74
-11.36
-16.2
-20.85
-25.07
-28.75
-31.97
-35.03
-38.39
-42.59
-48.01
-54.64
-61.88
-68.5
-72.88
-73.47
-69.27
-60.23
-47.32
-32.23
-16.95
-3.13
8.2
16.73
22.68
26.49
28.58
29.22
28.66
27.27
25.61
24.4
24.24
25.48
28.02
31.43
35.09
38.45
41.14
42.97
43.9
43.88
42.88
40.91
38.06
34.51
30.45
26.11
21.66
17.26
13.04
9.15
5.67
2.57
-0.25
-2.95
-5.7
-8.64
-11.83
-15.33
-19.18
-23.34
-27.75
-32.21
-36.51
-40.5
-44.22
-48.04
-52.56
-58.42
-66.0
-75.04
-84.45
-92.39
-96.7
-95.62
-88.37
-75.51
-58.81
-40.71
-23.54
-8.96
2.34
10.56
16.41
20.72
24.13
26.99
29.43
31.45
33.1
34.49
35.88
37.48
39.4
41.61
43.91
46.11
48.05
49.64
50.79
51.33
51.0
49.55
46.87
43.15
38.81
34.36
30.25
26.67
23.58
20.73
17.84
14.72
11.31
7.75
4.24
1.01
-1.85
-4.45
-7.09
-10.14
-13.94
-18.57
-23.81
-29.26
-34.46
-39.15
-43.39
-47.53
-52.14
-57.79
-64.8
-73.06
-81.81
-89.63
-94.67
-95.13
-89.85
-78.83
-63.31
-45.5
-27.86
-12.38
-0.08
9.03
15.66
20.71
24.9
28.64
32.02
34.98
37.49
39.61
41.47
43.23
45.03
46.91
48.85
50.79
52.65
54.36
55.82
56.91
57.39
56.99
55.45
52.68
48.79
44.12
39.21
34.59
30.63
27.49
25.03
22.86
20.58
17.82
14.49
10.73
6.91
3.44
0.59
-1.64
-3.57
-5.72
-8.64
-12.66
-17.75
-23.51
-29.33
-34.62
-39.05
-42.68
-45.95
-49.53
-54.11
-60.16
-67.74
-76.32
-84.73
-91.29
-94.14
-91.77
-83.6
-70.27
-53.52
-35.73
-19.18
-5.42
5.04
12.58
18.09
22.42
26.13
29.38
32.13
34.34
36.1
37.62
39.16
40.84
42.65
44.47
46.14
47.57
48.74
49.66
50.32
50.66
50.5
49.59
47.68
44.64
40.62
36.0
31.43
27.48
24.43
22.15
20.16
17.9
15.04
11.66
8.15
5.0
2.49
0.58
-1.09
-3.01
-5.59
-9.03
-13.23
-17.85
-22.46
-26.65
-30.27
-33.45
-36.66
-40.48
-45.43
-51.7
-59.04
-66.63
-73.21
-77.26
-77.36
-72.66
-63.15
-49.83
-34.42
-18.92
-5.03
6.19
14.5
20.15
23.66
25.47
25.88
25.17
23.75
22.19
21.21
21.4
23.0
25.82
29.28
32.68
35.46
37.37
38.44
38.83
38.67
37.93
36.46
34.09
30.76
26.57
21.79
16.82
12.06
7.84
4.31
1.43
-1.04
-3.48
-6.24
-9.51
-13.25
-17.23
-21.12
-24.66
-27.8
-30.67
-33.58
-36.96
-41.25
-46.83
-53.82
-61.93
-70.29
-77.48
-81.73
-81.45
-75.71
-64.68
-49.68
-32.76
-16.17
-1.64
9.91
18.43
24.42
28.56
31.41
33.3
34.43
35.02
35.34
35.74
36.53
37.84
39.64
41.72
43.81
45.67
47.14
48.08
48.42
48.07
46.94
44.95
42.13
38.61
34.64
30.55
26.58
22.82
19.23
15.69
12.13
8.61
5.3
2.35
-0.28
-2.85
-5.77
-9.38
-13.77
-18.76
-23.93
-28.86
-33.29
-37.24
-40.92
-44.75
-49.24
-54.89
-62.01
-70.48
-79.51
-87.57
-92.67
-92.91
-87.2
-75.69
-59.84
-41.93
-24.37
-9.02
3.21
12.34
18.96
23.91
27.89
31.37
34.52
37.32
39.72
41.69
43.36
44.93
46.59
48.44
50.35
52.15
53.64
54.76
55.51
55.85
55.63
54.56
52.35
48.92
44.5
39.6
34.9
30.88
27.76
25.36
23.21
20.84
17.91
14.4
10.6
6.92
3.72
1.08
-1.22
-3.66
-6.74
-10.79
-15.78
-21.32
-26.79
-31.67
-35.75
-39.2
-42.55
-46.46
-51.49
-57.93
-65.66
-74.07
-82.04
-88.0
-90.21
-87.31
-78.75
-65.21
-48.49
-30.99
-15.0
-1.98
7.64
14.39
19.15
22.78
25.77
28.27
30.29
31.88
33.27
34.74
36.58
38.84
41.41
44.0
46.35
48.28
49.75
50.78
51.37
51.38
50.59
48.78
45.87
42.03
37.63
33.16
29.05
25.59
22.79
20.48
18.33
16.02
13.38
10.41
7.29
4.3
1.6
-0.83
-3.22
-5.89
-9.09
-12.86
-16.98
-21.11
-24.96
-28.45
-31.74
-35.2
-39.23
-44.19
-50.25
-57.25
-64.56
-71.03
-75.14
-75.35
-70.69
-61.15
-47.76
-32.38
-17.02
-3.37
7.63
15.8
21.47
25.16
27.32
28.26
28.21
27.44
26.35
25.41
25.11
25.81
27.59
30.24
33.32
36.31
38.8
40.56
41.5
41.62
40.9
39.29
36.77
33.42
29.45
25.25
21.19
17.57
14.48
11.78
9.17
6.39
3.26
-0.17
-3.65
-6.88
-9.68
-12.1
-14.45
-17.14
-20.53
-24.73
-29.52
-34.48
-39.15
-43.26
-46.93
-50.58
-54.89
-60.47
-67.63
-76.07
-84.77
-92.04
-95.91
-94.72
-87.66
-75.17
-58.84
-40.99
-23.91
-9.3
2.13
10.53
16.61
21.18
24.87
28.01
30.74
33.09
35.15
37.1
39.16
41.48
44.09
46.84
49.42
51.53
53.02
53.91
54.34
54.44
54.2
53.4
51.75
49.01
45.2
40.64
35.86
31.41
27.65
24.68
22.34
20.24
18.02
15.4
12.35
9.0
5.63
2.5
-0.28
-2.8
-5.32
-8.19
-11.73
-16.08
-21.17
-26.71
-32.28
-37.45
-41.94
-45.74
-49.18
-52.85
-57.44
-63.5
-71.06
-79.48
-87.36
-92.78
-93.87
-89.35
-79.08
-64.14
-46.59
-28.83
-12.9
-0.05
9.48
16.21
21.04
24.84
28.22
31.38
34.29
36.82
38.95
40.81
42.66
44.71
47.01
49.38
51.51
53.19
54.35
55.09
55.55
55.72
55.43
54.37
52.34
49.31
45.52
41.32
37.07
33.04
29.36
26.11
23.27
20.79
18.54
16.34
13.97
11.28
8.21
4.87
1.45
-1.86
-4.94
-7.84
-10.78
-14.06
-17.89
-22.34
-27.22
-32.15
-36.74
-40.72
-44.12
-47.25
-50.61
-54.8
-60.27
-67.14
-74.97
-82.68
-88.68
-91.15
-88.7
-80.79
-68.03
-52.02
-34.89
-18.66
-4.77
6.14
14.11
19.59
23.18
25.35
26.48
26.85
26.76
26.58
26.75
27.68
