0
-13.1
-7.9
-3.11
0.79
3.66
5.66
7.07
8.12
8.78
8.87
8.24
6.95
5.36
4.06
3.62
4.29
5.9
7.93
9.76
10.94
11.41
11.41
11.24
11.08
10.88
10.42
9.47
7.97
6.13
4.3
2.91
2.19
2.13
2.5
2.98
3.28
3.22
2.77
1.95
0.84
-0.53
-2.13
-3.92
-5.8
-7.63
-9.28
-10.72
-11.98
-13.24
-14.61
-16.1
-17.5
-18.35
-18.13
-16.44
-13.23
-8.83
-3.9
0.83
4.89
8.14
10.77
13.05
15.17
17.05
18.43
19.12
19.13
18.79
18.59
18.94
19.98
21.47
23.0
24.16
24.77
24.91
24.8
24.69
24.56
24.3
23.69
22.54
20.9
18.92
16.85
14.91
13.25
11.91
10.86
9.95
9.07
8.12
7.08
5.98
4.87
3.79
2.64
1.35
-0.17
-1.86
-3.6
-5.31
-6.95
-8.6
-10.4
-12.48
-14.79
-17.16
-19.32
-20.87
-21.5
-21.01
-19.34
-16.59
-13.04
-9.06
-5.04
-1.3
1.95
4.59
6.6
7.99
8.84
9.31
9.56
9.71
9.87
10.05
10.28
10.64
11.24
12.13
13.24
14.4
15.31
15.75
15.62
14.94
13.86
12.49
10.87
8.96
6.83
4.6
2.51
0.83
-0.27
-0.79
-0.88
-0.77
-0.66
-0.65
-0.75
-0.89
-1.01
-1.09
-1.19
-1.39
-1.82
-2.56
-3.63
-5.03
-6.7
-8.55
-10.51
-12.43
-14.19
-15.58
-16.37
-16.32
-15.31
-13.3
-10.5
-7.28
-4.04
-1.15
1.26
3.26
4.99
6.53
7.81
8.62
8.81
8.41
7.74
7.22
7.23
7.93
9.14
10.47
11.49
11.95
11.8
11.19
10.32
9.39
8.51
7.73
7.11
6.67
6.38
6.23
6.12
5.99
5.82
5.61
5.39
5.15
4.8
4.19
3.21
1.9
0.41
-1.02
-2.24
-3.26
-4.21
-5.28
-6.6
-8.16
-9.85
-11.49
-12.91
-13.98
-14.61
-14.7
-14.2
-13.01
-11.16
-8.75
-6.05
-3.4
-1.12
0.57
1.6
2.05
2.11
2.02
2.01
2.24
2.81
3.7
4.84
6.08
7.25
8.22
8.94
9.39
9.58
9.57
9.39
9.13
8.89
8.78
8.83
8.97
9.02
8.84
8.34
7.58
6.71
5.91
5.24
4.63
3.99
3.19
2.24
1.23
0.26
-0.61
-1.43
-2.36
-3.53
-5.02
-6.82
-8.85
-11.01
-13.15
-15.11
-16.69
-17.62
-17.7
-16.78
-14.93
-12.37
-9.42
-6.46
-3.75
-1.52
0.22
1.52
2.47
3.16
3.65
3.96
4.11
4.22
4.39
4.76
5.33
6.0
6.65
7.17
7.58
7.97
8.41
8.89
9.32
9.55
9.5
9.2
8.72
8.11
7.39
6.56
5.61
4.61
3.68
2.95
2.48
2.2
1.95
1.55
0.88
-0.04
-1.1
-2.14
-3.1
-4.0
-5.02
-6.32
-8.0
-9.96
-12.01
-13.79
-15.03
-15.5
-15.08
-13.78
-11.7
-9.08
-6.21
-3.46
-1.1
0.62
1.66
2.05
1.93
1.5
0.97
0.49
0.22
0.26
0.65
1.35
2.27
3.26
4.2
5.01
5.74
6.47
7.24
7.97
8.48
8.58
8.16
7.33
6.35
5.54
5.03
4.82
4.72
4.54
4.22
3.74
3.23
2.69
2.12
1.41
0.48
-0.65
-1.81
-2.79
-3.41
-3.65
-3.64
-3.68
-4.05
-4.94
-6.41
-8.34
-10.49
-12.55
-14.18
-15.05
-14.94
-13.82
-11.86
-9.4
-6.84
-4.55
-2.7
-1.33
-0.3
0.57
1.44
2.38
3.37
4.3
5.08
5.64
6.03
6.35
6.71
7.14
7.61
8.04
8.36
8.51
8.51
8.37
8.11
7.75
7.32
6.88
6.46
6.07
5.67
5.25
4.82
4.46
4.26
4.24
4.33
4.35
4.12
3.57
2.72
1.7
0.69
-0.21
-0.95
-1.59
-2.22
-2.92
-3.72
-4.67
-5.79
-7.09
-8.6
-10.25
-11.85
-13.1
-13.6
-13.04
-11.28
-8.54
-5.27
-2.01
0.74
2.79
4.2
5.15
5.78
6.16
6.28
6.17
5.93
5.76
5.8
6.12
6.61
7.12
7.6
8.02
8.44
8.89
9.29
9.51
9.44
9.06
8.44
7.69
6.96
6.26
5.59
4.85
4.02
3.1
2.12
1.22
0.49
-0.01
-0.3
-0.38
-0.29
-0.05
0.28
0.61
0.8
0.73
0.35
-0.26
-0.95
-1.58
-2.11
-2.59
-3.2
-4.06
-5.22
-6.62
-8.06
-9.29
-10.05
-10.13
-9.41
-7.97
-5.99
-3.8
-1.73
-0.07
1.05
1.59
1.7
1.58
1.4
1.31
1.33
1.51
1.86
2.44
3.3
4.43
5.73
7.01
8.09
8.88
9.39
9.73
9.98
10.09
9.98
9.52
8.64
7.4
5.86
4.13
2.31
0.57
-0.82
-1.63
-1.76
-1.3
-0.58
-0.03
0.0
-0.58
-1.68
-3.01
-4.39
-5.67
-6.83
-7.87
-8.79
-9.61
-10.34
-11.07
-11.74
-12.3
-12.51
-12.16
-11.08
-9.25
-6.87
-4.21
-1.59
0.77
2.65
3.97
4.72
4.91
4.66
4.11
3.48
2.87
2.46
2.22
2.12
2.08
2.06
2.11
2.29
2.75
3.45
4.29
5.11
5.7
6.02
6.08
6.01
5.81
5.48
4.9
4.04
2.93
1.74
0.62
-0.31
-1.05
-1.67
-2.23
-2.76
-3.2
-3.47
-3.56
-3.51
-3.42
-3.42
-3.65
-4.14
-4.95
-6.01
-7.2
-8.42
-9.59
-10.65
-11.53
-12.13
-12.27
-11.77
-10.54
-8.64
-6.35
-4.07
-2.14
-0.75
0.12
0.63
0.99
1.3
1.6
1.85
2.03
2.17
2.34
2.64
3.16
3.92
4.85
5.85
6.75
7.41
7.73
7.69
7.35
6.83
6.22
5.58
4.93
4.3
3.72
3.24
2.88
2.64
2.46
2.3
2.12
1.97
1.87
1.8
1.75
1.68
1.54
1.35
1.13
0.92
0.75
0.56
0.28
-0.24
-1.11
-2.35
-3.9
-5.57
-7.1
-8.24
-8.77
-8.6
-7.75
-6.35
-4.67
-2.97
-1.53
-0.52
0.04
0.26
0.33
0.43
0.72
1.22
1.88
2.65
3.46
4.26
5.02
5.74
6.42
7.03
7.52
7.81
7.87
7.68
7.33
6.96
6.68
6.53
6.47
6.35
6.09
5.69
5.2
4.77
4.5
4.36
4.24
3.97
3.38
2.51
1.49
0.5
-0.3
-0.89
-1.43
-2.11
-3.09
-4.36
-5.8
-7.21
-8.43
-9.38
-10.11
-10.7
-11.14
-11.33
-11.12
-10.35
-8.97
-7.05
-4.81
-2.46
-0.24
1.69
3.21
4.29
4.9
5.04
4.73
4.06
3.13
2.13
1.3
0.83
0.86
1.41
2.29
3.25
4.02
4.45
4.55
4.49
4.46
4.59
4.84
5.07
5.09
4.76
4.08
3.22
2.39
1.81
1.51
1.39
1.26
0.95
0.43
-0.24
-0.9
-1.46
-1.93
-2.4
-2.97
-3.69
-4.5
-5.34
-6.14
-6.89
-7.6
-8.23
-8.64
-8.68
-8.21
-7.12
-5.49
-3.48
-1.33
0.63
2.14
3.05
3.36
3.27
3.01
2.81
2.8
3.04
3.45
3.94
4.37
4.68
4.78
4.65
4.29
3.8
3.31
3.01
3.0
3.27
3.68
4.05
4.2
4.1
3.84
3.56
3.43
3.49
3.67
3.8
3.76
3.51
3.09
2.61
2.19
1.88
1.67
1.51
1.33
1.04
0.56
-0.17
-1.19
-2.51
-4.08
-5.83
-7.64
-9.29
-10.59
-11.32
-11.33
-10.63
-9.37
-7.79
-6.14
-4.62
-3.29
-2.12
-1.04
-0.02
0.89
1.6
2.02
2.11
1.99
1.85
1.92
2.36
3.21
4.32
5.44
6.32
6.8
6.93
6.82
6.59
6.27
5.82
5.13
4.26
3.37
2.65
2.23
2.01
1.77
1.27
0.42
-0.66
-1.68
-2.41
-2.78
-2.9
-2.97
-3.13
-3.38
-3.62
-3.8
-3.95
-4.17
-4.55
-5.11
-5.74
-6.24
-6.45
-6.27
-5.66
-4.69
-3.48
-2.24
-1.16
-0.37
0.07
0.24
0.27
0.31
0.43
0.7
1.04
1.39
1.66
1.78
1.75
1.59
1.37
1.15
0.99
0.87
0.8
0.77
0.79
0.84
0.9
0.87
0.68
0.36
-0.01
-0.27
-0.3
-0.07
0.35
0.83
1.2
1.33
1.16
0.72
0.09
-0.62
-1.32
-1.93
-2.43
-2.87
-3.33
-3.92
-4.73
-5.78
-6.99
-8.14
-8.93
-9.03
-8.3
-6.77
-4.75
-2.61
-0.66
1.02
2.44
3.69
4.76
5.52
5.84
5.71
5.28
4.79
4.48
4.42
4.51
4.59
4.56
4.39
4.17
3.97
3.75
3.42
2.88
2.08
1.12
0.14
-0.69
-1.24
-1.47
-1.39
-1.12
-0.85
-0.79
-1.08
-1.75
-2.65
-3.53
-4.1
-4.2
-3.84
-3.16
-2.41
-1.81
-1.57
-1.79
-2.53
-3.71
-5.15
-6.54
-7.55
-7.97
-7.72
-6.96
-5.92
-4.82
-3.78
-2.8
-1.8
-0.72
0.43
1.57
2.58
3.41
4.01
4.42
4.68
4.84
4.89
4.84
4.68
4.5
4.4
4.46
4.71
5.1
5.46
5.6
5.34
4.65
3.6
2.36
1.08
-0.09
-1.06
-1.79
-2.21
-2.3
-2.1
-1.68
-1.2
-0.84
-0.74
-0.97
-1.46
-2.05
-2.59
-3.03
-3.39
-3.8
-4.37
-5.14
-6.04
-6.93
-7.65
-8.0
-7.88
-7.27
-6.24
-4.95
-3.62
-2.46
-1.59
-1.03
-0.67
-0.4
-0.13
0.17
0.42
0.62
0.74
0.89
1.13
1.55
2.13
2.82
3.54
4.2
4.8
5.35
5.92
6.52
7.11
7.51
7.56
7.15
6.27
5.11
3.91
2.81
1.83
0.82
-0.42
-1.94
-3.62
-5.13
-6.14
-6.47
-6.18
-5.51
-4.73
-4.06
-3.56
-3.24
-3.07
-3.07
-3.26
-3.65
-4.14
-4.55
-4.69
-4.48
-3.93
-3.17
-2.35
-1.58
-0.87
-0.23
0.36
0.9
1.39
1.81
2.11
2.3
2.35
2.31
2.24
2.21
2.24
2.29
2.27
2.1
1.82
1.52
1.35
1.38
1.57
1.72
1.68
1.37
0.88
0.36
-0.07
-0.4
-0.69
-0.99
-1.33
-1.65
-1.91
-2.05
-2.07
-2.04
-1.98
-1.93
-1.92
-1.97
-2.14
-2.46
-2.94
-3.54
-4.21
-4.86
-5.39
-5.73
-5.74
-5.4
-4.71
-3.78
-2.79
-1.9
-1.18
-0.6
-0.08
0.48
1.08
1.64
2.13
2.52
2.86
3.31
3.96
4.89
6.07
7.34
8.47
9.24
9.42
8.95
7.93
6.64
5.41
4.5
3.98
3.74
3.6
3.38
3.08
2.78
2.52
2.27
1.89
1.21
0.23
-0.89
-1.89
-2.53
-2.75
-2.71
-2.66
-2.83
-3.29
-3.98
-4.75
-5.51
-6.25
-6.98
-7.73
-8.38
-8.81
-8.81
-8.3
-7.3
-5.96
-4.51
-3.18
-2.12
-1.39
-0.94
-0.69
-0.55
-0.41
-0.16
0.22
0.75
1.42
2.21
3.07
3.95
4.78
5.46
5.98
6.33
6.6
6.87
7.2
7.56
7.85
7.97
7.86
7.6
7.25
6.91
6.55
6.08
5.41
4.44
3.16
1.61
-0.1
-1.91
-3.71
-5.41
-6.95
-8.3
-9.47
-10.51
-11.5
-12.42
-13.27
-13.95
-14.29
-14.19
-13.55
-12.39
-10.84
-9.08
-7.26
-5.51
-3.9
-2.45
-1.2
-0.14
0.74
1.49
2.21
2.99
3.84
4.64
5.24
5.53
5.5
5.33
5.24
5.37
5.69
5.99
5.98
5.48
4.5
3.25
2.02
1.04
0.39
0.04
-0.09
-0.08
0.05
0.25
0.48
0.65
0.68
0.53
0.24
-0.14
-0.53
-0.92
-1.41
-2.1
-3.09
-4.42
-5.95
-7.4
-8.46
-8.83
-8.43
-7.37
-5.89
-4.27
-2.69
-1.16
0.37
1.98
3.58
4.97
5.9
6.16
5.79
5.08
4.49
4.41
5.03
6.17
7.47
8.49
9.03
9.1
8.91
8.66
8.43
8.16
7.69
6.92
5.87
4.7
3.58
2.7
2.11
1.8
1.67
1.56
1.32
0.89
0.26
-0.43
-1.08
-1.62
-2.11
-2.64
-3.26
-3.93
-4.52
-4.9
-5.02
-4.99
-4.96
-5.04
-5.22
-5.33
-5.14
-4.52
-3.56
-2.51
-1.69
-1.29
-1.33
-1.61
-1.87
-1.88
-1.57
-1.06
-0.45
0.11
0.62
1.17
1.87
2.74
3.74
4.74
5.54
6.02
6.13
5.98
5.78
5.67
5.7
5.75
5.64
5.23
4.53
3.71
3.04
2.73
2.83
3.23
3.68
3.94
3.85
3.34
2.48
1.38
0.22
-0.82
-1.64
-2.19
-2.54
-2.81
-3.13
-3.59
-4.19
-4.85
-5.47
-5.98
-6.34
-6.52
-6.43
-5.93
-4.94
-3.46
-1.67
0.13
1.59
2.51
2.89
2.87
2.69
2.44
2.19
1.9
1.58
1.31
1.21
1.42
1.92
2.64
3.38
3.98
4.34
4.53
4.68
4.96
5.42
6.0
6.53
6.79
6.67
6.17
5.4
4.52
3.62
2.78
1.96
1.19
0.47
-0.16
-0.65
-1.04
-1.38
-1.77
-2.27
-2.94
-3.74
-4.56
-5.26
-5.75
-6.05
-6.25
-6.47
-6.73
-6.97
-7.04
-6.84
-6.32
-5.49
-4.41
-3.13
-1.69
-0.22
1.1
2.02
2.38
2.09
1.3
0.26
-0.72
-1.41
-1.68
-1.48
-0.86
0.08
1.16
2.2
2.97
3.4
3.43
3.15
2.8
2.55
2.55
2.76
3.04
3.2
3.11
2.82
2.48
2.28
2.32
2.59
2.96
3.27
3.38
3.23
2.8
2.19
1.5
0.85
0.37
0.08
-0.08
-0.24
-0.52
-0.98
-1.51
-2.0
-2.38
-2.68
-3.02
-3.51
-4.13
-4.72
-5.06
-5.04
-4.63
-4.02
-3.36
-2.71
-2.03
-1.21
-0.2
0.87
1.76
2.27
2.28
1.91
1.39
0.98
0.85
1.06
1.55
2.23
3.0
3.74
4.36
4.78
4.97
4.94
4.72
4.34
3.82
3.22
2.59
2.03
1.55
1.08
0.5
-0.29
-1.31
-2.39
-3.29
-3.83
-3.94
-3.72
-3.36
-2.99
-2.72
-2.54
-2.47
-2.54
-2.82
-3.35
-4.08
-4.87
-5.54
-6.0
-6.25
-6.4
-6.58
-6.85
-7.1
-7.15
-6.85
-6.07
-4.92
-3.57
-2.25
-1.16
-0.39
0.07
0.25
0.28
0.27
0.29
0.41
0.65
1.0
1.45
1.99
2.6
3.2
3.73
4.11
4.28
4.23
4.02
3.69
3.33
2.93
2.54
2.19
1.94
1.81
1.78
1.77
1.68
1.41
0.96
0.36
-0.27
-0.81
-1.21
-1.48
-1.73
-1.99
-2.29
-2.53
-2.68
-2.67
-2.61
-2.66
-2.95
-3.52
-4.26
-4.97
-5.47
-5.72
-5.73
-5.59
-5.28
-4.71
-3.86
-2.76
-1.55
-0.49
0.22
0.48
0.36
0.0
-0.37
-0.62
-0.69
-0.64
-0.63
-0.77
-1.14
-1.61
-2.04
-2.26
-2.21
-1.96
-1.66
-1.46
-1.38
-1.27
-0.95
-0.29
0.65
1.67
2.52
3.0
3.07
2.83
2.44
2.07
1.83
1.7
1.63
1.55
1.39
1.18
0.97
0.8
0.69
0.62
0.52
0.34
0.06
-0.23
-0.41
-0.39
-0.18
0.11
0.29
0.19
-0.27
-1.03
-1.92
-2.7
-3.13
-3.15
-2.78
-2.16
-1.48
-0.87
-0.41
-0.15
-0.09
-0.25
-0.63
-1.23
-1.95
-2.64
-3.1
-3.2
-2.83
-2.05
-1.0
0.12
1.14
1.95
2.56
3.06
3.51
3.99
4.47
4.86
5.05
4.97
4.6
3.95
3.11
2.15
1.19
0.32
-0.36
-0.82
-1.06
-1.09
-0.99
-0.79
-0.61
-0.58
-0.81
-1.37
-2.2
-3.15
-4.03
-4.64
-4.93
-4.91
-4.63
-4.12
-3.44
-2.7
-2.06
-1.7
-1.69
-1.97
-2.32
-2.45
-2.16
-1.39
-0.27
0.95
1.99
2.64
2.78
2.42
1.74
0.94
0.21
-0.34
-0.7
-0.94
-1.08
-1.15
-1.13
-0.97
-0.71
-0.4
-0.11
0.09
0.22
0.34
0.51
0.76
1.07
1.38
1.61
1.69
1.62
1.44
1.23
1.05
0.97
0.99
1.13
1.39
1.78
2.29
2.86
3.34
3.54
3.29
2.58
1.51
0.35
-0.64
-1.26
-1.5
-1.56
-1.75
-2.38
-3.61
-5.39
-7.45
-9.38
-10.79
-11.42
-11.22
-10.33
-9.04
-7.62
-6.27
-5.07
-4.0
-3.07
-2.24
-1.55
-0.92
-0.27
0.52
1.45
2.47
3.4
4.05
4.36
4.35
4.21
4.1
4.17
4.41
4.75
5.09
5.31
5.36
5.25
5.02
4.75
4.5
4.28
4.05
3.76
3.39
3.01
2.7
2.51
2.45
2.43
2.37
2.19
1.86
1.34
0.65
-0.21
-1.23
-2.33
-3.43
-4.49
-5.49
-6.46
-7.4
-8.26
-9.0
-9.57
-9.89
-9.92
-9.6
-8.88
-7.77
-6.29
-4.62
-2.99
-1.65
-0.77
-0.36
-0.27
-0.28
-0.18
0.13
0.59
1.05
1.36
1.45
1.33
1.12
0.99
1.07
1.51
2.38
3.67
5.25
6.88
8.3
9.3
9.79
9.81
9.43
8.76
7.89
6.9
5.9
5.0
4.29
3.78
3.43
3.13
2.77
2.32
1.78
1.2
0.61
0.04
-0.56
-1.22
-1.97
-2.83
-3.78
-4.75
-5.7
-6.58
-7.41
-8.21
-9.0
-9.74
-10.33
-10.63
-10.49
-9.89
-8.84
-7.43
-5.79
-4.03
-2.23
-0.47
1.15
2.49
3.4
3.85
3.88
3.67
3.42
3.26
3.19
3.13
2.96
2.6
2.11
1.61
1.26
1.14
1.22
1.38
1.45
1.36
1.14
0.92
0.9
1.16
1.65
2.2
2.55
2.56
2.22
1.67
1.06
0.53
0.11
-0.24
-0.56
-0.91
-1.28
-1.7
-2.18
-2.75
-3.47
-4.36
-5.4
-6.55
-7.67
-8.57
-9.06
-9.02
-8.43
-7.41
-6.13
-4.78
-3.48
-2.29
-1.23
-0.33
0.42
1.09
1.7
2.33
2.93
3.38
3.6
3.55
3.38
3.32
3.64
4.45
5.64
6.96
8.1
8.84
9.1
8.92
8.4
7.69
6.95
6.35
6.02
6.01
6.13
6.16
5.87
5.12
4.01
2.73
1.52
0.54
-0.24
-0.94
-1.71
-2.61
-3.59
-4.5
-5.24
-5.74
-6.06
-6.35
-6.79
-7.47
-8.42
-9.56
-10.68
-11.61
-12.17
-12.22
-11.72
-10.65
-9.13
-7.39
-5.75
-4.43
-3.59
-3.19
-3.02
-2.83
-2.43
-1.73
-0.83
0.12
0.99
1.71
2.3
2.83
3.38
4.02
4.75
5.54
6.41
7.3
8.19
9.02
9.69
10.1
10.18
9.9
9.37
8.71
8.05
7.44
6.91
6.46
6.07
5.74
5.38
4.89
4.1
2.89
1.25
-0.64
-2.52
-4.1
-5.18
-5.82
-6.12
-6.29
-6.46
-6.69
-6.99
-7.46
-8.19
-9.24
-10.54
-11.83
-12.74
-12.9
-12.07
-10.28
-7.84
-5.18
-2.75
-0.87
0.44
1.3
2.0
2.77
3.7
4.72
5.65
6.32
6.64
6.71
6.63
6.62
6.81
7.25
7.91
8.63
9.25
9.65
9.82
9.82
9.7
9.42
8.85
7.84
6.42
4.8
3.37
2.49
2.31
2.72
3.46
4.16
4.56
4.56
4.22
3.67
3.06
2.5
2.06
1.73
1.46
1.15
0.72
0.11
-0.7
-1.78
-3.14
-4.76
-6.53
-8.24
-9.63
-10.54
-10.89
-10.72
-10.1
-9.13
-7.85
-6.34
-4.68
-3.01
-1.53
-0.38
0.42
0.91
1.26
1.58
1.9
2.21
2.46
2.61
2.71
2.85
3.12
3.57
4.09
4.57
4.87
4.97
4.92
4.84
4.82
4.84
4.84
4.69
4.35
3.77
3.06
2.38
1.88
1.65
1.68
1.87
1.98
1.81
1.21
0.27
-0.79
-1.69
-2.2
-2.28
-2.08
-1.85
-1.86
-2.26
-3.08
-4.25
-5.65
-7.12
-8.53
-9.68
-10.37
-10.46
-9.83
-8.51
-6.63
-4.44
-2.22
-0.31
1.08
1.84
2.04
1.91
1.76
1.86
2.31
3.05
3.84
4.44
4.7
4.64
4.45
4.3
4.37
4.69
5.17
5.65
5.97
6.07
5.97
5.74
5.44
5.11
4.78
4.47
4.24
4.12
4.12
4.12
4.0
3.63
2.99
2.15
1.28
0.55
0.01
-0.35
-0.64
-0.98
-1.44
-2.03
-2.71
-3.45
-4.19
-4.97
-5.83
-6.84
-7.99
-9.18
-10.24
-10.89
-10.86
-10.02
-8.45
-6.4
-4.27
-2.41
-1.02
-0.05
0.75
1.68
2.95
4.54
6.14
7.34
7.74
7.12
5.6
3.56
1.53
-0.05
-0.92
-1.08
-0.69
0.07
1.04
2.11
3.18
4.13
4.82
5.17
5.18
4.98
4.78
4.76
4.97
5.36
5.79
6.09
6.15
5.9
5.37
4.61
3.75
2.9
2.14
1.49
0.88
0.23
-0.53
-1.4
-2.32
-3.15
-3.82
-4.37
-4.95
-5.76
-6.91
-8.34
-9.81
-10.95
-11.42
-10.98
-9.67
-7.68
-5.37
-3.1
-1.15
0.36
1.41
2.16
2.78
3.35
3.92
4.48
5.04
5.67
6.51
7.64
9.05
10.55
11.78
12.43
12.27
11.28
9.65
7.64
5.53
3.57
1.89
0.55
-0.42
-1.07
-1.46
-1.64
-1.71
-1.74
-1.79
-1.87
-2.0
-2.15
-2.33
-2.54
-2.79
-3.14
-3.63
-4.32
-5.2
-6.2
-7.18
-7.97
-8.5
-8.77
-8.87
-8.98
-9.24
-9.75
-10.5
-11.4
-12.28
-12.92
-13.13
-12.75
-11.76
-10.23
-8.31
-6.24
-4.21
-2.39
-0.86
0.37
1.38
2.27
3.11
3.96
4.74
5.36
5.74
5.89
5.97
6.13
6.49
7.02
7.64
8.17
8.53
8.7
8.68
8.52
8.21
7.74
7.08
6.2
5.13
4.02
3.05
2.45
2.35
2.7
3.31
3.9
4.26
4.28
4.01
3.53
2.87
1.95
0.68
-0.91
-2.69
-4.42
-5.88
-6.99
-7.86
-8.68
-9.56
-10.53
-11.42
-12.01
-12.11
-11.64
-10.63
-9.21
-7.56
-5.84
-4.27
-2.94
-1.95
-1.22
-0.55
0.23
1.27
2.53
3.84
4.95
5.69
5.98
5.97
5.81
5.65
5.59
5.69
5.97
6.41
6.96
7.51
7.97
8.25
8.35
8.31
8.27
8.24
8.22
8.11
7.79
7.2
6.36
5.34
4.28
3.27
2.4
1.67
1.07
0.54
0.08
-0.33
-0.68
-0.88
-0.88
-0.7
-0.43
-0.24
-0.35
-0.91
-1.98
-3.49
-5.3
-7.25
-9.09
-10.58
-11.47
-11.51
-10.61
-8.86
-6.58
-4.24
-2.25
-0.86
-0.06
0.42
0.92
1.72
2.84
4.1
5.18
5.79
5.87
5.59
5.28
5.22
5.55
6.15
6.79
7.23
7.3
7.02
6.47
5.79
5.05
4.25
3.42
2.63
1.95
1.43
1.09
0.88
0.7
0.48
0.23
0.04
0.05
0.32
0.79
1.35
1.75
1.83
1.55
0.97
0.21
-0.56
-1.25
-1.86
-2.44
-3.11
-3.98
-5.08
-6.37
-7.7
-8.86
-9.6
-9.72
-9.14
-7.93
-6.29
-4.51
-2.87
-1.63
-0.89
-0.66
-0.8
-1.17
-1.6
-1.91
-1.99
-1.75
-1.19
-0.35
0.67
1.76
2.79
3.66
4.3
4.77
5.12
5.47
5.89
6.32
6.65
6.69
6.36
5.69
4.83
4.03
3.48
3.24
3.21
3.21
3.03
2.51
1.6
0.39
-0.87
-1.89
-2.46
-2.55
-2.28
-1.92
-1.64
-1.54
-1.6
-1.77
-2.11
-2.72
-3.65
-4.84
-5.99
-6.66
-6.47
-5.31
-3.41
-1.3
0.5
1.64
2.13
2.24
2.31
2.59
3.08
3.68
4.23
4.69
5.09
5.56
6.1
6.67
7.19
7.56
7.79
7.9
7.9
7.77
7.48
7.0
6.4
5.75
5.15
4.72
4.46
4.37
4.29
4.13
3.73
3.03
2.12
1.17
0.36
-0.18
-0.5
-0.75
-1.13
-1.77
-2.65
-3.59
-4.37
-4.82
-4.92
-4.8
-4.7
-4.82
-5.28
-6.05
-6.96
-7.83
-8.49
-8.85
-8.91
-8.69
-8.24
-7.59
-6.79
-5.86
-4.9
-3.99
-3.13
-2.3
-1.45
-0.54
0.43
1.35
2.06
2.47
2.56
2.48
2.43
2.59
3.04
3.71
4.45
5.1
5.53
5.74
5.81
5.84
5.94
6.16
6.47
6.79
7.02
7.06
6.85
6.4
5.74
4.94
4.05
3.2
2.45
1.89
1.52
1.24
0.97
0.6
0.07
-0.57
-1.24
-1.89
-2.5
-3.13
-3.87
-4.8
-5.97
-7.34
-8.8
-10.21
-11.41
-12.26
-12.67
-12.61
-12.08
-11.15
-9.89
-8.44
-6.97
-5.65
-4.62
-3.9
-3.42
-3.02
-2.53
-1.86
-1.01
-0.04
0.92
1.86
2.76
3.62
4.41
5.05
5.47
5.66
5.72
5.78
5.95
6.18
6.32
6.22
5.79
5.12
4.42
3.88
3.55
3.36
3.17
2.95
2.78
2.8
3.07
3.47
3.69
3.35
2.22
0.39
-1.86
-4.08
-5.92
-7.24
-8.13
-8.84
-9.67
-10.77
-12.13
-13.58
-14.84
-15.58
-15.58
-14.68
-12.97
-10.69
-8.16
-5.71
-3.53
-1.64
0.06
1.65
3.2
4.71
6.08
7.26
8.19
8.84
9.21
9.28
9.06
8.63
8.08
7.57
7.21
7.04
7.02
7.0
6.84
6.35
5.48
4.31
3.02
1.9
1.12
0.78
0.8
1.02
1.31
1.56
1.76
1.9
1.99
1.96
1.79
1.51
1.25
1.14
1.22
1.4
1.46
1.18
0.47
-0.59
-1.76
-2.73
-3.37
-3.7
-3.95
-4.4
-5.22
-6.49
-8.06
-9.62
-10.86
-11.47
-11.3
-10.35
-8.8
-6.91
-5.01
-3.39
-2.23
-1.6
-1.4
-1.45
-1.5
-1.37
-0.99
-0.4
0.27
0.91
1.43
1.82
2.14
2.44
2.78
3.19
3.68
4.29
4.99
5.74
6.43
6.99
7.34
7.47
7.45
7.31
7.09
6.73
6.17
5.34
4.29
3.09
1.9
0.88
0.09
-0.48
-0.91
-1.25
-1.54
-1.77
-1.89
-1.91
-1.91
-1.99
-2.24
-2.72
-3.41
-4.26
-5.18
-6.15
-7.17
-8.25
-9.41
-10.55
-11.49
-11.98
-11.81
-10.92
-9.42
-7.59
-5.75
-4.12
-2.79
-1.71
-0.78
0.03
0.69
1.1
1.21
1.08
0.8
0.53
0.39
0.41
0.56
0.75
0.97
1.21
1.56
2.0
2.47
2.82
2.9
2.73
2.44
2.24
2.31
2.65
3.12
3.5
3.66
3.6
3.44
3.33
3.31
3.36
3.36
3.16
2.74
2.09
1.28
0.41
-0.42
-1.12
-1.62
-1.92
-2.07
-2.14
-2.23
-2.44
-2.83
-3.49
-4.41
-5.53
-6.67
-7.6
-8.04
-7.83
-6.91
-5.39
-3.57
-1.76
-0.27
0.72
1.16
1.12
0.71
0.09
-0.63
-1.42
-2.18
-2.82
-3.23
-3.27
-2.87
-2.09
-1.1
-0.08
0.82
1.58
2.3
3.12
4.15
5.34
6.51
7.42
7.95
8.04
7.79
7.31
6.73
6.12
5.53
4.98
4.49
4.02
3.56
3.06
2.52
1.96
1.42
0.91
0.41
-0.14
-0.79
-1.51
-2.22
-2.81
-3.2
-3.39
-3.51
-3.8
-4.46
-5.58
-7.05
-8.65
-10.05
-10.99
-11.29
-10.92
-9.91
-8.44
-6.7
-4.98
-3.58
-2.67
-2.3
-2.32
-2.45
-2.45
-2.17
-1.61
-0.9
-0.2
0.42
0.98
1.57
2.27
3.07
3.89
4.59
5.07
5.31
5.37
5.29
5.08
4.68
4.02
3.08
1.95
0.84
-0.03
-0.49
-0.52
-0.2
0.28
0.75
1.09
1.28
1.39
1.52
1.7
1.85
1.79
1.33
0.36
-1.06
-2.71
-4.3
-5.58
-6.45
-6.95
-7.25
-7.53
-7.95
-8.63
-9.55
-10.56
-11.42
-11.81
-11.52
-10.49
-8.88
-7.01
-5.24
-3.83
-2.88
-2.35
-2.09
-1.91
-1.65
-1.19
-0.52
0.26
0.99
1.53
1.84
2.02
2.24
2.67
3.33
4.14
4.88
5.4
5.62
5.63
5.54
5.48
5.45
5.38
5.19
4.84
4.43
4.08
3.92
4.01
4.3
4.64
4.84
4.73
4.24
3.42
2.34
1.09
-0.19
-1.46
-2.65
-3.72
-4.7
-5.65
-6.69
-7.95
-9.49
-11.31
-13.26
-15.06
-16.41
-16.96
-16.46
-14.81
-12.15
-8.86
-5.5
-2.57
-0.42
0.89
1.54
1.87
2.16
2.63
3.31
4.14
4.98
5.74
6.34
6.77
7.08
7.34
7.59
7.85
8.13
8.4
8.62
8.76
8.79
8.69
8.45
8.1
7.66
7.21
6.82
6.53
6.35
6.22
6.08
5.84
5.48
5.05
4.58
4.1
3.62
3.08
2.4
1.57
0.61
-0.41
-1.43
-2.47
-3.59
-4.82
-6.14
-7.51
-8.85
-10.19
-11.56
-13.02
-14.5
-15.75
-16.45
-16.29
-15.17
-13.22
-10.83
-8.39
-6.19
-4.3
-2.65
-1.11
0.39
1.75
2.91
3.78
4.35
4.7
4.99
5.36
5.91
6.67
7.54
8.39
9.05
9.45
9.6
9.56
9.46
9.32
9.12
8.74
8.09
7.22
6.28
5.45
4.88
4.6
4.53
4.53
4.49
4.36
4.17
3.97
3.79
3.55
3.16
2.55
1.69
0.56
-0.76
-2.21
-3.73
-5.19
-6.5
-7.51
-8.21
-8.71
-9.26
-10.06
-11.19
-12.48
-13.52
-13.84
-13.09
-11.2
-8.43
-5.23
-2.09
0.57
2.52
3.7
4.2
4.13
3.66
2.9
2.01
1.15
0.5
0.23
0.45
1.13
2.14
3.27
4.28
5.02
5.45
5.63
5.69
5.77
5.92
6.11
6.22
6.12
5.75
5.08
4.18
3.16
2.19
1.41
0.97
0.92
1.18
1.57
1.85
1.82
1.45
0.82
0.12
-0.46
-0.85
-1.12
-1.43
-1.95
-2.78
-3.91
-5.31
-6.93
-8.67
-10.41
-11.96
-13.06
-13.42
-12.88
-11.45
-9.31
-6.84
-4.39
-2.23
-0.5
0.8
1.77
2.53
3.22
3.92
4.7
5.58
6.55
7.59
8.7
9.85
10.97
11.95
12.67
13.06
13.14
12.96
12.61
12.14
11.56
10.79
9.82
8.65
7.36
6.09
4.94
3.96
3.13
2.37
1.59
0.74
-0.19
-1.09
-1.85
-2.38
-2.63
-2.68
-2.63
-2.59
-2.62
-2.76
-3.05
-3.56
-4.33
-5.42
-6.8
-8.42
-10.17
-11.94
-13.56
-14.84
-15.49
-15.3
-14.13
-12.1
-9.49
-6.68
-4.04
-1.71
0.32
2.19
3.97
5.65
7.12
8.2
8.8
8.92
8.74
8.48
8.33
8.38
8.55
8.71
8.73
8.63
8.51
8.52
8.71
9.02
9.3
9.33
9.04
8.44
7.66
6.83
6.04
5.29
4.58
3.91
3.33
2.88
2.62
2.54
2.59
2.68
2.72
2.63
2.36
1.86
1.1
0.11
-1.12
-2.53
-4.04
-5.56
-7.04
-8.47
-9.89
-11.37
-12.9
-14.32
-15.26
-15.31
-14.13
-11.73
-8.45
-4.87
-1.59
0.97
2.67
3.59
3.97
3.98
3.78
3.43
3.0
2.57
2.24
2.08
2.15
2.49
3.08
3.89
4.86
5.86
6.78
7.52
8.0
8.24
8.32
8.27
8.15
7.96
7.71
7.35
6.89
6.28
5.53
4.64
3.6
2.44
1.21
-0.02
-1.21
-2.36
-3.49
-4.65
-5.78
-6.8
-7.58
-8.08
-8.33
-8.49
-8.8
-9.47
-10.56
-11.98
-13.47
-14.67
-15.25
-15.03
-13.95
-12.14
-9.84
-7.39
-5.09
-3.1
-1.47
-0.15
0.96
1.9
2.66
3.22
3.55
3.73
3.9
4.25
4.9
5.86
7.01
8.21
9.35
10.31
11.08
11.6
11.84
11.78
11.43
10.86
10.1
9.24
8.28
7.22
6.13
5.09
4.26
3.7
3.41
3.3
3.24
3.12
2.85
2.41
1.76
0.87
-0.26
-1.58
-2.98
-4.31
-5.47
-6.49
-7.48
-8.66
-10.11
-11.82
-13.61
-15.19
-16.26
-16.6
-16.13
-14.88
-13.04
-10.81
-8.44
-6.13
-4.06
-2.34
-0.99
0.03
0.84
1.57
2.34
3.21
4.16
5.13
6.08
7.01
7.93
8.89
9.85
10.67
11.18
11.18
10.66
9.73
8.66
7.74
7.17
6.94
6.91
6.82
6.46
5.72
4.68
3.54
2.53
1.84
1.57
1.72
2.2
2.86
3.57
4.19
4.57
4.6
4.2
3.36
2.15
0.65
-1.04
-2.79
-4.48
-6.09
-7.59
-9.04
-10.44
-11.7
-12.62
-12.96
-12.54
-11.32
-9.52
-7.51
-5.65
-4.25
-3.39
-2.98
-2.81
-2.68
-2.49
-2.23
-1.93
-1.61
-1.25
-0.79
-0.2
0.53
1.36
2.22
3.06
3.81
4.42
4.81
4.93
4.8
4.49
4.1
3.71
3.38
3.09
2.88
2.73
2.7
2.79
2.93
3.02
2.96
2.72
2.3
1.78
1.16
0.47
-0.34
-1.3
-2.42
-3.73
-5.26
-7.07
-9.16
-11.39
-13.5
-15.08
-15.72
-15.17
-13.37
-10.55
-7.07
-3.46
-0.13
2.6
4.6
5.89
6.6
6.94
7.08
7.11
7.03
6.8
6.42
6.01
5.75
5.85
6.43
7.47
8.86
10.37
11.78
12.91
13.61
13.79
13.4
12.5
11.16
9.57
7.92
6.36
5.0
3.86
2.95
2.26
1.78
1.45
1.23
0.99
0.67
0.24
-0.28
-0.87
-1.5
-2.22
-3.09
-4.14
-5.31
-6.5
-7.64
-8.75
-9.91
-11.2
-12.63
-14.07
-15.28
-15.95
-15.87
-14.89
-13.1
-10.73
-8.11
-5.62
-3.51
-1.83
-0.44
0.85
2.16
3.48
4.74
5.81
6.68
7.43
8.19
8.98
