0
23.65
14.3
6.08
-0.9
-6.56
-10.7
-13.06
-13.5
-12.21
-9.72
-6.88
-4.54
-3.26
-3.19
-4.13
-5.71
-7.64
-9.79
-12.2
-15.05
-18.57
-23.0
-28.45
-34.73
-41.13
-46.36
-48.84
-47.1
-40.37
-28.82
-13.58
3.68
21.18
37.39
51.17
61.71
68.41
70.9
69.17
63.62
55.08
44.65
33.42
22.31
11.99
2.92
-4.57
-10.23
-13.96
-15.83
-16.13
-15.36
-14.1
-12.88
-12.1
-11.93
-12.36
-13.21
-14.28
-15.45
-16.8
-18.69
-21.59
-25.96
-31.87
-38.75
-45.34
-49.88
-50.59
-46.22
-36.5
-22.22
-5.0
13.18
30.44
45.36
57.03
64.94
68.92
69.04
65.59
59.14
50.48
40.47
29.89
19.42
9.58
0.79
-6.56
-12.14
-15.78
-17.51
-17.63
-16.65
-15.18
-13.76
-12.79
-12.47
-12.82
-13.82
-15.44
-17.72
-20.81
-24.96
-30.34
-36.87
-43.91
-50.22
-54.12
-53.87
-48.29
-37.14
-21.32
-2.6
16.83
34.93
50.15
61.59
68.88
72.0
71.19
66.85
59.53
50.01
39.17
27.92
17.11
7.42
-0.7
-6.96
-11.3
-13.8
-14.7
-14.41
-13.48
-12.51
-11.98
-12.2
-13.18
-14.73
-16.58
-18.55
-20.63
-23.05
-26.24
-30.67
-36.56
-43.66
-50.93
-56.68
-58.9
-55.91
-46.95
-32.48
-14.09
5.98
25.5
42.71
56.47
66.19
71.63
72.8
69.94
63.59
54.64
44.2
33.41
23.22
14.24
6.73
0.69
-3.99
-7.38
-9.44
-10.09
-9.28
-7.25
-4.56
-2.06
-0.62
-0.85
-2.88
-6.28
-10.34
-14.31
-17.8
-20.86
-23.86
-27.34
-31.76
-37.4
-44.26
-51.87
-59.24
-64.8
-66.7
-63.3
-53.75
-38.4
-18.79
2.79
23.92
42.59
57.48
67.94
73.76
75.08
72.26
65.93
56.98
46.48
35.53
25.06
15.72
7.87
1.56
-3.24
-6.63
-8.64
-9.31
-8.7
-7.07
-4.89
-2.86
-1.74
-2.12
-4.27
-8.0
-12.73
-17.68
-22.19
-25.94
-29.02
-31.86
-35.07
-39.15
-44.35
-50.41
-56.46
-61.13
-62.71
-59.68
-51.13
-37.18
-18.96
1.61
22.35
41.27
56.96
68.57
75.78
78.54
77.03
71.64
63.03
52.18
40.31
28.67
18.33
9.86
3.37
-1.42
-4.89
-7.31
-8.67
-8.83
-7.68
-5.43
-2.65
-0.21
1.08
0.64
-1.62
-5.33
-9.85
-14.51
-18.78
-22.45
-25.61
-28.56
-31.82
-35.93
-41.27
-47.8
-54.76
-60.74
-63.84
-62.3
-55.04
-42.08
-24.55
-4.32
16.45
35.83
52.28
64.74
72.5
75.23
73.07
66.64
57.08
45.76
34.04
22.97
13.17
4.9
-1.87
-7.22
-11.17
-13.71
-14.8
-14.52
-13.11
-11.01
-8.83
-7.25
-6.8
-7.77
-10.07
-13.29
-16.87
-20.31
-23.39
-26.16
-28.95
-32.21
-36.32
-41.45
-47.39
-53.35
-58.02
-59.79
-57.19
-49.4
-36.6
-19.93
-1.19
17.69
35.06
49.78
61.09
68.56
71.91
71.15
66.63
59.07
49.52
39.07
28.67
18.96
10.32
2.9
-3.21
-7.91
-11.05
-12.57
-12.6
-11.54
-10.0
-8.67
-8.08
-8.47
-9.73
-11.54
-13.57
-15.57
-17.51
-19.53
-21.94
-25.16
-29.62
-35.47
-42.39
-49.31
-54.56
-56.27
-52.97
-44.1
-30.28
-13.09
5.49
23.5
39.44
52.33
61.61
67.04
68.65
66.67
61.63
54.21
45.2
35.41
25.58
16.26
7.87
0.69
-5.08
-9.27
-11.8
-12.71
-12.29
-11.07
-9.78
-9.04
-9.22
-10.33
-12.07
-14.09
-16.21
-18.56
-21.56
-25.68
-31.16
-37.69
-44.37
-49.75
-52.31
-50.83
-44.85
-34.73
-21.54
-6.7
8.37
22.44
34.53
43.83
49.71
51.8
50.02
44.67
36.38
26.01
14.52
2.89
-7.99
-17.45
-25.08
-30.81
-34.82
-37.41
-38.91
-39.61
-39.75
-39.59
-39.36
-39.31
-39.61
-40.38
-41.81
-44.15
-47.75
-52.81
-59.15
-66.02
-72.09
-75.74
-75.49
-70.43
-60.39
-45.99
-28.35
-8.85
11.16
30.45
47.97
62.78
74.06
81.2
83.94
82.48
77.53
70.19
61.72
53.2
45.3
38.19
31.73
25.7
20.08
15.1
11.1
8.32
6.7
5.87
5.31
4.61
3.53
2.0
0.03
-2.48
-5.56
-9.08
-12.46
-14.7
-14.55
-10.95
-3.4
7.85
21.78
36.91
51.65
64.59
74.65
81.15
83.69
82.11
76.45
66.98
54.32
39.43
23.67
8.53
-4.65
-14.99
-22.36
-27.28
-30.63
-33.23
-35.44
-37.07
-37.52
-36.13
-32.62
-27.21
-20.71
-14.24
-9.02
-6.08
-5.98
-8.68
-13.32
-18.38
-21.88
-21.93
-17.23
-7.58
6.15
22.2
38.49
53.09
64.62
72.35
76.11
76.12
72.78
66.58
58.03
47.73
36.31
24.51
13.09
2.77
-5.88
-12.53
-17.19
-20.1
-21.63
-22.18
-22.08
-21.59
-20.95
-20.48
-20.54
-21.47
-23.51
-26.78
-31.28
-36.94
-43.52
-50.34
-56.25
-59.58
-58.57
-51.99
-39.61
-22.38
-2.18
18.73
38.23
54.71
67.12
74.91
77.98
76.6
71.47
63.55
53.89
43.46
33.03
23.17
14.31
6.81
0.93
-3.2
-5.56
-6.28
-5.65
-4.18
-2.52
-1.43
-1.52
-3.14
-6.13
-10.01
-14.13
-17.99
-21.41
-24.62
-28.09
-32.43
-38.06
-45.05
-52.8
-60.0
-64.74
-64.98
-59.15
-46.74
-28.62
-6.83
16.01
37.33
55.13
68.25
76.24
79.14
77.36
71.57
62.72
51.98
40.55
29.45
19.36
10.55
3.05
-3.15
-7.91
-10.95
-11.98
-10.99
-8.42
-5.1
-2.08
-0.3
-0.34
-2.32
-5.97
-10.75
-16.04
-21.3
-26.21
-30.74
-35.24
-40.24
-46.18
-53.04
-60.02
-65.62
-67.93
-65.28
-56.78
-42.68
-24.3
-3.63
17.16
36.16
51.93
63.57
70.6
72.94
70.83
64.91
56.12
45.63
34.63
24.1
14.72
6.8
0.39
-4.61
-8.27
-10.59
-11.51
-11.01
-9.27
-6.73
-4.1
-2.19
-1.68
-2.87
-5.59
-9.28
-13.21
-16.84
-19.96
-22.79
-25.8
-29.5
-34.25
-40.09
-46.56
-52.67
-56.95
-57.78
-53.79
-44.42
-30.17
-12.48
6.61
25.04
41.17
53.95
62.84
67.67
68.44
65.44
59.15
50.38
40.1
29.33
18.94
9.56
1.52
-5.07
-10.23
-13.95
-16.19
-16.86
-16.01
-14.0
-11.47
-9.24
-8.03
-8.21
-9.72
-12.12
-14.89
-17.64
-20.23
-22.75
-25.42
-28.57
-32.54
-37.57
-43.6
-49.98
-55.4
-58.11
-56.42
-49.34
-36.96
-20.46
-1.75
17.12
34.41
48.88
59.79
66.73
69.54
68.34
63.54
55.92
46.46
36.2
26.0
16.44
7.76
0.04
-6.66
-12.18
-16.21
-18.45
-18.8
-17.55
-15.32
-12.95
-11.22
-10.66
-11.42
-13.33
-16.01
-19.05
-22.13
-25.06
-27.82
-30.52
-33.44
-36.96
-41.4
-46.71
-52.29
-56.86
-58.77
-56.46
-49.03
-36.6
-20.29
-1.92
16.55
33.47
47.72
58.65
65.93
69.42
69.13
65.32
58.47
49.38
38.95
28.12
17.7
8.33
0.4
-5.9
-10.54
-13.68
-15.55
-16.47
-16.7
-16.46
-15.93
-15.22
-14.46
-13.78
-13.34
-13.33
-14.04
-15.86
-19.15
-24.0
-29.97
-35.92
-40.18
-41.02
-37.2
-28.44
-15.49
0.1
16.56
32.26
45.95
56.8
64.2
67.82
67.53
63.59
56.65
47.61
37.45
27.04
17.04
7.88
-0.14
-6.84
-12.14
-16.07
-18.81
-20.6
-21.69
-22.27
-22.51
-22.54
-22.52
-22.64
-23.11
-24.1
-25.79
-28.42
-32.2
-37.17
-42.94
-48.5
-52.33
-52.71
-48.3
-38.57
-24.1
-6.34
12.72
31.06
47.0
59.41
67.63
71.5
71.2
67.22
60.25
51.14
40.72
29.81
19.11
9.24
0.64
-6.4
-11.77
-15.53
-17.87
-19.07
-19.48
-19.49
-19.4
-19.51
-19.96
-20.79
-22.04
-23.73
-25.98
-28.99
-32.98
-38.08
-44.16
-50.67
-56.47
-60.05
-59.77
-54.39
-43.51
-27.77
-8.77
11.41
30.66
47.28
60.16
68.77
73.0
73.06
69.37
62.6
53.56
43.15
32.21
21.43
11.36
2.37
-5.2
-11.06
-14.99
-16.89
-16.95
-15.66
-13.76
-12.07
-11.21
-11.5
-12.85
-14.95
-17.39
-19.9
-22.42
-25.1
-28.29
-32.42
-37.8
-44.31
-51.17
-56.86
-59.45
-57.14
-48.92
-35.02
-16.85
3.41
23.46
41.44
56.1
66.79
73.18
75.24
73.16
67.43
58.85
48.4
37.05
25.64
14.82
5.12
-3.02
-9.27
-13.52
-15.86
-16.66
-16.44
-15.73
-14.92
-14.27
-13.9
-13.87
-14.2
-14.96
-16.29
-18.4
-21.62
-26.25
-32.28
-39.14
-45.55
-49.77
-49.99
-45.0
-34.59
-19.67
-1.96
16.47
33.69
48.24
59.18
66.03
68.68
67.34
62.46
54.75
45.1
34.36
23.37
12.79
3.11
-5.27
-12.11
-17.21
-20.5
-22.09
-22.25
-21.41
-20.11
-18.85
-17.99
-17.66
-17.83
-18.38
-19.25
-20.55
-22.54
-25.59
-29.96
-35.59
-41.81
-47.37
-50.6
-49.87
-44.06
-33.01
-17.61
0.5
19.29
36.87
51.83
63.29
70.83
74.34
73.94
69.91
62.78
53.29
42.35
30.9
19.84
9.89
1.59
-4.75
-9.02
-11.38
-12.17
-11.88
-11.06
-10.15
-9.44
-9.09
-9.15
-9.67
-10.81
-12.78
-15.85
-20.23
-25.92
-32.58
-39.37
-44.97
-47.78
-46.34
-39.69
-27.84
-11.76
6.8
25.72
43.01
57.15
67.17
72.71
73.82
70.87
64.46
55.35
44.41
32.59
20.78
9.75
0.1
-7.79
-13.72
-17.7
-19.85
-20.49
-20.08
-19.12
-18.1
-17.34
-17.01
-17.11
-17.62
-18.58
-20.09
-22.41
-25.79
-30.52
-36.69
-44.0
-51.54
-57.74
-60.63
-58.33
-49.75
-35.03
-15.57
6.31
28.07
47.48
63.02
73.79
79.49
80.23
76.42
68.87
58.63
46.91
34.82
23.28
12.88
3.94
-3.4
-9.07
-13.0
-15.19
-15.75
-14.95
-13.31
-11.46
-10.09
-9.71
-10.56
-12.53
-15.22
-18.1
-20.83
-23.36
-26.07
-29.57
-34.49
-41.02
-48.67
-56.14
-61.53
-62.81
-58.46
-47.89
-31.68
-11.38
10.8
32.55
51.81
67.02
77.22
82.04
81.66
76.73
68.27
57.48
45.58
33.59
22.24
11.98
3.06
-4.35
-10.04
-13.78
-15.45
-15.15
-13.3
-10.65
-8.08
-6.38
-6.02
-7.04
-9.16
-11.93
-14.94
-18.01
-21.19
-24.75
-29.12
-34.69
-41.58
-49.36
-56.85
-62.23
-63.49
-58.98
-48.08
-31.44
-10.84
11.35
32.75
51.44
66.13
76.06
80.92
80.78
76.1
67.8
57.09
45.29
33.56
22.7
13.14
5.04
-1.63
-6.89
-10.72
-13.04
-13.78
-12.99
-10.97
-8.33
-5.89
-4.49
-4.73
-6.76
-10.21
-14.38
-18.49
-22.06
-24.99
-27.63
-30.6
-34.6
-40.05
-46.89
-54.26
-60.55
-63.7
-61.75
-53.55
-39.13
-19.8
2.25
24.54
44.87
61.63
73.82
80.97
83.01
80.27
73.48
63.73
52.28
40.3
28.71
18.11
8.79
0.91
-5.41
-10.05
-12.93
-14.02
-13.44
-11.53
-8.88
-6.26
-4.47
-4.16
-5.59
-8.56
-12.47
-16.59
-20.32
-23.45
-26.18
-29.03
-32.68
-37.64
-44.0
-51.15
-57.69
-61.67
-61.03
-54.37
-41.43
-23.33
-2.2
19.45
39.41
56.15
68.85
77.12
80.77
79.76
74.33
65.17
53.51
40.81
28.42
17.31
7.87
0.11
-6.12
-10.87
-14.08
-15.59
-15.37
-13.64
-10.96
-8.1
-5.88
-4.98
-5.69
-7.88
-11.04
-14.47
-17.62
-20.29
-22.73
-25.53
-29.33
-34.58
-41.27
-48.81
-56.02
-61.28
-62.84
-59.2
-49.63
-34.44
-15.05
6.38
27.53
46.43
61.73
72.75
79.23
81.14
78.62
72.13
62.5
50.92
38.69
26.96
16.47
7.53
0.17
-5.71
-10.07
-12.84
-13.9
-13.29
-11.32
-8.54
-5.7
-3.55
-2.67
-3.32
-5.37
-8.45
-12.03
-15.68
-19.23
-22.76
-26.53
-30.89
-36.14
-42.46
-49.71
-57.34
-64.21
-68.74
-69.2
-64.19
-53.2
-36.84
-16.76
4.8
25.54
43.58
57.7
67.29
72.2
72.59
68.89
61.75
52.09
40.98
29.46
18.38
8.3
-0.51
-7.91
-13.82
-18.08
-20.55
-21.2
-20.29
-18.32
-15.99
-13.97
-12.73
-12.48
-13.14
-14.46
-16.2
-18.18
-20.4
-23.05
-26.43
-30.82
-36.17
-41.92
-46.88
-49.49
-48.19
-41.97
-30.67
-15.15
3.05
21.98
39.77
54.83
66.03
72.74
74.84
72.67
66.94
58.58
48.53
37.63
26.55
15.88
6.11
-2.3
-8.99
-13.77
-16.62
-17.77
-17.59
-16.62
-15.42
-14.5
-14.23
-14.71
-15.79
-17.19
-18.71
-20.3
-22.21
-24.87
-28.74
-33.94
-40.12
-46.3
-51.01
-52.63
-49.82
-41.96
-29.34
-13.14
4.94
23.04
39.54
53.23
63.34
69.47
71.48
69.5
63.91
55.37
44.74
32.99
21.14
10.08
0.58
-6.88
-12.07
-15.1
-16.35
-16.36
-15.66
-14.68
-13.64
-12.63
-11.7
-10.99
-10.72
-11.21
-12.74
-15.57
-19.83
-25.47
-32.04
-38.59
-43.68
-45.62
-42.94
-34.92
-21.92
-5.34
12.8
30.42
45.81
57.9
66.18
70.48
70.87
67.58
61.05
51.92
41.03
29.31
17.7
7.0
-2.16
-9.47
-14.84
-18.46
-20.62
-21.62
-21.76
-21.23
-20.27
-19.16
-18.23
-17.84
-18.26
-19.68
-22.25
-26.11
-31.34
-37.69
-44.33
-49.82
-52.26
-49.9
-41.74
-27.93
-9.81
10.49
30.63
48.62
63.02
73.06
78.46
79.33
76.06
69.3
59.87
48.71
36.76
24.91
13.98
4.59
-2.84
-8.2
-11.64
-13.51
-14.25
-14.32
-14.09
-13.86
-13.84
-14.13
-14.79
-15.82
-17.26
-19.27
-22.14
-26.23
-31.8
-38.7
-46.11
-52.53
-56.04
-54.8
-47.65
-34.54
-16.59
4.19
25.42
44.85
60.73
72.0
78.23
79.45
76.14
69.05
59.2
47.72
35.77
24.33
14.13
5.56
-1.28
-6.45
-10.07
-12.16
-12.72
-11.82
-9.78
-7.18
-4.79
-3.38
-3.45
-5.13
-8.19
-12.12
-16.36
-20.43
-24.07
-27.28
-30.35
-33.86
-38.45
-44.53
-51.87
-59.38
-65.18
-67.04
-63.15
-52.7
-36.22
-15.41
7.36
29.69
49.57
65.61
76.96
83.21
84.34
80.72
73.11
62.64
50.61
38.32
26.81
16.77
8.55
2.16
-2.54
-5.77
-7.71
-8.48
-8.16
-6.87
-4.84
-2.49
-0.4
0.8
0.59
-1.29
-4.73
-9.3
-14.38
-19.36
-23.79
-27.5
-30.67
-33.73
-37.29
-41.94
-47.99
-55.2
-62.57
-68.4
-70.69
-67.63
-58.27
-42.82
-22.61
0.21
23.23
44.21
61.46
73.91
81.11
83.19
80.64
74.28
65.05
53.99
42.13
30.4
19.6
10.32
2.9
-2.58
-6.22
-8.25
-8.89
-8.38
-6.97
-4.93
-2.62
-0.49
1.01
1.42
0.4
-2.13
-5.97
-10.64
-15.56
-20.18
-24.18
-27.49
-30.29
-32.95
-35.98
-39.92
-45.15
-51.59
-58.44
-64.16
-66.72
-64.22
-55.54
-40.79
-21.28
0.78
22.97
43.14
59.74
71.88
79.19
81.7
79.75
73.95
65.16
54.39
42.72
31.1
20.32
10.92
3.18
-2.82
-7.12
-9.9
-11.31
-11.54
-10.76
-9.2
-7.18
-5.19
-3.74
-3.35
-4.32
-6.63
-10.01
-13.96
-18.01
-21.8
-25.21
-28.37
-31.6
-35.34
-40.01
-45.84
-52.58
-59.33
-64.56
-66.5
-63.56
-54.96
-40.93
-22.65
-1.92
19.31
39.26
56.46
69.75
78.34
81.84
80.33
74.44
65.16
53.72
41.33
29.04
17.71
7.9
-0.12
-6.36
-10.96
-14.13
-15.97
-16.49
-15.74
-13.94
-11.58
-9.34
-7.87
-7.63
-8.75
-11.06
-14.19
-17.71
-21.27
-24.63
-27.71
-30.65
-33.77
-37.53
-42.3
-48.07
-54.23
-59.51
-62.21
-60.71
-53.94
-41.8
-25.14
-5.56
15.03
34.8
52.24
66.2
75.86
80.74
80.74
76.25
68.12
57.52
45.75
33.91
22.81
12.92
4.5
-2.33
-7.52
-11.08
-13.09
-13.69
-13.1
-11.58
-9.46
-7.2
-5.35
-4.42
-4.8
-6.53
-9.34
-12.78
-16.35
-19.72
-22.88
-26.0
-29.46
-33.64
-38.85
-45.11
-52.0
-58.56
-63.31
-64.61
-61.07
-52.03
-37.79
-19.51
1.03
21.9
41.31
57.76
70.14
77.73
80.31
78.15
72.03
63.06
52.48
41.36
30.46
20.21
10.84
2.48
-4.64
-10.22
-13.97
-15.72
-15.56
-13.92
-11.41
-8.81
-6.78
-5.82
-6.14
-7.73
-10.32
-13.54
-16.93
-20.11
-22.89
-25.41
-28.14
-31.77
-36.89
-43.65
-51.46
-58.9
-64.03
-64.88
-60.04
-49.12
-32.83
-12.81
8.84
30.0
48.89
64.15
74.88
80.65
81.42
77.65
70.18
60.22
49.02
37.68
26.95
17.18
8.46
0.78
-5.73
-10.79
-14.03
-15.25
-14.55
-12.46
-9.79
-7.45
-6.16
-6.25
-7.7
-10.18
-13.24
-16.44
-19.52
-22.43
-25.35
-28.69
-32.99
-38.65
-45.68
-53.4
-60.43
-64.87
-64.84
-59.04
-47.18
-30.13
-9.61
12.18
33.16
51.59
66.28
76.49
81.88
82.43
78.49
70.82
60.48
48.73
36.74
25.4
15.26
6.5
-0.85
-6.75
-11.07
-13.68
-14.5
-13.7
-11.76
-9.36
-7.25
-6.08
-6.25
-7.86
-10.7
-14.33
-18.2
-21.87
-25.14
-28.21
-31.61
-36.05
-41.96
-49.15
-56.52
-62.29
-64.37
-61.13
-51.85
-36.95
-17.85
3.53
25.13
45.12
61.95
74.45
81.85
83.93
81.03
74.04
64.18
52.73
40.8
29.24
18.63
9.31
1.5
-4.68
-9.13
-11.84
-12.83
-12.31
-10.65
-8.46
-6.48
-5.37
-5.58
-7.19
-9.96
-13.41
-17.05
-20.53
-23.77
-27.01
-30.76
-35.62
-41.96
-49.56
-57.39
-63.69
-66.38
-63.68
-54.69
-39.66
-19.95
2.36
24.96
45.75
63.07
75.8
83.37
85.72
83.23
76.68
67.11
55.68
43.54
31.66
20.74
11.16
3.09
-3.45
-8.35
-11.42
-12.5
-11.63
-9.22
-6.09
-3.25
-1.61
-1.71
-3.59
-6.89
-11.0
-15.3
-19.37
-23.02
-26.33
-29.68
-33.66
-38.85
-45.53
-53.38
-61.25
-67.31
-69.46
-65.98
-56.04
-40.0
-19.32
3.8
26.97
48.0
65.25
77.66
84.77
86.65
83.78
76.95
67.16
55.5
43.08
30.88
19.75
10.23
2.61
-3.1
-7.02
-9.31
-10.12
-9.55
-7.83
-5.35
-2.77
-0.81
-0.18
-1.23
-3.92
-7.84
-12.34
-16.81
-20.86
-24.44
-27.81
-31.48
-36.03
-41.88
-49.09
-57.06
-64.49
-69.47
-70.01
-64.57
-52.62
-34.83
-12.93
10.8
34.01
54.7
71.38
83.1
89.38
90.22
86.12
77.99
67.07
54.7
42.09
30.21
19.68
10.86
3.89
-1.27
-4.75
-6.71
-7.33
-6.79
-5.31
-3.25
-1.12
0.44
0.83
-0.35
-3.14
-7.21
-11.98
-16.8
-21.21
-25.04
-28.46
-31.9
-35.92
-41.04
-47.48
-54.97
-62.51
-68.49
-70.9
-67.93
-58.52
-42.76
-21.99
1.58
25.38
47.08
64.94
77.93
85.63
88.08
85.63
78.97
69.03
57.01
44.18
31.73
20.57
11.2
3.73
-2.0
-6.19
-8.99
-10.4
-10.41
-9.09
-6.74
-3.92
-1.34
0.24
0.26
-1.54
-5.03
-9.75
-15.02
-20.18
-24.77
-28.69
-32.18
-35.73
-39.96
-45.37
-52.1
-59.69
-66.96
-72.06
-72.91
-67.78
-55.92
-37.88
-15.42
8.97
32.71
53.68
70.43
82.13
88.43
89.34
85.25
76.99
65.76
52.95
39.9
27.65
16.87
7.87
0.73
-4.58
-8.15
-10.08
-10.53
-9.72
-7.93
-5.55
-3.1
-1.18
-0.44
-1.33
-4.01
-8.17
-13.18
-18.26
-22.85
-26.75
-30.16
-33.57
-37.57
-42.71
-49.27
-57.1
-65.38
-72.55
-76.51
-75.2
-67.24
-52.5
-32.23
-8.73
15.35
37.61
56.28
70.3
79.16
82.76
81.36
75.59
66.41
55.0
42.57
30.18
18.68
8.61
0.28
-6.28
-11.14
-14.45
-16.29
-16.65
-15.57
-13.22
-10.09
-6.96
-4.71
-4.0
-5.09
-7.7
-11.2
-14.87
-18.19
-21.04
-23.69
-26.67
-30.6
-35.94
-42.72
-50.38
-57.66
-62.74
-63.66
-58.9
-47.88
-31.2
-10.51
11.95
33.87
53.27
68.72
79.34
84.7
84.9
80.47
72.4
61.98
50.44
38.81
27.7
17.39
8.01
-0.26
-7.16
-12.35
-15.56
-16.77
-16.26
-14.61
-12.54
-10.79
-9.9
-10.16
-11.52
-13.67
-16.2
-18.7
-21.01
-23.31
-26.07
-29.93
-35.36
-42.27
-49.81
-56.35
-59.82
-58.29
-50.6
-36.76
-17.99
3.65
25.77
46.17
63.21
75.86
83.67
86.56
84.83
79.03
70.01
58.84
46.66
34.51
23.16
13.1
4.6
-2.18
-7.09
-10.05
-11.12
-10.67
-9.36
-7.98
-7.25
-7.56
-8.88
-10.89
-13.21
-15.62
-18.15
-21.15
-25.08
-30.37
-37.11
-44.81
-52.29
-57.76
-59.25
-55.15
-44.8
-28.68
-8.42
13.68
35.21
54.07
68.77
78.42
82.71
81.85
76.51
67.76
56.86
45.1
33.46
22.59
12.77
4.12
-3.26
-9.15
-13.25
-15.31
-15.37
-13.8
-11.33
-8.89
-7.28
-7.07
-8.4
-11.02
-14.44
-18.13
-21.71
-25.11
-28.61
-32.75
-38.13
-45.08
-53.22
-61.33
-67.43
-69.27
-65.04
-53.97
-36.62
-14.77
9.06
32.32
52.83
69.12
80.39
86.37
87.19
83.24
75.22
64.09
51.07
37.52
24.74
13.74
5.1
-1.15
-5.3
-7.81
-9.07
-9.29
-8.59
-7.09
-5.08
-2.99
-1.36
-0.66
-1.24
-3.22
-6.49
-10.74
-15.52
-20.34
-24.84
-28.87
-32.57
-36.35
-40.78
-46.3
-52.97
-60.17
-66.57
-70.28
-69.36
-62.39
-48.96
-29.93
-7.18
16.79
39.46
58.79
73.41
82.72
86.68
85.64
80.25
71.38
60.02
47.32
34.42
22.39
12.04
3.87
-1.98
-5.62
-7.33
-7.44
-6.3
-4.3
-1.85
0.6
2.61
3.76
3.72
2.27
-0.63
-4.81
-9.88
-15.32
-20.6
-25.35
-29.48
-33.17
-36.82
-40.97
-46.09
-52.41
-59.69
-67.06
-72.96
-75.42
-72.59
-63.31
-47.56
-26.59
-2.62
21.79
44.21
62.81
76.47
84.67
87.48
85.29
78.88
69.22
57.42
44.61
31.84
20.01
9.88
1.97
-3.49
-6.56
-7.59
-7.07
-5.54
-3.45
-1.15
1.09
3.0
4.29
4.66
3.85
1.74
-1.64
-6.04
-11.12
-16.5
-21.79
-26.71
-31.12
-35.05
-38.73
-42.55
-47.02
-52.53
-59.05
-65.84
-71.45
-73.89
-71.28
-62.38
-47.14
-26.69
-3.11
21.15
43.76
62.87
77.26
86.31
89.98
88.66
83.07
74.17
62.95
50.42
37.56
25.29
14.45
5.65
-0.76
-4.73
-6.52
-6.52
-5.25
-3.24
-1.04
0.89
2.22
2.77
2.53
1.56
-0.08
-2.41
-5.44
-9.12
-13.35
-17.93
-22.65
-27.31
-31.72
-35.76
-39.37
-42.74
-46.34
-50.81
-56.62
-63.57
-70.52
-75.48
-76.18
-70.8
-58.66
-40.49
-18.14
5.98
29.43
50.2
66.84
78.46
84.74
85.83
82.32
75.09
65.16
53.56
41.24
29.09
17.88
8.26
0.63
-4.9
-8.52
-10.55
-11.38
-11.29
-10.47
-9.06
-7.2
-5.17
-3.39
-2.35
-2.48
-4.09
-7.16
-11.39
-16.28
-21.24
-25.85
-29.88
-33.38
-36.59
-39.86
-43.6
-48.18
-53.74
-59.91
-65.67
-69.39
-69.18
-63.52
-51.79
-34.62
-13.69
8.71
30.39
49.58
65.14
76.39
82.98
84.77
81.96
75.14
65.3
53.71
41.58
29.87
19.15
9.66
1.47
-5.35
-10.67
-14.26
-15.92
-15.56
-13.39
-9.94
-6.04
-2.66
-0.65
-0.47
-2.08
-4.98
-8.47
-11.92
-15.04
-17.95
-21.05
-24.88
-29.85
-36.04
-43.03
-49.8
-54.82
-56.31
-52.78
-43.5
-28.78
-9.94
11.08
32.19
51.53
67.64
79.48
86.39
88.17
85.08
77.9
67.75
55.89
43.42
31.15
19.58
9.08
-0.04
-7.45
-12.83
-16.02
-17.16
-16.72
-15.39
-13.94
-13.01
-12.95
-13.83
-15.51
-17.73
-20.23
-22.88
-25.7
-28.91
-32.95
-38.24
-44.98
-52.72
-60.25
-65.65
-66.81
-62.05
-50.73
-33.47
-12.01
11.31
34.03
54.03
69.79
80.39
85.51
85.35
80.58
72.27
61.67
50.03
38.35
27.33
17.37
8.63
1.2
-4.77
-9.06
-11.41
-11.72
-10.14
-7.24
-3.92
-1.19
0.1
-0.46
-2.79
-6.4
-10.59
-14.82
-18.79
-22.59
-26.65
-31.52
-37.75
-45.53
-54.42
-63.15
-69.79
-72.12
-68.38
-57.79
-40.92
-19.46
4.18
27.53
48.44
65.31
77.16
83.56
84.57
80.67
72.76
61.94
49.43
36.39
23.83
12.58
3.18
-4.1
-9.32
-12.72
-14.61
-15.17
-14.47
-12.55
-9.65
-6.3
-3.35
-1.7
-2.01
-4.44
-8.58
-13.69
-18.92
-23.68
-27.7
-31.08
-34.21
-37.66
-42.04
-47.87
-55.14
-63.1
-70.11
-73.9
-72.29
-63.87
-48.57
-27.71
-3.63
21.01
43.8
62.96
77.37
86.51
90.29
88.95
83.06
73.54
61.57
48.46
35.45
23.55
13.45
5.44
-0.42
-4.26
-6.3
-6.77
-5.96
-4.24
-2.03
0.2
2.0
2.99
2.88
1.51
-1.17
-4.99
-9.65
-14.72
-19.77
-24.45
-28.57
-32.19
-35.54
-39.06
-43.28
-48.68
-55.35
-62.72
-69.44
-73.51
-72.85
-65.9
-52.21
-32.63
-9.11
15.81
39.6
60.16
76.08
86.62
91.64
91.47
86.78
78.45
67.45
54.77
41.39
28.29
16.38
6.37
-1.35
-6.74
-10.05
-11.69
-12.01
-11.3
-9.74
-7.63
-5.34
-3.42
-2.42
-2.75
-4.59
-7.82
-12.07
-16.83
-21.62
-26.09
-30.08
-33.67
-37.16
-41.03
-45.85
-52.01
-59.34
-66.89
-72.89
-75.19
-71.86
-61.96
-45.81
-24.96
-1.7
21.63
43.02
60.99
74.57
83.15
86.49
84.76
78.58
68.92
57.01
44.09
31.25
19.37
9.05
0.62
-5.87
-10.58
-13.73
-15.5
-16.01
-15.34
-13.68
-11.46
-9.27
-7.78
-7.51
-8.68
-11.13
-14.46
-18.19
-21.97
-25.66
-29.29
-33.03
-37.05
-41.57
-46.84
-52.99
-59.82
-66.55
-71.71
-73.43
-70.04
-60.58
-45.28
-25.5
-3.28
19.16
39.92
57.61
71.29
80.39
84.65
84.16
79.46
71.45
61.24
49.97
38.56
27.69
17.77
9.08
1.78
-3.95
-7.95
-10.14
-10.54
-9.44
-7.42
-5.24
-3.72
-3.48
-4.69
-7.12
-10.22
-13.42
-16.35
-18.99
-21.65
-24.83
-29.1
-34.82
-41.94
-49.78
-56.91
-61.44
-61.41
-55.48
-43.34
-25.88
-4.91
17.36
38.77
57.59
72.55
82.84
88.09
88.35
84.08
76.1
65.41
53.06
40.01
27.12
15.17
4.84
-3.36
-9.13
-12.52
-13.87
-13.73
-12.78
-11.64
-10.75
-10.39
-10.63
-11.42
-12.68
-14.36
-16.45
-19.09
-22.54
-27.2
-33.39
-41.07
-49.51
-57.21
-62.12
-62.14
-55.78
-42.74
-24.04
-1.78
21.36
42.81
60.59
73.49
81.11
83.61
81.53
75.6
66.65
55.6
43.42
31.01
19.2
8.6
-0.34
-7.35
-12.27
-15.09
-15.94
-15.21
-13.49
-11.48
-9.82
-8.99
-9.22
-10.49
-12.7
-15.67
-19.19
-23.17
-27.65
-32.88
-39.16
-46.48
-54.19
-60.78
-64.1
-62.0
-53.12
-37.45
-16.51
7.16
30.69
51.59
68.2
79.64
85.71
86.59
82.78
75.07
64.48
52.19
39.37
26.98
15.68
5.87
-2.25
-8.56
-12.93
-15.31
-15.78
-14.63
-12.43
-9.93
-7.92
-7.08
-7.76
-9.96
-13.31
-17.29
-21.37
-25.29
-29.19
-33.62
-39.22
-46.34
-54.57
-62.52
-68.04
-68.82
-63.11
-50.41
-31.6
-8.7
15.71
39.05
59.23
74.74
84.74
88.94
87.57
81.37
71.47
59.25
46.12
33.26
21.52
11.34
2.88
-3.82
-8.73
-11.75
-12.82
-12.08
-9.93
-7.1
-4.42
-2.65
-2.27
-3.45
-6.04
-9.7
-14.0
-18.51
-22.88
-26.99
-31.02
-35.5
-41.09
-48.22
-56.59
-64.94
-71.15
-72.84
-68.09
-56.14
-37.68
-14.62
10.4
34.68
55.94
72.59
83.76
89.19
89.1
84.16
75.33
63.78
50.76
37.44
24.8
13.58
4.18
-3.26
-8.73
-12.27
-13.9
-13.7
-11.91
-9.07
-6.02
-3.7
-2.87
-3.86
-6.53
-10.34
-14.65
-18.93
-22.96
-26.82
-30.82
-35.48
-41.28
-48.42
-56.51
-64.37
-70.09
-71.48
-66.74
-55.08
-37.08
-14.59
9.83
33.56
54.36
70.71
81.73
87.11
87.01
81.98
72.95
61.13
47.92
34.64
22.41
11.93
3.48
-3.02
-7.83
-11.2
-13.2
-13.81
-13.0
-10.99
-8.34
-5.86
-4.41
-4.57
-6.5
-9.9
-14.23
-18.9
-23.45
-27.62
-31.39
-35.02
-38.98
-43.87
-50.11
-57.55
-65.17
-71.09
-73.03
-69.08
-58.32
-41.21
-19.48
4.42
27.97
49.0
65.96
77.94
84.49
85.66
81.94
74.2
63.61
51.43
38.82
26.67
15.56
5.83
-2.33
-8.78
-13.34
-15.86
-16.33
-15.02
-12.52
-9.68
-7.42
-6.43
-6.97
-8.83
-11.48
-14.3
-16.91
-19.27
-21.72
-24.82
-29.15
-35.01
-42.17
-49.67
-55.87
-58.73
-56.41
-47.84
-33.14
-13.64
8.54
30.96
51.47
68.42
80.71
87.75
89.38
85.93
78.23
67.49
55.06
42.11
29.44
17.5
6.58
-2.97
-10.69
-16.06
-18.79
-19.04
-17.48
-15.16
-13.15
-12.22
-12.67
-14.35
-16.8
-19.54
-22.23
-24.83
-27.5
-30.66
-34.87
-40.61
-48.0
-56.4
-64.32
-69.54
-69.71
-63.11
-49.25
-29.1
-4.91
20.46
44.2
64.08
78.75
87.68
91.04
89.4
83.57
74.46
62.99
50.12
36.87
24.25
13.14
4.07
-2.84
-7.83
-11.26
-13.34
-14.07
-13.28
-11.01
-7.7
-4.28
-1.9
-1.51
-3.54
-7.7
-13.19
-19.05
-24.47
-29.03
-32.77
-36.04
-39.41
-43.54
-49.03
-56.11
-64.37
-72.53
-78.48
-79.81
-74.55
-61.83
-42.26
-17.82
8.7
34.44
57.01
74.77
86.87
93.12
93.81
89.59
81.39
70.34
57.61
44.35
31.54
20.01
10.33
2.79
-2.6
-6.04
-7.83
-8.27
-7.58
-5.98
-3.7
-1.13
1.15
2.5
2.32
0.27
-3.6
-8.91
-14.96
-21.0
-26.45
-31.0
-34.73
-38.03
-41.52
-45.86
-51.56
-58.68
-66.62
-73.99
-78.77
-78.81
-72.41
-58.94
-39.09
-14.79
11.33
36.5
58.39
75.45
86.88
92.55
92.79
88.26
79.85
68.69
56.0
42.95
30.57
19.6
10.46
3.36
-1.68
-4.69
-5.82
-5.36
-3.78
-1.63
0.55
2.37
3.61
4.13
3.79
2.43
-0.09
-3.79
-8.49
-13.82
-19.36
-24.7
-29.56
-33.82
-37.52
-40.9
-44.35
-48.44
-53.71
-60.37
-67.95
-75.15
-79.95
-80.09
-73.76
-60.23
-40.14
-15.38
11.36
37.28
59.96
77.72
89.73
95.83
96.39
92.17
84.14
73.37
60.96
47.9
35.11
23.35
13.21
5.08
-0.87
-4.65
-6.42
-6.44
-5.08
-2.81
-0.19
2.19
3.81
4.37
3.76
2.02
-0.72
-4.3
-8.57
-13.34
-18.34
-23.28
-27.92
-32.1
-35.87
-39.42
-43.08
-47.29
-52.54
-59.09
-66.71
-74.29
-79.91
-81.28
-76.39
-64.35
-45.75
-22.46
2.9
27.76
50.01
68.22
81.51
89.48
92.07
89.64
82.93
73.02
61.09
48.31
35.66
23.94
13.74
5.41
-0.96
-5.44
-8.26
-9.59
-9.62
-8.5
-6.46
-3.91
-1.37
0.6
1.6
1.36
-0.15
-2.83
-6.47
-10.85
-15.66
-20.59
-25.34
-29.72
-33.66
-37.34
-41.18
-45.69
-51.28
-57.89
-64.78
-70.49
-73.1
-70.77
-62.39
-47.89
-28.33
-5.62
18.0
40.43
59.92
75.27
85.73
90.99
91.14
86.65
78.37
67.45
55.15
42.6
30.69
19.98
10.68
2.9
-3.27
-7.68
-10.14
-10.63
-9.38
-6.97
-4.22
-2.01
-0.99
-1.49
-3.43
-6.41
-9.91
-13.45
-16.73
-19.76
-22.85
-26.47
-31.17
-37.33
-44.88
-53.1
-60.55
-65.27
-65.26
-59.07
-46.31
-27.86
-5.64
17.88
40.28
59.6
74.53
84.37
88.95
88.51
83.62
75.17
64.24
52.02
39.54
27.62
16.74
7.16
-1.02
-7.65
-12.5
-15.31
-15.95
-14.59
-11.84
-8.67
-6.16
-5.18
-6.13
-8.89
-12.91
-17.48
-21.96
-25.95
-29.41
-32.61
-36.17
-40.78
-46.97
-54.66
-62.93
-69.99
-73.61
-71.73
-63.12
-47.78
-26.94
-2.79
22.1
45.27
64.76
79.3
88.3
91.78
90.16
84.16
74.7
62.85
49.74
36.55
24.25
13.56
4.83
-1.95
-6.91
-10.18
-11.83
-11.89
-10.53
-8.13
-5.32
-2.82
-1.35
-1.4
-3.18
-6.58
-11.18
-16.41
-21.63
-26.39
-30.47
-33.97
-37.31
-41.13
-46.13
-52.71
-60.68
-68.96
-75.62
-78.3
-74.91
-64.35
-46.99
-24.53
0.46
25.29
47.73
66.28
80.09
88.78
92.28
90.74
84.6
74.69
62.17
48.41
34.78
22.42
12.05
3.9
-2.14
-6.35
-9.02
-10.3
-10.27
-9.02
-6.82
-4.13
-1.58
0.16
0.56
-0.67
-3.5
-7.56
-12.31
-17.15
-21.66
-25.71
-29.45
-33.27
-37.62
-42.95
-49.48
-57.03
-64.8
-71.32
-74.64
-72.83
-64.61
-49.8
-29.53
-5.87
18.68
41.77
61.52
76.71
