0
-34.62
-41.66
-48.3
-54.29
-59.82
-65.36
-71.43
-78.42
-86.46
-95.42
-104.74
-113.29
-119.36
-120.86
-115.91
-103.59
-84.38
-60.2
-33.84
-8.15
14.7
33.49
47.91
58.25
65.04
68.95
70.61
70.66
69.64
67.94
65.82
63.44
61.01
58.82
57.22
56.56
56.99
58.47
60.75
63.42
66.03
68.09
69.21
69.03
67.39
64.34
60.17
55.39
50.45
45.63
40.97
36.26
31.32
26.03
20.46
14.72
8.94
3.18
-2.47
-7.85
-12.71
-16.9
-20.5
-23.86
-27.53
-31.99
-37.46
-43.75
-50.4
-56.86
-62.77
-68.06
-72.99
-78.13
-84.23
-92.03
-102.01
-113.95
-126.78
-138.46
-146.38
-148.04
-141.8
-127.44
-106.28
-80.79
-53.91
-28.3
-5.86
12.47
26.62
37.07
44.63
50.17
54.41
57.83
60.62
62.75
64.14
64.78
64.83
64.65
64.59
65.01
66.05
67.69
69.71
71.8
73.52
74.45
74.21
72.6
69.69
65.75
61.19
56.35
51.37
46.18
40.61
34.56
28.11
21.52
15.12
9.09
3.39
-2.16
-7.75
-13.43
-19.04
-24.32
-29.1
-33.4
-37.47
-41.69
-46.5
-52.37
-59.73
-68.89
-79.74
-91.45
-102.36
-110.08
-112.17
-106.87
-93.78
-74.08
-50.12
-24.78
-0.72
20.19
36.95
49.39
57.92
63.25
66.17
67.4
67.47
66.74
65.48
63.92
62.26
60.67
59.17
57.71
56.24
54.82
53.64
52.98
53.01
53.64
54.48
54.98
54.59
52.93
49.92
45.72
40.65
35.08
29.41
23.89
18.64
13.55
8.38
2.85
-3.26
-9.88
-16.8
-23.66
-30.18
-36.26
-42.06
-47.98
-54.52
-62.2
-71.38
-82.05
-93.66
-104.97
-114.18
-119.24
-118.39
-110.68
-96.38
-76.94
-54.64
-31.94
-10.95
6.99
21.37
32.33
40.38
46.16
50.3
53.29
55.48
57.07
58.14
58.74
58.98
59.05
59.17
59.45
59.9
60.42
60.93
61.54
62.44
63.81
65.62
67.49
68.86
69.2
68.31
66.35
63.69
60.65
57.34
53.72
49.73
45.52
41.4
37.71
34.54
31.76
29.02
25.93
22.22
17.87
13.03
7.93
2.82
-2.17
-7.0
-11.81
-16.84
-22.38
-28.56
-35.27
-42.17
-48.78
-54.8
-60.23
-65.53
-71.34
-78.27
-86.55
-95.77
-104.91
-112.45
-116.73
-116.32
-110.44
-99.13
-83.41
-64.95
-45.68
-27.42
-11.38
1.88
12.38
20.5
26.72
31.46
35.04
37.75
39.87
41.59
43.01
44.15
44.95
45.34
45.38
45.17
44.91
44.73
44.65
44.64
44.56
44.31
43.8
42.94
41.57
39.54
36.75
33.29
29.41
25.43
21.59
17.9
14.13
9.97
5.29
0.24
-4.75
-9.14
-12.53
-14.88
-16.4
-17.56
-18.82
-20.54
-22.88
-25.85
-29.25
-32.81
-36.25
-39.38
-42.29
-45.34
-49.09
-54.17
-60.9
-69.07
-77.79
-85.61
-90.81
-91.92
-88.11
-79.47
-66.96
-52.14
-36.71
-22.2
-9.59
0.68
8.68
14.77
19.46
23.14
26.04
28.15
29.42
29.8
29.42
28.52
27.43
26.45
25.8
25.59
25.89
26.66
27.81
29.11
30.23
30.84
30.68
29.66
27.84
25.43
22.68
19.79
16.92
14.12
11.33
8.36
5.01
1.19
-2.99
-7.17
-10.88
-13.77
-15.8
-17.27
-18.69
-20.6
-23.36
-27.07
-31.62
-36.72
-42.07
-47.35
-52.37
-57.11
-61.77
-66.8
-72.73
-79.97
-88.54
-97.88
-106.87
-113.94
-117.52
-116.34
-109.88
-98.47
-83.25
-65.93
-48.34
-32.01
-17.9
-6.24
3.23
11.07
17.75
23.5
28.3
32.05
34.77
36.74
38.4
40.14
42.14
44.35
46.6
48.75
50.85
53.01
55.23
57.32
58.96
59.83
59.88
59.3
58.41
57.44
56.42
55.2
53.65
51.8
49.77
47.69
45.56
43.24
40.63
37.81
35.09
32.83
31.2
30.06
28.97
27.44
25.22
22.44
19.44
16.62
14.2
12.12
10.09
7.79
4.97
1.54
-2.41
-6.65
-10.89
-14.86
-18.43
-21.62
-24.58
-27.54
-30.61
-33.85
-37.2
-40.64
-44.23
-48.19
-52.8
-58.27
-64.61
-71.51
-78.52
-85.11
-91.01
-96.24
-101.19
-106.43
-112.66
-120.44
-130.02
-141.18
-152.97
-163.7
-171.13
-172.99
-167.58
-154.35
-134.1
-108.8
-81.01
-53.28
-27.66
-5.51
12.55
26.56
37.05
44.87
50.91
55.89
60.17
63.81
66.75
69.08
71.09
73.27
76.05
79.6
83.75
88.15
92.44
96.4
99.86
102.62
104.35
104.6
103.09
99.86
95.33
90.16
84.93
79.96
75.2
70.4
65.35
60.03
54.58
49.25
44.18
39.39
34.76
30.1
25.29
20.31
15.25
10.23
5.41
0.8
-3.69
-8.3
-13.37
-19.24
-26.1
-33.86
-42.18
-50.56
-58.58
-66.06
-73.2
-80.57
-88.92
-98.95
-110.92
-124.37
-137.93
-149.34
-155.82
-154.79
-144.65
-125.36
-98.63
-67.41
-35.16
-4.96
21.06
41.88
57.45
68.39
75.66
80.36
83.51
85.89
87.92
89.69
91.04
91.85
92.15
92.19
92.39
93.11
94.59
96.79
99.49
102.26
104.58
105.88
105.67
103.65
99.82
94.45
88.05
81.18
74.31
67.74
61.56
55.77
50.31
45.12
40.13
35.3
30.62
26.1
21.84
17.94
14.5
11.54
8.97
6.57
4.06
1.21
-2.15
-6.05
-10.45
-15.19
-20.17
-25.25
-30.3
-35.17
-39.82
-44.33
-48.97
-54.13
-60.14
-67.1
-74.77
-82.67
-90.27
-97.24
-103.59
-109.73
-116.4
-124.39
-134.22
-145.76
-157.87
-168.45
-174.77
-174.16
-164.75
-146.1
-119.3
-86.78
-51.64
-17.1
14.14
40.18
60.06
73.83
82.29
86.72
88.43
88.51
87.63
86.18
84.39
82.56
81.08
80.33
80.6
81.93
84.15
86.87
89.72
92.31
94.37
95.64
95.87
94.8
92.2
87.98
82.31
75.58
68.31
61.0
54.01
47.43
41.21
35.27
29.57
24.17
19.14
14.5
10.14
5.91
1.63
-2.79
-7.36
-11.98
-16.48
-20.69
-24.58
-28.26
-32.03
-36.28
-41.28
-47.12
-53.57
-60.23
-66.71
-72.8
-78.57
-84.31
-90.5
-97.66
-106.29
-116.68
-128.61
-141.0
-151.8
-158.3
-157.8
-148.51
-130.21
-104.43
-73.9
-41.87
-11.24
15.86
38.2
55.34
67.44
75.09
79.19
80.73
80.57
79.33
77.38
74.93
72.23
69.65
67.6
66.44
66.38
67.41
69.41
72.14
75.22
78.2
80.46
81.44
80.7
78.19
74.17
69.12
63.57
57.9
52.28
46.71
41.15
35.55
29.93
24.3
18.74
13.34
8.27
3.72
-0.22
-3.63
-6.75
-9.95
-13.49
-17.42
-21.55
-25.65
-29.6
-33.54
-37.8
-42.72
-48.44
-54.82
-61.5
-68.08
-74.27
-80.01
-85.4
-90.7
-96.34
-102.87
-110.91
-120.89
-132.65
-145.08
-156.13
-163.12
-163.42
-155.27
-138.26
-113.52
-83.41
-50.97
-19.23
9.26
32.8
50.66
63.02
70.7
74.9
76.77
77.18
76.67
75.49
73.9
72.21
70.79
70.03
70.15
71.17
72.92
75.17
77.66
80.13
82.23
83.56
83.77
82.63
80.16
76.63
72.38
67.72
62.75
57.47
51.79
45.78
39.61
33.56
27.85
22.57
17.6
12.75
7.82
2.74
-2.4
-7.43
-12.13
-16.41
-20.37
-24.25
-28.43
-33.25
-38.93
-45.42
-52.41
-59.47
-66.21
-72.45
-78.34
-84.34
-91.09
-99.27
-109.35
-121.33
-134.42
-146.85
-156.03
-159.07
-153.62
-138.71
-115.14
-85.43
-53.0
-21.29
7.05
30.49
48.62
61.75
70.56
75.85
78.41
78.97
78.17
76.49
74.33
71.97
69.69
67.79
66.54
66.19
66.85
68.52
71.03
74.07
77.16
79.68
80.97
80.43
77.75
73.04
66.85
60.03
53.33
47.2
41.61
36.21
30.57
24.4
17.74
10.9
4.25
-1.93
-7.52
-12.64
-17.56
-22.63
-28.26
-34.68
-41.92
-49.7
-57.55
-64.98
-71.73
-77.87
-83.93
-90.68
-98.95
-109.27
-121.46
-134.41
-146.06
-153.74
-154.84
-147.47
-131.18
-107.09
-77.66
-46.06
-15.44
11.76
34.13
51.28
63.62
72.0
77.34
80.5
82.06
82.46
81.97
80.87
79.4
77.79
76.23
74.93
74.13
74.06
74.84
76.43
78.52
80.61
82.1
82.47
81.39
78.78
74.76
69.64
63.8
57.68
51.62
45.9
40.54
35.46
30.5
25.55
20.62
15.81
11.18
6.7
2.23
-2.35
-7.06
-11.75
-16.25
-20.52
-24.74
-29.33
-34.71
-41.06
-48.25
-55.86
-63.35
-70.37
-76.82
-83.0
-89.48
-97.01
-106.33
-117.71
-130.61
-143.41
-153.55
-158.1
-154.61
-141.97
-120.72
-92.96
-61.69
-30.04
-0.75
24.26
43.95
58.19
67.56
73.2
76.4
78.17
79.04
79.03
78.02
76.03
73.46
70.96
69.14
68.32
68.42
69.2
70.39
71.83
73.4
74.88
75.82
75.71
74.1
70.86
66.23
60.7
54.8
48.93
43.27
37.83
32.55
27.33
22.11
16.77
11.25
5.59
-0.04
-5.37
-10.1
-14.06
-17.38
-20.46
-23.88
-28.17
-33.6
-40.08
-47.25
-54.66
-61.92
-68.86
-75.54
-82.12
-88.98
-96.6
-105.49
-115.88
-127.33
-138.4
-146.66
-149.28
-143.88
-129.48
-106.88
-78.54
-47.79
-17.95
8.44
29.91
46.09
57.39
64.66
68.94
71.16
72.01
71.95
71.27
70.24
69.18
68.35
67.88
67.72
67.71
67.74
67.91
68.46
69.57
71.12
72.63
73.34
72.54
69.86
65.4
59.58
53.05
46.37
39.97
34.05
28.64
23.58
18.62
13.5
8.05
2.31
-3.53
-9.11
-14.18
-18.68
-22.81
-26.97
-31.54
-36.78
-42.71
-49.15
-55.84
-62.52
-69.01
-75.23
-81.27
-87.45
-94.38
-102.77
-113.15
-125.34
-138.1
-149.1
-155.46
-154.53
-144.81
-126.44
-101.19
-71.83
-41.45
-12.69
12.59
33.43
49.61
61.4
69.45
74.5
77.31
78.53
78.68
78.11
77.13
75.96
74.85
73.95
73.47
73.51
74.21
75.63
77.66
79.94
81.91
82.92
82.51
80.54
77.24
73.1
68.65
64.23
59.93
55.66
51.28
46.7
41.92
36.99
31.96
26.9
21.93
17.22
13.01
9.45
6.56
4.13
1.8
-0.81
-4.05
-8.06
-12.75
-17.85
-22.97
-27.77
-32.03
-35.79
-39.39
-43.34
-48.16
-54.14
-61.15
-68.71
-76.15
-82.96
-88.96
-94.37
-99.75
-105.89
-113.55
-123.15
-134.37
-145.93
-155.49
-160.18
-157.4
-145.67
-125.26
-98.15
-67.44
-36.44
-7.92
16.36
35.62
49.87
59.6
65.55
68.62
69.72
69.68
69.08
68.26
67.31
66.24
65.07
64.01
63.36
63.47
64.57
66.59
69.24
72.05
74.47
76.01
76.23
74.8
71.58
66.68
60.54
53.79
47.04
40.73
34.95
29.54
24.22
18.84
13.37
7.92
2.68
-2.23
-6.81
-11.12
-15.37
-19.84
-24.86
-30.62
-37.1
-44.04
-51.05
-57.73
-63.91
-69.7
-75.44
-81.69
-89.1
-98.18
-108.96
-120.72
-131.79
-139.73
-141.82
-135.92
-121.23
-98.67
-70.69
-40.58
-11.56
13.97
34.71
50.41
61.46
68.6
72.62
74.26
74.28
73.34
72.06
70.85
69.87
69.08
68.36
67.71
67.31
67.48
68.55
70.65
73.57
76.81
79.64
81.28
81.15
78.99
74.96
69.6
63.61
57.65
52.12
47.03
42.13
37.07
31.65
25.92
20.14
14.65
9.62
5.01
0.6
-3.9
-8.65
-13.62
-18.67
-23.67
-28.62
-33.65
-39.01
-44.9
-51.38
-58.34
-65.55
-72.68
-79.44
-85.64
-91.33
-96.91
-103.11
-110.85
-120.8
-132.89
-145.94
-157.64
-165.02
-165.27
-156.58
-138.72
-113.11
-82.4
-49.78
-18.3
9.73
32.89
50.74
63.63
72.39
78.02
81.39
83.18
83.78
83.55
82.81
81.94
81.25
80.89
80.85
81.05
81.52
82.39
83.85
85.87
88.17
90.12
91.04
90.43
88.09
84.28
79.43
74.06
68.6
63.27
58.08
52.87
47.4
41.44
35.02
28.37
21.97
16.36
11.84
8.29
5.19
1.77
-2.55
-7.94
-14.02
-20.14
-25.74
-30.66
-35.23
-40.08
-45.71
-52.29
-59.53
-66.91
-73.93
-80.33
-86.1
-91.44
-96.74
-102.56
-109.59
-118.43
-129.18
-140.93
-151.69
-158.68
-159.0
-150.63
-133.08
-107.57
-76.72
-43.83
-12.15
15.76
38.38
55.28
66.91
74.17
78.15
79.69
79.44
77.84
75.35
72.51
69.91
68.01
67.03
66.88
67.36
68.24
69.44
70.92
72.63
74.28
75.37
75.35
73.78
70.55
65.92
60.33
54.32
48.31
42.54
37.07
31.85
26.72
21.41
15.72
9.59
3.16
-3.2
-9.05
-14.1
-18.43
-22.5
-26.94
-32.24
-38.6
-45.78
-53.28
-60.53
-67.1
-72.83
-77.93
-82.97
-88.85
-96.51
-106.61
-118.95
-132.2
-143.95
-151.21
-151.25
-142.43
-124.71
-99.61
-69.79
-38.39
-8.34
18.08
39.54
55.58
66.57
73.32
76.85
78.12
77.89
76.71
74.98
72.97
70.9
68.87
66.98
65.39
64.35
64.23
65.29
67.53
70.54
73.55
75.68
76.2
74.81
71.66
67.24
62.16
56.97
52.06
47.62
43.63
39.89
36.15
32.21
28.01
23.75
19.72
16.15
13.07
10.25
7.32
3.98
0.11
-4.14
-8.52
-12.89
-17.27
-21.84
-26.84
-32.45
-38.7
-45.51
-52.71
-60.08
-67.38
-74.41
-81.12
-87.74
-94.88
-103.39
-113.94
-126.55
-140.16
-152.57
-160.91
-162.41
-155.2
-138.91
-114.71
-85.01
-52.86
-21.3
7.17
30.92
49.27
62.43
71.18
76.54
79.45
80.62
80.49
79.41
77.69
75.7
73.75
72.16
71.16
70.96
71.71
73.49
76.18
79.35
82.39
84.65
85.57
84.91
82.69
79.11
74.42
68.86
62.67
56.11
49.48
43.01
36.84
30.96
25.24
19.54
13.79
8.07
2.55
-2.58
-7.16
-11.22
-14.85
-18.31
-21.95
-26.15
-31.26
-37.43
-44.55
-52.25
-59.97
-67.22
-73.78
-79.76
-85.62
-92.1
-99.99
-109.85
-121.73
-134.76
-147.03
-155.79
-158.09
-151.65
-135.73
-111.44
-81.48
-49.34
-18.36
8.97
31.28
48.21
60.08
67.6
71.65
73.1
72.74
71.23
69.11
66.81
64.63
62.81
61.46
60.64
60.41
60.88
62.17
64.39
67.33
70.56
73.32
74.86
74.58
72.25
67.98
62.17
55.31
47.94
40.56
33.57
27.21
21.51
16.27
11.18
6.0
0.6
-4.91
-10.28
-15.27
-19.74
-23.83
-27.81
-32.11
-37.13
-43.12
-50.08
-57.76
-65.75
-73.6
-81.04
-88.06
-95.02
-102.59
-111.54
-122.37
-134.89
-147.84
-158.87
-165.05
-163.69
-153.23
-133.84
-107.35
-76.69
-45.04
-15.04
11.51
33.69
51.23
64.27
73.28
78.91
81.87
82.87
82.47
81.17
79.41
77.69
76.47
76.07
76.56
77.8
79.55
81.58
83.75
85.9
87.76
88.89
88.81
87.23
84.16
79.96
75.11
70.02
64.88
59.75
54.6
49.49
44.49
39.67
35.01
30.46
26.02
21.83
18.11
15.03
12.48
10.0
6.87
2.48
-3.37
-10.24
-17.31
-23.65
-28.87
-33.14
-37.2
-41.91
-47.81
-54.96
-62.97
-71.25
-79.29
-86.77
-93.65
-100.11
-106.75
-114.46
-124.26
-136.74
-151.47
-166.56
-178.99
-185.28
-182.56
-169.55
-146.81
-116.54
-81.87
-46.17
-12.39
17.16
41.08
58.88
70.81
77.81
81.08
81.84
81.09
79.56
77.78
76.15
75.0
74.54
74.86
75.86
77.35
79.14
81.1
83.19
85.36
87.44
89.07
89.71
88.79
85.94
81.13
74.75
67.39
59.71
52.16
44.89
37.81
30.73
23.53
16.28
9.19
2.55
-3.41
-8.63
-13.3
-17.79
-22.52
-27.87
-33.99
-40.81
-48.07
-55.41
-62.51
-69.22
-75.57
-81.89
-88.82
-97.19
-107.7
-120.54
-134.92
-148.9
-159.61
-163.92
-159.33
-144.71
-120.74
-89.78
-55.26
-20.86
10.26
36.08
55.83
69.86
79.17
84.94
88.08
89.16
88.51
86.45
83.42
80.06
77.0
74.69
73.38
73.18
74.1
76.18
79.31
83.13
86.94
89.84
91.04
90.05
86.89
82.0
76.0
69.48
62.87
56.38
50.06
43.91
37.87
31.92
26.08
20.37
14.85
9.51
4.27
-1.02
-6.44
-11.97
-17.47
-22.72
-27.6
-32.24
-37.09
-42.65
-49.25
-56.83
-64.95
-72.89
-80.12
-86.44
-92.12
-97.88
-104.64
-113.36
-124.58
-138.05
-152.4
-165.12
-172.94
-172.68
-162.33
-141.7
-112.58
-78.23
-42.38
-8.36
21.44
45.72
64.11
76.94
85.05
89.57
91.77
92.7
93.02
92.91
92.27
90.96
89.0
86.65
84.35
82.53
81.51
81.48
82.45
84.23
86.37
88.24
89.12
88.38
85.72
81.26
75.48
69.04
62.5
56.18
50.11
44.19
38.31
32.51
26.87
21.48
16.32
11.2
5.96
0.49
-5.12
-10.64
-15.89
-20.83
-25.65
-30.68
-36.27
-42.61
-49.69
-57.32
-65.17
-72.84
-80.02
-86.5
-92.42
-98.27
-104.94
-113.44
-124.39
-137.47
-151.12
-162.58
-168.53
-166.06
-153.59
-131.43
-101.73
-67.86
-33.55
-1.99
24.67
45.56
60.77
71.06
77.45
80.85
82.01
81.51
79.83
77.48
74.94
72.61
70.73
69.37
68.6
68.48
69.19
70.82
73.26
75.99
78.2
79.07
78.0
74.91
70.15
64.33
58.0
51.48
44.81
37.88
30.56
22.9
15.1
7.49
0.4
-5.94
-11.55
-16.71
-21.93
-27.68
-34.27
-41.61
-49.32
-56.85
-63.78
-70.03
-75.92
-82.11
-89.45
-98.69
-110.19
-123.5
-137.17
-148.74
-155.17
-153.71
-142.8
-122.62
-95.15
-63.59
-31.4
-1.47
24.34
45.24
61.24
72.78
80.51
85.14
87.37
87.81
87.02
85.4
83.33
81.14
79.1
77.48
76.42
75.98
76.13
76.83
77.99
79.41
80.73
81.38
80.75
78.35
74.05
68.11
61.16
53.92
46.96
40.56
34.71
29.18
23.73
18.22
12.55
6.76
0.88
-4.96
-10.64
-15.94
-20.75
-25.06
-29.12
-33.38
-38.27
-44.09
-50.79
-58.01
-65.32
-72.32
-78.85
-85.04
-91.24
-97.96
-105.88
-115.61
-127.39
-140.63
-153.65
-163.71
-167.68
-162.94
-148.34
-124.61
-94.25
-60.71
-27.51
2.58
27.82
47.55
61.9
71.56
77.53
80.92
82.76
83.76
84.23
84.19
83.5
82.13
80.29
78.39
76.92
76.24
76.47
77.44
78.79
80.04
80.73
80.52
79.18
76.62
72.89
68.1
62.43
56.16
49.61
43.18
37.21
31.88
27.09
22.57
17.95
12.97
7.65
2.25
-2.87
-7.45
-11.52
-15.42
-19.64
-24.61
-30.56
-37.36
-44.68
-52.15
-59.48
-66.57
-73.53
-80.62
-88.22
-96.87
-107.08
-119.1
-132.5
-145.85
-156.67
-161.98
-159.12
-146.73
-125.31
-97.13
-65.55
-34.01
-5.26
19.15
38.71
53.63
64.42
71.66
75.86
77.51
77.2
75.54
73.2
70.8
68.8
67.44
66.78
66.75
67.33
68.55
70.41
72.75
75.09
76.7
76.78
74.77
70.6
64.7
57.82
50.76
44.01
37.69
31.61
25.42
18.8
11.67
4.15
-3.41
-10.59
-17.04
-22.66
-27.64
-32.42
-37.51
-43.25
-49.68
-56.5
-63.32
-69.83
-76.05
-82.3
-89.18
-97.36
-107.39
-119.37
-132.66
-145.69
-156.02
-160.8
-157.61
-145.19
-124.08
-96.45
-65.55
-34.72
-6.56
17.42
36.89
52.2
64.01
72.92
79.37
83.65
85.98
86.71
86.23
85.05
83.65
82.41
81.59
81.28
81.51
82.22
83.28
84.46
85.42
85.71
84.93
82.78
79.21
74.46
68.95
63.17
57.58
52.44
47.76
43.3
38.79
34.02
28.98
23.93
19.18
14.94
11.16
7.58
3.79
-0.49
-5.29
-10.43
-15.61
-20.59
-25.33
-29.96
-34.73
-39.93
-45.85
-52.58
-60.02
-67.84
-75.57
-82.79
-89.38
-95.7
-102.57
-111.01
-121.79
-134.81
-148.75
-161.11
-168.68
-168.47
-158.62
-139.05
-111.55
-79.24
-45.77
-14.44
12.52
34.12
50.45
62.32
70.73
76.56
80.4
82.59
83.36
83.01
81.92
80.48
79.02
77.75
76.79
76.32
76.5
77.49
79.26
81.41
83.28
84.15
83.45
80.95
76.81
71.4
65.25
58.83
52.52
46.54
40.91
35.44
29.82
23.71
17.01
9.92
2.89
-3.52
-8.97
-13.45
-17.32
-21.18
-25.56
-30.82
-36.96
-43.71
-50.63
-57.31
-63.46
-69.07
-74.46
-80.22
-87.2
-96.17
-107.49
-120.64
-133.99
-144.91
-150.32
-147.65
-135.6
-114.72
-87.22
-56.39
-25.61
2.38
25.84
44.15
57.43
66.3
71.52
73.92
74.27
73.26
71.51
69.53
67.75
66.44
65.73
65.57
65.87
66.53
67.58
69.09
71.09
73.4
75.53
76.8
76.51
74.17
69.72
63.49
56.14
48.46
41.18
34.73
29.19
24.23
19.39
14.16
8.36
2.09
-4.22
-10.14
-15.39
-20.02
-24.38
-28.95
-34.13
-40.13
-46.89
-54.15
-61.5
-68.52
-74.85
-80.44
-85.64
-91.23
-98.17
-107.28
-118.63
-131.21
-142.91
-150.91
-152.47
-145.74
-130.34
-107.5
-79.63
-49.74
-20.65
5.5
27.45
44.8
57.76
66.88
72.92
76.62
78.6
79.37
79.25
78.54
77.44
76.21
75.12
74.46
74.37
74.95
76.15
77.78
79.61
81.27
82.39
82.64
81.76
79.62
76.27
71.9
66.8
61.3
55.72
50.24
44.94
39.73
34.45
29.05
23.6
18.39
13.68
9.58
5.92
2.3
-1.67
-6.16
-11.02
-15.86
-20.36
-24.44
-28.42
-32.78
-37.96
-44.15
-51.15
-58.57
-65.93
-72.92
-79.43
-85.67
-92.05
-99.16
-107.62
-117.9
-129.9
-142.63
-154.08
-161.54
-162.26
-154.32
-137.3
-112.55
-82.79
-51.39
-21.47
4.7
26.02
42.4
54.45
63.0
68.81
72.4
74.09
74.13
72.93
71.02
69.06
67.51
66.64
66.47
66.87
67.79
69.19
71.0
73.03
74.87
75.95
75.76
73.95
70.46
65.48
59.43
52.82
46.16
39.82
33.94
28.38
22.83
16.93
10.51
3.71
-3.04
-9.22
-14.45
-18.67
-22.19
-25.58
-29.42
-34.15
-39.88
-46.5
-53.65
-60.94
-67.95
-74.41
-80.28
-85.87
-91.83
-99.08
-108.4
-120.04
-133.23
-146.12
-156.03
-160.12
-156.2
-143.36
-122.27
-95.06
-64.73
-34.45
-6.84
16.42
34.77
48.5
58.43
65.4
70.07
72.88
74.19
74.39
73.98
73.4
72.94
72.65
72.48
72.47
72.8
73.79
75.63
78.2
80.99
83.28
84.4
83.98
82.01
78.72
74.49
69.67
64.53
59.27
54.04
48.9
43.82
38.73
33.55
28.34
23.2
18.28
13.63
9.18
4.79
0.28
-4.39
-9.1
-13.67
-17.93
-21.85
-25.58
-29.44
-33.82
-39.09
-45.42
-52.75
-60.77
-69.0
-76.92
-84.2
-90.88
-97.44
-104.78
-113.89
-125.42
-139.13
-153.66
-166.48
-174.44
-174.63
-165.2
-145.99
-118.61
-86.07
-51.91
-19.44
8.97
32.11
49.83
62.7
71.57
77.29
80.62
82.18
82.56
82.18
81.34
80.16
78.71
77.1
75.67
74.89
75.18
76.7
79.2
82.08
84.65
86.33
86.84
86.17
84.37
81.58
77.84
73.19
67.74
61.67
55.27
48.85
42.68
36.9
31.53
26.42
21.39
16.24
10.88
5.42
0.11
-4.76
-9.06
-12.96
-16.89
-21.43
-27.02
-33.81
-41.56
-49.8
-58.05
-66.0
-73.58
-81.01
-88.66
-97.09
-106.88
-118.48
-131.79
-145.72
-158.11
-166.04
-166.59
-157.81
-139.4
-112.88
-81.08
-47.45
-15.14
13.51
37.18
55.42
68.52
77.16
82.16
84.31
84.25
82.44
79.45
75.88
72.47
69.9
68.63
68.75
70.07
72.25
74.98
77.97
80.86
83.2
84.41
84.02
81.81
77.96
72.96
67.42
61.77
56.19
50.61
44.89
38.95
32.86
26.82
21.09
15.86
11.14
6.81
2.58
-1.82
-6.56
-11.59
-16.68
-21.52
-26.0
-30.25
-34.67
-39.78
-45.9
-52.98
-60.63
-68.3
-75.53
-82.25
-88.76
-95.63
-103.59
-113.26
-125.0
-138.54
-152.77
-165.52
-173.85
-174.7
-165.85
-146.81
-119.05
-85.72
-50.67
-17.37
11.79
35.71
54.31
68.1
77.75
83.97
87.4
88.65
88.32
86.96
85.07
83.14
81.6
80.8
80.92
82.01
83.9
86.37
89.17
91.96
94.38
95.92
96.07
94.43
90.97
86.02
80.26
74.44
69.1
64.39
60.09
55.77
51.07
45.82
40.12
34.32
28.79
23.82
19.57
15.93
12.59
9.1
5.03
0.14
-5.55
-11.67
-17.69
-23.14
-27.88
-32.15
-36.5
-41.52
-47.6
-54.72
-62.51
-70.38
-77.84
-84.62
-90.81
-96.83
-103.39
-111.37
-121.55
-134.17
-148.4
-162.12
-172.17
-175.07
-168.22
-150.77
-123.96
-90.78
-55.08
-20.5
10.16
35.35
54.63
68.42
77.63
83.33
86.46
87.71
87.45
85.98
83.62
80.84
78.21
76.23
75.23
75.29
76.33
78.25
80.83
83.75
86.48
88.33
88.6
86.91
83.21
77.86
71.41
64.4
57.26
50.26
43.51
37.06
30.92
25.05
19.35
13.75
8.16
2.58
-2.91
-8.22
-13.26
-18.0
-22.56
-27.12
-32.01
-37.51
-43.82
-50.96
-58.66
-66.47
-73.92
-80.7
-86.93
-93.14
-100.29
-109.31
-120.8
-134.49
-149.02
-162.02
-170.54
-171.73
-163.68
-145.97
-119.81
-87.83
-53.38
-19.84
10.1
34.82
53.78
67.29
76.12
81.19
83.32
83.27
81.74
79.37
76.76
74.39
72.58
71.55
71.44
72.35
74.28
77.08
80.37
83.62
86.23
87.66
87.55
85.75
82.31
77.48
71.62
65.2
58.68
52.36
46.33
40.5
34.7
28.85
23.08
17.63
12.69
8.28
4.19
0.04
-4.48
-9.45
-14.71
-19.99
-25.06
-29.94
-34.88
-40.27
-46.48
-53.66
-61.71
-70.29
-78.93
-87.24
-95.03
-102.48
-110.1
-118.71
-129.17
-141.9
-156.5
-171.37
-183.88
-190.82
-189.27
-177.44
-155.29
-124.61
-88.6
-51.06
-15.56
15.25
39.92
58.2
70.72
78.59
83.06
85.21
85.85
85.5
84.44
82.8
80.69
78.31
75.99
74.23
73.6
74.5
77.07
81.04
85.77
90.39
94.02
95.92
95.6
92.95
88.25
82.14
75.5
69.21
63.82
59.39
55.49
51.5
46.94
41.77
36.37
31.27
26.9
23.23
19.91
16.44
12.44
7.86
2.93
-2.0
-6.7
-11.2
-15.81
-21.0
-27.19
-34.58
-43.01
-52.09
-61.22
-69.88
-77.75
-84.91
-91.85
-99.43
-108.65
-120.27
-134.34
-149.79
-164.37
-174.97
-178.35
-172.04
-155.14
-128.69
-95.35
-58.82
-22.86
9.4
36.04
56.39
70.76
80.11
85.54
88.05
88.33
86.99
84.51
81.46
78.4
75.8
73.95
72.99
72.93
73.72
75.3
77.54
80.19
82.79
84.71
85.25
83.82
80.14
74.31
66.87
58.64
50.51
43.19
37.01
31.77
26.86
21.56
15.37
8.28
0.77
-6.44
-12.7
-17.8
-22.04
-26.04
-30.54
-36.07
-42.79
-50.54
-58.89
-67.38
-75.56
-83.18
-90.31
-97.38
-105.19
-114.7
-126.61
-140.82
-156.04
-169.78
-178.76
-179.75
-170.5
-150.47
-121.13
-85.54
-47.68
-11.44
20.27
45.85
65.07
78.67
87.8
93.53
96.68
97.8
97.32
95.74
93.59
91.38
89.47
88.05
87.17
86.87
87.27
88.49
90.51
93.02
95.4
96.84
96.61
94.27
89.84
83.73
76.55
68.95
61.36
53.97
46.82
39.83
33.01
26.44
20.24
14.54
9.27
4.18
-1.08
-6.86
-13.26
-20.09
-26.93
-33.37
-39.26
-44.81
-50.57
-57.15
-64.87
-73.6
-82.77
-91.65
-99.63
-106.48
-112.49
-118.32
-124.9
-133.16
-143.76
-156.64
-170.67
-183.53
-191.99
-192.74
-183.31
-163.01
-133.19
-96.88
-57.9
-20.02
13.83
41.89
63.53
79.07
89.49
96.06
100.02
102.34
103.58
104.03
103.9
103.42
102.91
102.66
102.84
103.5
104.59
106.09
107.94
110.0
111.91
113.11
112.99
111.07
107.16
101.39
94.18
86.11
77.75
69.49
61.54
53.82
46.06
37.92
29.28
20.27
11.38
3.24
-3.73
-9.5
-14.6
-19.84
-25.98
-33.41
-41.96
-51.09
-60.08
-68.39
-75.85
-82.7
-89.52
-97.09
-106.23
-117.56
-131.09
-145.79
-159.47
-169.01
-171.2
-163.66
-145.77
-118.92
-86.08
-51.0
-17.21
12.67
37.2
55.96
69.3
78.0
82.97
85.16
85.35
84.17
82.06
79.4
76.57
73.98
72.02
70.94
70.8
71.47
72.75
74.37
76.11
77.72
78.81
78.89
77.44
74.12
69.0
62.57
55.62
48.93
42.94
37.57
32.39
26.83
20.52
13.47
6.04
-1.14
-7.49
-12.7
-16.88
-20.52
-24.37
-29.21
-35.58
-43.6
-52.95
-62.98
-72.91
-82.08
-90.25
-97.6
-104.8
-112.79
-122.54
-134.62
-148.73
-163.38
-175.88
-182.88
-181.31
-169.37
-147.21
-116.99
-82.24
-46.79
-13.84
14.66
37.93
56.02
69.42
78.71
84.56
87.7
88.93
89.02
88.56
87.97
87.45
87.13
87.08
87.4
88.21
89.62
91.72
94.46
97.68
101.03
103.95
105.79
105.94
104.01
99.92
93.93
86.5
78.13
69.26
60.19
51.2
42.55
34.5
27.22
20.76
14.91
9.28
3.47
-2.76
-9.4
-16.21
-22.92
-29.4
-35.77
-42.3
-49.28
-56.9
-65.17
-73.96
-83.04
-92.14
-101.0
-109.39
-117.23
-124.71
-132.37
-141.06
-151.61
-164.34
-178.5
-192.02
-201.84
-204.61
-197.79
-180.43
-153.58
-119.9
-82.94
-46.2
-12.32
17.12
41.6
61.23
76.39
87.56
95.22
99.91
102.33
103.22
103.26
102.92
102.37
101.58
100.49
99.23
98.11
97.47
97.45
97.84
98.1
97.56
95.66
92.2
87.36
81.54
75.25
68.85
62.48
56.1
49.61
43.01
36.41
30.04
24.13
18.71
13.58
8.34
2.56
-4.0
-11.24
-18.75
-25.99
-32.58
-38.45
-43.87
-49.28
-55.11
-61.54
-68.46
-75.58
-82.59
-89.28
-95.73
-102.36
-109.9
-119.19
-130.78
-144.37
-158.4
-170.13
-176.22
-173.78
-161.36
-139.47
-110.38
-77.37
-43.73
-12.12
15.74
39.0
57.4
71.15
80.74
86.87
90.29
91.78
91.92
91.24
90.22
89.26
88.66
88.58
88.98
89.8
90.99
92.61
94.63
96.83
98.71
99.54
98.7
95.86
91.13
85.02
78.11
70.92
63.8
56.94
50.42
44.27
38.39
32.55
26.42
19.83
12.86
5.89
-0.57
-6.15
-10.87
-15.11
-19.5
-24.65
-30.88
-38.16
-46.24
-54.67
-63.02
-70.91
-78.15
-84.82
-91.38
-98.64
-107.53
-118.66
-131.81
-145.53
-157.27
-163.89
-162.57
-151.68
-131.37
-103.49
-71.13
-37.77
-6.56
20.29
41.64
57.42
68.32
75.43
79.87
82.5
83.86
84.2
83.73
82.71
81.52
80.54
80.06
80.25
81.16
82.76
84.94
87.45
89.83
91.56
92.1
91.12
88.51
84.37
78.88
72.33
65.05
57.42
49.91
42.91
36.67
31.13
26.0
20.85
15.32
9.3
2.9
-3.52
-9.54
-14.89
-19.51
-23.7
-27.97
-32.93
-39.09
-46.62
-55.24
-64.31
-73.09
-80.95
-87.68
-93.62
-99.51
-106.34
-115.05
-126.18
-139.58
-154.13
-167.63
-177.12
-179.47
-172.33
-154.87
-128.25
-95.36
-60.02
-26.03
3.8
27.92
46.09
58.98
67.71
73.43
77.14
79.53
80.96
81.64
81.66
81.13
80.24
79.11
77.86
76.65
75.63
75.13
75.51
77.0
79.44
82.11
83.88
83.53
80.3
74.15
65.78
56.32
46.81
37.81
29.38
21.2
12.94
4.53
-3.86
-11.89
-19.2
-25.61
-31.1
-35.75
-39.76
-43.41
-47.07
-51.17
-56.09
-61.97
-68.64
-75.62
-82.33
-88.32
-93.56
-98.47
-103.96
-111.07
-120.58
-132.53
-145.78
-158.01
-166.11
-166.96
-158.4
-139.9
-112.78
-79.84
-44.57
-10.31
20.39
46.01
65.97
80.44
90.06
95.77
98.59
99.48
99.23
98.29
96.91
95.17
93.12
90.93
88.85
87.23
86.39
86.49
87.52
89.21
91.1
92.59
92.98
91.63
88.15
82.51
75.16
66.86
58.47
50.61
43.52
36.99
30.64
24.07
17.12
9.91
2.77
-3.92
-9.92
-15.25
-20.18
-25.23
-30.95
-37.75
-45.72
-54.48
-63.38
-71.73
-79.12
-85.7
-92.23
-99.78
-109.37
-121.44
-135.46
-149.77
-161.79
-168.51
-167.2
-156.21
-135.49
-106.68
-72.77
-37.39
-3.92
25.18
48.71
66.55
79.34
88.05
93.56
96.66
97.99
98.07
97.31
96.0
94.3
92.26
89.98
87.69
85.73
84.47
84.12
84.65
85.8
87.14
88.17
88.35
87.24
84.56
80.25
74.53
67.82
60.65
53.48
46.56
40.0
33.81
27.97
22.51
17.39
12.52
7.72
2.81
-2.31
-7.54
-12.7
-17.61
-22.13
-26.36
-30.51
-34.9
-39.84
-45.55
-52.11
-59.45
-67.3
-75.29
-82.97
-89.96
-96.2
-102.06
-108.34
-116.05
-125.87
-137.61
-149.87
-160.11
-165.26
-162.6
-150.63
-129.58
-101.36
-68.98
-35.77
-4.56
22.76
45.32
63.1
76.57
86.42
93.35
97.97
100.86
102.49
103.25
103.41
103.14
102.63
102.13
101.98
102.59
104.17
106.65
109.59
112.27
113.93
113.96
112.04
