0
6.73
5.07
3.27
1.34
-0.66
-2.62
-4.39
-5.88
-7.05
-7.97
-8.88
-10.09
-11.89
-14.41
-17.5
-20.68
-23.28
-24.63
-24.28
-22.13
-18.46
-13.83
-8.88
-4.16
-0.02
3.42
6.19
8.38
10.07
11.28
12.01
12.27
12.19
11.93
11.67
11.54
11.61
11.87
12.28
12.78
13.33
13.87
14.35
14.72
14.91
14.87
14.58
14.0
13.16
12.14
11.03
9.94
8.92
7.97
6.98
5.82
4.37
2.64
0.74
-1.15
-2.9
-4.44
-5.88
-7.37
-9.06
-11.02
-13.21
-15.55
-17.86
-19.97
-21.61
-22.4
-21.97
-20.05
-16.68
-12.27
-7.49
-3.05
0.57
3.28
5.3
6.9
8.25
9.29
9.89
9.94
9.52
8.85
8.22
7.87
7.92
8.41
9.28
10.44
11.75
13.0
13.98
14.55
14.63
14.21
13.38
12.2
10.78
9.31
7.94
6.82
5.93
5.1
4.1
2.77
1.07
-0.87
-2.82
-4.63
-6.23
-7.7
-9.18
-10.82
-12.75
-15.05
-17.61
-20.11
-21.99
-22.64
-21.62
-18.91
-14.94
-10.46
-6.21
-2.64
0.18
2.46
4.42
6.19
7.64
8.62
8.99
8.85
8.42
8.02
7.85
7.99
8.33
8.66
8.83
8.78
8.58
8.33
8.13
7.93
7.64
7.12
6.31
5.24
4.06
2.86
1.7
0.5
-0.85
-2.38
-4.03
-5.63
-7.05
-8.3
-9.52
-10.96
-12.81
-15.0
-17.23
-19.07
-20.06
-19.92
-18.61
-16.28
-13.21
-9.69
-6.05
-2.54
0.59
3.19
5.15
6.44
7.05
7.06
6.56
5.75
4.92
4.34
4.19
4.51
5.11
5.71
6.07
6.09
5.84
5.47
5.08
4.64
4.05
3.17
2.0
0.67
-0.6
-1.66
-2.44
-3.06
-3.71
-4.58
-5.81
-7.47
-9.58
-12.08
-14.81
-17.49
-19.7
-21.0
-21.02
-19.61
-16.92
-13.32
-9.35
-5.5
-2.11
0.77
3.24
5.47
7.47
9.12
10.15
10.34
9.72
8.57
7.33
6.46
6.15
6.39
6.92
7.49
7.9
8.1
8.12
8.02
7.8
7.43
6.86
6.05
4.96
3.59
1.99
0.3
-1.31
-2.65
-3.69
-4.53
-5.36
-6.47
-8.02
-10.1
-12.61
-15.34
-17.95
-20.05
-21.21
-21.05
-19.4
-16.37
-12.39
-8.1
-4.08
-0.67
2.13
4.51
6.67
8.67
10.35
11.52
12.05
12.01
11.6
11.09
10.66
10.43
10.37
10.46
10.71
11.09
11.54
11.96
12.2
12.17
11.83
11.21
10.41
9.49
8.52
7.51
6.45
5.34
4.16
2.84
1.37
-0.26
-1.98
-3.68
-5.29
-6.77
-8.26
-9.93
-11.96
-14.4
-17.11
-19.75
-21.88
-23.03
-22.87
-21.3
-18.48
-14.75
-10.6
-6.46
-2.64
0.73
3.67
6.26
8.5
10.32
11.61
12.32
12.51
12.4
12.27
12.35
12.75
13.39
14.12
14.73
15.14
15.29
15.24
15.04
14.73
14.32
13.8
13.13
12.28
11.26
10.13
9.0
7.94
6.95
5.95
4.78
3.39
1.78
0.11
-1.43
-2.72
-3.78
-4.71
-5.66
-6.78
-8.12
-9.73
-11.62
-13.75
-16.02
-18.23
-19.99
-20.9
-20.62
-18.95
-16.03
-12.23
-8.11
-4.22
-1.0
1.47
3.33
4.91
6.47
8.09
9.58
10.69
11.25
11.31
11.13
10.99
11.07
11.35
11.7
11.94
12.08
12.19
12.41
12.78
13.22
13.53
13.54
13.12
12.29
11.13
9.79
8.39
7.07
5.89
4.87
3.96
3.07
2.13
1.09
-0.03
-1.22
-2.42
-3.61
-4.75
-5.79
-6.75
-7.67
-8.72
-10.08
-11.93
-14.26
-16.81
-19.12
-20.61
-20.85
-19.67
-17.22
-13.91
-10.26
-6.74
-3.63
-1.03
1.13
3.01
4.77
6.42
7.9
9.02
9.61
9.67
9.38
9.05
8.99
9.32
9.95
10.58
10.92
10.85
10.46
9.99
9.68
9.63
9.71
9.69
9.31
8.49
7.29
5.92
4.65
3.65
2.93
2.42
1.96
1.43
0.76
-0.05
-0.94
-1.84
-2.68
-3.44
-4.13
-4.83
-5.61
-6.58
-7.77
-9.22
-10.91
-12.75
-14.51
-15.89
-16.52
-16.14
-14.66
-12.29
-9.38
-6.35
-3.52
-1.02
1.12
2.9
4.32
5.34
5.93
6.12
5.97
5.59
5.13
4.78
4.7
4.99
5.61
6.41
7.16
7.7
7.97
8.07
8.1
8.12
8.05
7.74
7.03
5.86
4.3
2.51
0.74
-0.8
-1.93
-2.62
-2.96
-3.12
-3.28
-3.54
-3.87
-4.15
-4.29
-4.33
-4.45
-4.88
-5.79
-7.19
-8.93
-10.83
-12.66
-14.24
-15.34
-15.67
-14.98
-13.15
-10.31
-6.93
-3.58
-0.8
1.17
2.4
3.12
3.63
4.09
4.5
4.79
4.92
4.91
4.86
4.84
4.89
4.95
4.96
4.86
4.61
4.25
3.84
3.49
3.28
3.28
3.47
3.74
3.96
3.99
3.81
3.41
2.82
2.05
1.06
-0.14
-1.45
-2.69
-3.65
-4.26
-4.65
-5.1
-5.89
-7.17
-8.86
-10.7
-12.42
-13.74
-14.49
-14.5
-13.66
-11.94
-9.44
-6.47
-3.44
-0.78
1.23
2.59
3.46
4.07
4.59
5.03
5.31
5.28
4.89
4.22
3.43
2.76
2.37
2.35
2.65
3.12
3.61
3.98
4.21
4.34
4.43
4.49
4.44
4.2
3.68
2.96
2.2
1.57
1.18
0.95
0.66
0.1
-0.82
-2.01
-3.27
-4.39
-5.29
-6.02
-6.69
-7.43
-8.29
-9.23
-10.23
-11.21
-12.08
-12.65
-12.66
-11.87
-10.18
-7.73
-4.89
-2.08
0.3
2.09
3.32
4.14
4.71
5.1
5.29
5.2
4.77
4.05
3.16
2.29
1.66
1.41
1.55
1.94
2.4
2.79
3.07
3.26
3.41
3.51
3.44
3.07
2.43
1.64
1.02
0.81
1.03
1.45
1.69
1.41
0.54
-0.77
-2.17
-3.39
-4.28
-4.88
-5.32
-5.78
-6.36
-7.13
-8.13
-9.32
-10.56
-11.57
-12.01
-11.58
-10.15
-7.82
-4.93
-1.94
0.71
2.76
4.1
4.77
4.92
4.69
4.27
3.77
3.31
2.97
2.81
2.83
3.01
3.34
3.78
4.3
4.83
5.34
5.76
6.05
6.13
5.96
5.44
4.49
3.16
1.58
0.05
-1.16
-1.88
-2.17
-2.27
-2.51
-3.18
-4.45
-6.33
-8.69
-11.3
-13.85
-15.98
-17.43
-18.12
-18.22
-18.09
-18.05
-18.26
-18.58
-18.66
-18.12
-16.78
-14.69
-12.07
-9.14
-6.05
-2.87
0.39
3.58
6.45
8.65
9.86
9.92
8.93
7.21
5.2
3.36
2.03
1.31
1.21
1.58
2.28
3.12
3.96
4.62
4.96
4.87
4.37
3.57
2.64
1.77
1.07
0.61
0.37
0.29
0.29
0.24
0.05
-0.41
-1.21
-2.33
-3.66
-5.0
-6.16
-6.95
-7.27
-7.01
-6.12
-4.6
-2.57
-0.22
2.14
4.21
5.8
6.83
7.38
7.58
7.54
7.33
6.96
6.5
6.03
5.64
5.38
5.21
5.0
4.68
4.23
3.7
3.22
2.83
2.48
2.06
1.44
0.49
-0.8
-2.46
-4.42
-6.59
-8.79
-10.83
-12.5
-13.74
-14.61
-15.31
-16.05
-16.95
-18.0
-19.06
-19.91
-20.27
-19.92
-18.63
-16.3
-12.95
-8.8
-4.29
0.04
3.72
6.42
8.06
8.74
8.67
8.09
7.22
6.23
5.29
4.53
4.02
3.76
3.7
3.75
3.84
3.92
3.97
4.0
3.97
3.91
3.76
3.55
3.22
2.72
1.92
0.8
-0.55
-1.95
-3.05
-3.67
-3.8
-3.7
-3.75
-4.28
-5.45
-7.13
-9.05
-10.86
-12.2
-12.81
-12.49
-11.15
-8.89
-6.04
-2.99
-0.18
2.14
3.87
5.09
5.9
6.36
6.51
6.37
6.04
5.64
5.25
4.9
4.55
4.2
3.92
3.82
3.96
4.28
4.57
4.63
4.36
3.81
3.12
2.43
1.67
0.73
-0.54
-2.13
-3.83
-5.3
-6.27
-6.66
-6.61
-6.41
-6.37
-6.67
-7.36
-8.36
-9.47
-10.38
-10.74
-10.25
-8.78
-6.46
-3.66
-0.88
1.44
3.09
4.07
4.55
4.75
4.78
4.66
4.38
3.97
3.52
3.16
3.0
3.06
3.26
3.45
3.51
3.38
3.08
2.72
2.43
2.3
2.35
2.48
2.52
2.31
1.72
0.85
-0.11
-0.96
-1.55
-1.95
-2.35
-2.99
-3.99
-5.36
-6.93
-8.52
-9.92
-10.92
-11.27
-10.78
-9.31
-6.9
-3.84
-0.56
2.5
4.93
6.53
7.23
7.12
6.39
5.29
4.07
2.94
1.99
1.14
0.28
-0.67
-1.68
-2.57
-3.17
-3.4
-3.31
-3.05
-2.75
-2.46
-2.14
-1.8
-1.5
-1.41
-1.65
-2.16
-2.71
-2.98
-2.73
-1.97
-0.97
-0.17
0.05
-0.52
-1.85
-3.7
-5.74
-7.59
-8.89
-9.37
-8.89
-7.49
-5.39
-2.9
-0.3
2.16
4.37
6.23
7.67
8.62
9.07
9.08
8.79
8.3
7.67
6.92
6.04
5.11
4.26
3.65
3.36
3.39
3.59
3.8
3.85
3.67
3.24
2.63
1.95
1.33
0.93
0.83
0.98
1.25
1.49
1.57
1.54
1.48
1.48
1.5
1.38
0.93
0.04
-1.26
-2.81
-4.41
-5.96
-7.43
-8.78
-9.86
-10.43
-10.25
-9.25
-7.61
-5.7
-3.92
-2.48
-1.35
-0.35
0.74
1.99
3.33
4.52
5.37
5.84
6.0
6.08
6.29
6.79
7.65
8.83
10.2
11.56
12.69
13.46
13.83
13.86
13.68
13.38
12.97
12.4
11.64
10.76
9.92
9.27
8.88
8.7
8.48
8.03
7.22
6.14
5.01
4.06
3.44
3.08
2.73
2.07
0.8
-1.26
-4.11
-7.5
-11.0
-14.02
-15.97
-16.42
-15.2
-12.48
-8.8
-4.88
-1.44
1.02
2.41
3.0
3.32
3.87
4.94
6.51
8.29
9.99
11.37
12.43
13.27
14.04
14.83
15.62
16.35
17.0
17.62
18.3
19.11
20.04
20.92
21.55
21.71
21.26
20.19
18.57
16.55
14.29
11.91
9.54
7.27
5.11
3.05
1.0
-1.1
-3.28
-5.54
-7.78
-9.96
-12.04
-14.03
-15.97
-17.9
-19.85
-21.8
-23.69
-25.39
-26.68
-27.37
-27.26
-26.35
-24.76
-22.74
-20.61
-18.57
-16.75
-15.18
-13.82
-12.65
-11.63
-10.77
-10.02
-9.31
-8.55
-7.65
-6.53
-5.13
-3.46
-1.57
0.4
2.28
3.88
5.17
6.26
7.37
8.66
10.12
11.56
12.72
13.46
13.87
14.18
14.68
15.45
16.33
17.05
17.4
17.32
17.0
16.67
16.53
16.62
16.88
17.17
17.36
17.36
17.05
16.28
14.87
12.73
9.89
6.62
3.29
0.39
-1.76
-3.01
-3.45
-3.38
-3.13
-2.96
-2.99
-3.22
-3.53
-3.85
-4.17
-4.56
-5.1
-5.83
-6.73
-7.71
-8.71
-9.73
-10.85
-12.16
-13.64
-15.11
-16.26
-16.79
-16.5
-15.44
-13.85
-12.07
-10.45
-9.2
-8.35
-7.78
-7.23
-6.4
-5.11
-3.35
-1.27
0.86
2.78
4.35
5.53
6.39
6.99
7.39
7.69
8.01
8.42
8.87
9.08
8.61
7.07
4.4
0.98
-2.49
-5.24
-6.78
-7.11
-6.61
-5.84
-5.22
-4.9
-4.79
-4.74
-4.65
-4.54
-4.46
-4.43
-4.37
-4.11
-3.51
-2.46
-1.06
0.47
1.81
2.67
2.91
2.57
1.89
1.14
0.49
-0.02
-0.48
-1.01
-1.62
-2.19
-2.55
-2.57
-2.29
-1.9
-1.64
-1.65
-1.96
-2.45
-2.94
-3.3
-3.51
-3.6
-3.67
-3.76
-3.84
-3.87
-3.79
-3.62
-3.49
-3.59
-4.14
-5.2
-6.75
-8.55
-10.27
-11.59
-12.25
-12.17
-11.39
-10.04
-8.24
-6.09
-3.63
-0.97
1.76
4.27
6.27
7.53
8.03
7.96
7.63
7.31
7.12
7.03
6.96
6.91
6.98
7.29
7.83
8.46
8.92
9.05
8.85
8.49
8.19
8.04
7.99
7.86
7.48
6.8
5.91
4.97
4.1
3.41
2.91
2.57
2.32
2.09
1.77
1.36
0.88
0.4
-0.02
-0.38
-0.77
-1.29
-2.02
-3.01
-4.18
-5.41
-6.51
-7.23
-7.32
-6.56
-4.95
-2.63
-0.0
2.49
4.47
5.78
6.47
6.69
6.62
6.3
5.73
4.9
3.85
2.79
1.92
1.45
1.44
1.8
2.32
2.8
3.12
3.27
3.3
3.33
3.38
3.46
3.46
3.28
2.81
2.02
0.98
-0.08
-0.96
-1.47
-1.62
-1.59
-1.67
-2.08
-2.84
-3.82
-4.76
-5.47
-5.95
-6.33
-6.79
-7.42
-8.14
-8.91
-9.66
-10.43
-11.21
-11.93
-12.32
-12.04
-10.83
-8.65
-5.77
-2.67
0.12
2.27
3.72
4.6
5.16
5.57
5.85
5.87
5.53
4.84
4.01
3.31
2.97
3.07
3.44
3.81
3.95
3.8
3.47
3.15
2.97
2.97
3.04
3.06
2.9
2.52
1.95
1.22
0.46
-0.3
-0.97
-1.62
-2.28
-2.99
-3.74
-4.43
-4.95
-5.24
-5.37
-5.47
-5.74
-6.29
-7.11
-8.15
-9.31
-10.52
-11.7
-12.66
-13.13
-12.81
-11.49
-9.23
-6.35
-3.4
-0.85
1.0
2.1
2.62
2.81
2.84
2.82
2.77
2.69
2.62
2.64
2.82
3.22
3.81
4.5
5.1
5.42
5.39
5.09
4.69
4.42
4.39
4.46
4.39
3.91
2.99
1.86
0.93
0.48
0.53
0.75
0.73
0.18
-0.87
-2.1
-3.15
-3.81
-4.2
-4.6
-5.29
-6.42
-7.92
-9.6
-11.2
-12.54
-13.41
-13.62
-13.01
-11.49
-9.19
-6.39
-3.49
-0.87
1.23
2.78
3.86
4.64
5.24
5.72
6.1
6.32
6.31
6.0
5.44
4.73
4.02
3.52
3.32
3.45
3.83
4.29
4.63
4.67
4.28
3.46
2.35
1.14
0.08
-0.66
-1.04
-1.12
-1.05
-0.94
-0.86
-0.83
-0.92
-1.18
-1.66
-2.4
-3.37
-4.49
-5.71
-7.02
-8.42
-9.85
-11.13
-11.95
-11.99
-11.11
-9.37
-7.07
-4.55
-2.07
0.22
2.29
4.16
5.75
6.94
7.61
7.7
7.26
6.49
5.58
4.79
4.3
4.21
4.52
5.09
5.69
6.09
6.13
5.81
5.28
4.76
4.36
4.14
4.04
3.97
3.85
3.62
3.22
2.59
1.67
0.49
-0.82
-2.12
-3.22
-4.08
-4.73
-5.27
-5.83
-6.48
-7.29
-8.34
-9.71
-11.34
-13.02
-14.35
-14.81
-14.04
-11.95
-8.83
-5.22
-1.78
1.02
2.96
4.12
4.81
5.32
5.82
6.3
6.66
6.77
6.65
6.42
6.33
6.52
7.01
7.64
8.19
8.51
8.58
8.46
8.29
8.09
7.79
7.28
6.48
5.4
4.19
3.02
2.05
1.33
0.81
0.33
-0.27
-1.12
-2.24
-3.51
-4.78
-5.89
-6.78
-7.55
-8.4
-9.54
-11.0
-12.58
-13.86
-14.38
-13.82
-12.17
-9.67
-6.73
-3.8
-1.18
0.98
2.67
3.92
4.78
5.32
5.61
5.73
5.77
5.79
5.87
6.03
6.29
6.63
6.93
7.07
6.89
6.4
5.71
5.03
4.56
4.38
4.34
4.23
3.81
3.01
1.92
0.74
-0.38
-1.36
-2.21
-3.0
-3.81
-4.68
-5.68
-6.89
-8.37
-10.12
-11.96
-13.6
-14.66
-14.83
-13.9
-11.87
-8.95
-5.5
-1.98
1.15
3.61
5.32
6.39
6.98
7.24
7.22
6.92
6.4
5.78
5.31
5.18
5.47
6.07
6.75
7.29
7.56
7.54
7.35
7.11
6.89
6.66
6.33
5.81
5.07
4.15
3.15
2.15
1.19
0.22
-0.83
-2.03
-3.39
-4.84
-6.25
-7.56
-8.79
-10.13
-11.76
-13.79
-16.08
-18.3
-19.88
-20.27
-19.17
-16.59
-12.89
-8.68
-4.57
-1.0
1.83
3.92
5.41
6.44
7.15
7.62
7.91
8.03
8.09
8.14
8.25
8.46
8.74
9.02
9.21
9.3
9.36
9.53
9.87
10.35
10.74
10.83
10.41
9.47
8.13
6.62
5.13
3.73
2.49
1.37
0.4
-0.46
-1.25
-2.08
-3.05
-4.17
-5.46
-6.95
-8.72
-10.89
-13.39
-15.87
-17.72
-18.28
-17.13
-14.39
-10.61
-6.59
-2.98
-0.11
2.01
3.53
4.56
5.16
5.31
5.09
4.72
4.45
4.53
5.05
5.96
7.08
8.24
9.24
9.93
10.26
10.18
9.75
9.12
8.42
7.81
7.33
6.9
6.36
5.5
4.19
2.47
0.53
-1.34
-2.83
-3.78
-4.2
-4.27
-4.25
-4.47
-5.19
-6.59
-8.65
-11.14
-13.55
-15.26
-15.68
-14.43
-11.61
-7.67
-3.33
0.74
4.06
6.5
8.1
9.06
9.53
9.6
9.37
8.91
8.37
7.87
7.53
7.39
7.46
7.71
8.04
8.41
8.76
9.03
9.2
9.26
9.22
9.01
8.64
8.02
7.12
5.94
4.47
2.78
0.99
-0.79
-2.43
-3.83
-4.94
-5.78
-6.47
-7.17
-8.1
-9.42
-11.19
-13.32
-15.5
-17.28
-18.16
-17.75
-15.95
-12.95
-9.21
-5.31
-1.73
1.23
3.51
5.24
6.68
7.94
9.07
9.99
10.56
10.72
10.49
10.04
9.57
9.22
9.0
8.88
8.73
8.56
8.43
8.45
8.65
8.88
8.92
8.54
7.66
6.4
4.99
3.67
2.57
1.7
0.95
0.27
-0.39
-1.0
-1.55
-2.09
-2.69
-3.49
-4.61
-6.17
-8.23
-10.76
-13.53
-16.12
-17.98
-18.57
-17.59
-15.1
-11.54
-7.51
-3.63
-0.35
2.2
4.08
5.47
6.55
7.45
8.16
8.66
8.9
8.91
8.75
8.46
8.18
7.97
7.88
7.97
8.24
8.65
9.11
9.47
9.59
9.38
8.87
8.1
7.18
6.21
5.2
4.2
3.23
2.33
1.53
0.82
0.08
-0.84
-2.03
-3.54
-5.29
-7.17
-9.1
-11.05
-13.02
-14.95
-16.63
-17.68
-17.65
-16.23
-13.44
-9.66
-5.58
-1.87
1.01
2.98
4.21
5.06
5.73
6.26
6.54
6.45
5.96
5.25
4.58
4.21
4.25
4.66
5.27
5.89
6.39
6.74
7.01
7.25
7.46
7.53
7.3
6.63
5.48
3.98
2.33
0.76
-0.58
-1.73
-2.77
-3.81
-4.95
-6.19
-7.52
-8.94
-10.43
-11.93
-13.24
-14.05
-14.02
-12.94
-10.85
-8.04
-4.94
-1.98
0.62
2.81
4.66
6.28
7.63
8.58
9.02
8.94
8.46
7.85
7.39
7.28
7.52
7.99
8.44
8.65
8.49
8.01
7.34
6.64
5.97
5.29
4.44
3.29
1.81
0.16
-1.47
-2.87
-3.92
-4.65
-5.13
-5.5
-5.87
-6.4
-7.33
-8.83
-10.92
-13.36
-15.66
-17.18
-17.42
-16.2
-13.67
-10.22
-6.39
-2.6
0.82
3.75
6.13
7.97
9.32
10.15
10.49
10.35
9.8
9.05
8.38
8.04
8.13
8.53
9.0
9.25
9.13
8.7
8.12
7.57
7.11
6.69
6.16
5.43
4.42
3.15
1.7
0.17
-1.29
-2.5
-3.36
-3.89
-4.27
-4.77
-5.63
-6.92
-8.57
-10.36
-12.07
-13.46
-14.34
-14.44
-13.55
-11.52
-8.46
-4.75
-0.94
2.39
4.89
6.53
7.54
8.17
8.58
8.77
8.61
8.07
7.25
6.39
5.76
5.53
5.62
5.81
5.87
5.67
5.25
4.79
4.46
4.34
4.36
4.32
4.02
3.28
2.12
0.67
-0.82
-2.11
-3.04
-3.62
-4.01
-4.45
-5.18
-6.31
-7.81
-9.48
-10.97
-11.9
-11.95
-10.91
-8.8
-5.84
-2.48
0.86
3.73
5.93
7.42
8.26
8.59
8.48
8.01
7.26
6.42
5.66
5.19
5.09
5.31
5.71
6.15
6.5
6.7
6.74
6.57
6.19
5.58
4.8
3.93
2.99
2.01
0.94
-0.24
-1.51
-2.78
-3.97
-5.07
-6.13
-7.28
-8.62
-10.16
-11.82
-13.42
-14.73
-15.46
-15.34
-14.15
-11.9
-8.78
-5.24
-1.79
1.19
3.53
5.35
6.84
8.1
9.13
9.79
10.0
9.81
9.4
8.96
8.63
8.45
8.35
8.27
8.12
7.9
7.64
7.38
7.17
7.07
7.04
6.98
6.74
6.18
5.26
4.06
2.73
1.46
0.31
-0.73
-1.74
-2.73
-3.67
-4.54
-5.38
-6.32
-7.52
-9.08
-10.9
-12.69
-14.02
-14.5
-13.88
-12.19
-9.67
-6.72
-3.75
-1.04
1.25
3.08
4.49
5.55
6.33
6.89
7.25
7.42
7.44
7.4
7.43
7.63
8.04
8.59
9.1
9.38
9.31
8.86
8.14
7.27
6.36
5.41
4.37
3.18
1.83
0.36
-1.08
-2.37
-3.41
-4.21
-4.9
-5.66
-6.65
-7.91
-9.33
-10.71
-11.83
-12.51
-12.61
-12.04
-10.73
-8.67
-5.96
-2.82
0.37
3.27
5.61
7.31
8.45
9.16
9.53
9.54
9.19
8.5
7.6
6.77
6.25
6.18
6.5
6.93
7.19
7.07
6.54
5.72
4.8
3.94
3.13
2.29
1.32
0.18
-1.02
-2.1
-2.88
-3.31
-3.54
-3.79
-4.3
-5.22
-6.56
-8.22
-10.06
-11.92
-13.57
-14.79
-15.21
-14.58
-12.77
-9.88
-6.31
-2.63
0.66
3.22
5.01
6.22
7.06
7.69
8.12
8.28
8.12
7.72
7.24
6.87
6.71
6.71
6.72
6.64
6.37
6.01
5.6
5.23
4.87
4.48
3.99
3.4
2.7
1.91
1.04
0.12
-0.8
-1.68
-2.5
-3.34
-4.32
-5.52
-6.95
-8.45
-9.76
-10.61
-10.82
-10.29
-9.03
-7.14
-4.79
-2.23
0.23
2.33
3.9
4.96
5.68
6.21
6.67
7.0
7.11
6.93
6.49
5.91
5.33
4.87
4.56
4.44
4.44
4.53
4.63
4.66
4.53
4.19
3.59
2.71
1.59
0.25
-1.23
-2.72
-4.09
-5.21
-6.03
-6.62
-7.05
-7.52
-8.14
-9.05
-10.29
-11.78
-13.28
-14.42
-14.78
-14.03
-12.13
-9.33
-6.09
-2.9
-0.14
2.04
3.64
4.79
5.56
6.0
6.17
6.07
5.77
5.32
4.83
4.39
4.09
4.0
4.08
4.27
4.41
4.39
4.14
3.66
3.0
2.26
1.52
0.86
0.32
-0.11
-0.48
-0.85
-1.32
-1.94
-2.75
-3.72
-4.79
-5.88
-6.99
-8.15
-9.42
-10.78
-12.13
-13.19
-13.63
-13.16
-11.69
-9.34
-6.4
-3.27
-0.3
2.26
4.28
5.74
6.71
7.28
7.61
7.82
7.96
8.0
7.87
7.54
7.04
6.54
6.24
6.24
6.49
6.81
6.96
6.8
6.31
5.59
4.72
3.71
2.5
1.09
-0.49
-2.06
-3.39
-4.32
-4.83
-5.02
-5.04
-5.09
-5.28
-5.69
-6.34
-7.21
-8.27
-9.46
-10.71
-11.93
-12.98
-13.63
-13.64
-12.8
-11.05
-8.5
-5.47
-2.35
0.53
2.97
4.9
6.35
7.32
7.76
7.66
7.08
6.19
5.31
4.7
4.5
4.65
4.95
5.17
5.15
4.84
4.29
3.59
2.79
1.95
1.12
0.29
-0.52
-1.33
-2.19
-3.13
-4.1
-5.01
-5.74
-6.17
-6.29
-6.19
-6.06
-6.13
-6.58
-7.51
-8.88
-10.46
-11.88
-12.75
-12.75
-11.78
-9.98
-7.63
-5.09
-2.6
-0.27
1.86
3.77
5.37
6.55
7.15
7.19
6.76
6.09
5.45
5.03
4.94
5.18
5.65
6.15
6.48
6.49
6.15
5.55
4.85
4.21
3.67
3.16
2.6
1.9
1.1
0.28
-0.46
-1.13
-1.77
-2.47
-3.27
-4.15
-5.08
-6.09
-7.24
-8.58
-10.08
-11.58
-12.82
-13.47
-13.31
-12.26
-10.37
-7.86
-5.02
-2.23
0.22
2.1
3.38
4.12
4.53
4.8
5.04
5.23
5.24
5.03
4.62
4.17
3.87
3.87
4.19
4.69
5.26
5.7
5.91
5.82
5.38
4.64
3.68
2.63
1.6
0.67
-0.19
-1.02
-1.87
-2.68
-3.37
-3.87
-4.21
-4.54
-5.04
-5.84
-6.91
-8.17
-9.51
-10.83
-12.05
-13.04
-13.55
-13.27
-12.0
-9.76
-6.83
-3.68
-0.78
1.57
3.32
4.6
5.58
6.34
6.88
7.15
7.12
6.84
6.42
6.01
5.75
5.73
5.93
6.28
6.61
6.82
6.79
6.5
5.98
5.28
4.42
3.42
2.34
1.29
0.42
-0.25
-0.78
-1.34
-2.07
-2.96
-3.84
-4.51
-4.92
-5.25
-5.86
-7.04
-8.86
-11.06
-13.2
-14.86
-15.81
-15.99
-15.38
-13.97
-11.71
-8.7
-5.21
-1.74
1.23
3.37
4.66
5.31
5.62
5.8
5.94
5.93
5.74
5.35
4.84
4.4
4.16
4.17
4.38
4.68
4.89
4.93
4.75
4.44
4.09
3.79
3.44
2.88
1.88
0.4
-1.37
-3.08
-4.34
-5.02
-5.2
-5.26
-5.55
-6.29
-7.51
-9.05
-10.73
-12.33
-13.61
-14.25
-13.96
-12.55
-10.11
-7.03
-3.81
-0.93
1.35
3.04
4.24
5.09
5.67
5.98
6.02
5.82
5.43
4.94
4.44
4.05
3.9
4.07
4.55
5.21
5.89
6.4
6.69
6.78
6.76
6.65
6.43
6.03
5.41
4.62
3.74
2.82
1.82
0.68
-0.62
-1.96
-3.13
-3.94
-4.33
-4.42
-4.49
-4.81
-5.57
-6.81
-8.43
-10.19
-11.77
-12.77
-12.89
-11.94
-10.04
-7.54
-4.94
-2.62
-0.7
0.92
2.42
3.87
5.13
5.95
6.14
5.76
5.06
4.35
3.92
3.85
4.12
4.65
5.4
6.33
7.37
8.31
8.95
9.09
8.71
7.91
6.87
5.77
4.7
3.72
2.76
1.83
0.88
-0.09
-1.08
-2.11
-3.11
-4.06
-4.9
-5.63
-6.33
-7.17
-8.28
-9.68
-11.24
-12.68
-13.68
-13.93
-13.25
-11.62
-9.24
-6.43
-3.6
-1.08
0.9
2.4
3.51
4.4
5.08
5.46
5.46
5.1
4.58
4.25
4.35
4.91
5.73
6.54
7.1
7.41
7.54
7.61
7.63
7.48
7.03
6.22
5.12
3.83
2.47
1.09
-0.27
-1.51
-2.57
-3.36
-3.89
-4.27
-4.72
-5.41
-6.49
-7.96
-9.78
-11.82
-13.88
-15.7
-16.91
-17.11
-16.0
-13.6
-10.22
-6.45
-2.96
-0.18
1.75
3.02
4.02
5.03
6.09
7.01
7.52
7.48
7.01
6.42
6.02
6.01
6.31
6.73
7.02
7.18
7.29
7.51
7.9
8.33
8.55
8.34
7.61
6.51
5.33
4.25
3.38
2.59
1.74
0.76
-0.27
-1.18
-1.81
-2.18
-2.52
-3.11
-4.21
-5.87
-8.04
-10.54
-13.18
-15.7
-17.79
-19.05
-19.08
-17.73
-15.12
-11.68
-7.99
-4.53
-1.57
0.9
3.0
4.84
6.39
7.53
8.18
8.36
8.31
8.26
8.47
8.97
9.63
10.25
10.62
10.69
10.51
10.25
10.02
9.87
9.71
9.39
8.8
7.93
6.95
6.05
5.35
4.83
4.32
3.59
2.51
1.13
-0.37
-1.74
-2.84
-3.71
-4.53
-5.54
-6.94
-8.82
-11.14
-13.77
-16.39
-18.59
-19.92
-19.98
-18.64
-16.02
-12.52
-8.64
-4.88
-1.57
1.12
3.15
4.59
5.51
6.01
6.15
5.97
5.48
4.74
3.9
3.23
3.0
3.37
4.24
5.32
6.25
6.8
6.96
6.96
7.04
7.28
7.51
7.47
6.93
5.85
4.4
2.83
1.36
0.08
-1.04
-2.02
-2.92
-3.75
-4.56
-5.46
-6.61
-8.12
-10.03
-12.18
-14.19
-15.61
-15.98
-15.04
-12.81
-9.61
-5.95
-2.38
0.7
3.1
4.81
5.98
6.73
7.16
7.32
7.25
7.03
6.79
6.64
6.69
6.99
7.5
8.16
8.86
9.48
9.89
10.05
9.99
9.77
9.47
9.06
8.48
7.59
6.28
4.57
2.62
0.66
-1.07
-2.45
-3.53
-4.44
-5.37
-6.44
-7.7
-9.19
-10.92
-12.93
-15.19
-17.59
-19.83
-21.5
-22.16
-21.52
-19.5
-16.33
-12.42
-8.31
-4.47
-1.25
1.24
3.1
4.52
5.71
6.81
7.78
8.51
8.87
8.88
8.67
8.46
8.45
8.71
9.21
9.85
10.54
11.19
11.72
11.99
11.86
11.23
10.14
8.75
7.27
5.87
4.6
3.41
2.19
0.87
-0.51
-1.85
-3.04
-4.06
-4.99
-6.02
-7.33
-9.04
-11.15
-13.52
-15.88
-17.93
-19.33
-19.77
-19.03
-17.04
-13.94
-10.09
-5.95
-2.03
1.31
3.92
5.85
7.26
8.33
9.13
9.67
9.91
9.89
9.74
9.64
9.78
10.21
10.88
11.6
12.2
12.59
12.75
12.71
12.48
12.04
11.29
10.23
8.94
7.54
6.18
4.94
3.79
2.64
1.43
0.16
-1.11
-2.33
-3.5
-4.68
-5.99
-7.53
-9.35
-11.44
-13.71
-15.96
-17.87
-19.01
-18.99
-17.56
-14.77
-10.95
-6.68
-2.51
1.17
4.21
6.63
8.6
10.17
11.35
12.04
12.18
11.82
11.15
10.5
10.25
10.65
11.77
13.46
15.36
17.05
18.12
18.31
17.55
15.94
13.75
11.28
8.88
6.84
5.29
4.24
3.53
2.94
2.25
1.32
0.19
-1.07
-2.36
-3.69
-5.09
-6.65
-8.38
-10.28
-12.32
-14.54
-16.93
-19.38
-21.57
-22.97
-23.01
-21.35
-18.06
-13.6
-8.66
-3.89
0.28
3.68
6.32
8.2
9.32
9.71
9.48
8.85
8.1
7.47
7.13
7.15
7.51
8.14
8.91
9.7
10.37
10.84
11.14
11.29
11.32
11.18
10.79
10.09
9.11
7.99
6.86
5.82
4.85
3.86
2.71
1.39
-0.05
-1.48
-2.82
-4.06
-5.32
-6.74
-8.49
-10.66
-13.22
-15.91
-18.33
-19.96
-20.31
-19.09
-16.31
-12.32
-7.7
-3.07
1.07
4.42
6.93
8.68
9.83
10.48
10.7
10.47
9.85
8.96
7.99
7.24
6.93
7.17
7.9
8.9
9.86
10.53
10.78
10.58
10.01
9.17
8.15
6.95
5.59
4.11
2.56
1.03
-0.36
-1.55
-2.5
-3.28
-4.0
-4.84
-5.94
-7.47
-9.46
-11.88
-14.53
-17.11
-19.16
-20.25
-20.07
-18.48
-15.65
-11.97
-7.95
-4.09
-0.76
1.91
3.94
5.48
6.67
7.6
8.28
8.73
8.94
8.98
8.97
9.01
9.17
9.46
9.85
10.33
10.88
11.48
12.09
12.62
12.93
12.9
12.48
11.71
10.59
9.2
7.49
5.46
3.15
0.75
-1.48
-3.29
-4.59
-5.48
-6.26
-7.23
-8.63
-10.47
-12.68
-15.04
-17.35
-19.36
-20.8
-21.35
-20.79
-19.01
-16.15
-12.55
-8.65
-4.89
-1.6
1.09
3.21
4.88
6.25
7.42
8.39
9.07
9.35
9.23
8.81
8.41
8.31
8.66
9.37
10.16
10.72
10.87
10.66
10.25
9.79
9.27
8.56
7.51
6.11
4.5
2.92
1.52
0.33
-0.72
-1.77
-2.89
-4.08
-5.33
-6.6
-7.89
-9.23
-10.69
-12.36
-14.32
-16.51
-18.68
-20.34
-20.84
-19.71
-16.79
-12.45
-7.42
-2.54
1.58
4.64
6.73
8.1
8.98
9.52
9.79
9.86
9.79
9.72
9.69
9.72
9.79
9.83
9.86
9.91
10.06
10.32
10.69
11.07
11.33
11.32
10.89
9.96
8.54
6.77
4.84
2.96
1.24
-0.27
-1.6
-2.81
-3.91
-4.88
-5.69
-6.42
-7.23
-8.33
-9.93
-12.12
-14.79
-17.66
-20.26
-22.08
-22.68
-21.8
-19.46
-15.95
-11.73
-7.32
-3.14
0.5
3.49
5.83
7.62
9.0
10.06
10.91
11.57
12.02
12.24
12.21
12.04
11.84
11.73
11.75
11.86
11.99
12.09
12.14
12.12
11.96
11.57
10.88
9.91
8.76
7.6
6.57
5.69
4.86
3.84
2.48
0.73
-1.35
-3.55
-5.68
-7.55
-9.11
-10.36
-11.5
-12.76
-14.39
-16.46
-18.78
-20.87
-22.1
-21.92
-20.09
-16.77
-12.44
-7.71
-3.14
0.92
4.3
6.93
8.81
9.98
10.55
10.66
10.45
10.07
9.66
9.33
9.16
9.19
9.46
9.86
10.29
10.57
10.63
10.41
9.93
9.22
8.28
7.19
6.06
5.03
4.18
3.47
2.74
1.81
0.64
-0.63
-1.76
-2.52
-2.89
-3.08
-3.43
-4.25
-5.64
-7.55
-9.77
-12.02
-14.0
-15.38
-15.84
-15.15
-13.35
-10.67
-7.55
-4.42
-1.54
1.02
3.32
5.39
7.18
8.56
9.41
9.72
9.62
9.3
8.95
8.7
8.61
8.66
8.81
8.98
9.13
9.25
9.39
9.56
9.72
9.71
9.32
8.42
7.07
5.55
4.22
3.32
2.86
2.64
2.37
1.86
1.02
-0.05
-1.28
-2.57
-3.92
-5.28
-6.64
-8.0
-9.44
-11.13
-13.18
-15.61
-18.19
-20.48
-21.99
-22.28
-21.18
-18.81
-15.49
-11.67
-7.78
-4.16
-1.02
1.54
3.5
4.89
5.77
6.22
6.37
6.36
6.36
6.5
6.83
7.36
7.98
8.57
9.04
9.39
9.64
9.85
10.05
10.18
10.16
9.94
9.49
8.84
8.04
7.16
6.26
5.37
4.49
3.61
2.71
1.76
0.77
-0.24
-1.26
-2.29
-3.38
-4.59
-6.01
-7.63
-9.46
-11.5
-13.76
-16.23
-18.72
-20.84
-22.0
-21.69
-19.68
-16.23
-11.98
-7.68
-3.92
-0.88
1.54
3.58
5.38
6.92
8.1
8.85
9.24
9.45
9.6
9.72
9.76
9.64
9.31
8.88
8.52
8.38
8.55
9.0
9.6
10.13
10.33
10.03
9.16
7.85
6.35
4.91
3.67
2.63
1.72
0.78
-0.23
-1.3
