0
-47.51
-50.97
-54.21
-57.65
-61.72
-66.76
-72.81
-79.47
-85.8
-90.5
-92.26
-90.04
-83.49
-73.05
-59.89
-45.54
-31.57
-19.14
-8.83
-0.62
5.9
11.23
15.76
19.67
22.99
25.72
27.9
29.65
31.09
32.3
33.37
34.42
35.56
36.94
38.63
40.55
42.54
44.34
45.69
46.37
46.2
45.09
43.07
40.3
37.06
33.7
30.44
27.38
24.46
21.6
18.69
15.7
12.67
9.57
6.43
3.28
0.19
-2.76
-5.52
-8.12
-10.76
-13.68
-17.13
-21.25
-26.01
-31.24
-36.66
-41.96
-46.92
-51.5
-55.88
-60.5
-65.8
-72.14
-79.49
-87.31
-94.56
-99.86
-101.73
-99.05
-91.37
-79.12
-63.56
-46.44
-29.52
-14.19
-1.19
9.33
17.67
24.25
29.47
33.65
36.98
39.67
41.89
43.82
45.61
47.37
49.12
50.85
52.48
54.0
55.44
56.84
58.25
59.57
60.62
61.13
60.88
59.78
57.9
55.44
52.57
49.47
46.21
42.82
39.33
35.8
32.32
29.03
26.15
23.82
22.06
20.68
19.25
17.26
14.31
10.29
5.46
0.3
-4.69
-9.2
-13.26
-17.17
-21.32
-26.05
-31.45
-37.41
-43.63
-49.8
-55.7
-61.23
-66.42
-71.46
-76.65
-82.46
-89.29
-97.21
-105.7
-113.4
-118.4
-118.7
-112.93
-100.87
-83.57
-63.03
-41.57
-21.25
-3.49
11.04
22.26
30.5
36.4
40.67
43.97
46.77
49.29
51.51
53.35
54.77
55.87
56.84
57.9
59.22
60.83
62.69
64.65
66.49
67.94
68.72
68.6
67.51
65.5
62.77
59.55
56.03
52.32
48.51
44.61
40.64
36.6
32.49
28.38
24.36
20.61
17.27
14.44
12.01
9.78
7.46
4.79
1.66
-1.94
-5.82
-9.81
-13.74
-17.57
-21.37
-25.34
-29.72
-34.66
-40.2
-46.19
-52.34
-58.34
-63.96
-69.18
-74.24
-79.65
-85.99
-93.7
-102.7
-112.17
-120.45
-125.38
-124.89
-117.66
-103.6
-83.92
-60.84
-36.89
-14.4
5.04
20.66
32.42
40.83
46.62
50.57
53.27
55.12
56.3
56.91
57.1
57.13
57.28
57.78
58.73
60.08
61.71
63.49
65.27
66.89
68.12
68.67
68.22
66.57
63.69
59.71
54.87
49.53
44.02
38.69
33.77
29.38
25.46
21.8
18.12
14.18
9.89
5.32
0.73
-3.65
-7.6
-11.12
-14.37
-17.68
-21.39
-25.79
-30.95
-36.68
-42.63
-48.41
-53.75
-58.61
-63.24
-68.14
-73.93
-81.12
-89.9
-99.84
-109.76
-117.78
-121.69
-119.51
-110.12
-93.72
-71.86
-47.06
-22.12
0.55
19.4
33.9
44.36
51.53
56.29
59.39
61.28
62.2
62.28
61.66
60.63
59.59
58.97
59.06
59.96
61.51
63.44
65.43
67.22
68.57
69.28
69.14
67.97
65.72
62.5
58.58
54.3
49.91
45.57
41.31
37.11
32.95
28.87
24.94
21.26
17.96
15.11
12.71
10.68
8.86
7.08
5.19
3.05
0.56
-2.41
-5.91
-9.89
-14.14
-18.38
-22.37
-26.07
-29.68
-33.55
-38.0
-43.13
-48.78
-54.64
-60.32
-65.57
-70.25
-74.43
-78.37
-82.58
-87.71
-94.4
-102.92
-112.82
-122.73
-130.45
-133.46
-129.59
-117.74
-98.35
-73.29
-45.45
-17.97
6.51
26.39
41.22
51.44
58.02
61.97
64.15
65.19
65.51
65.44
65.25
65.09
65.07
65.18
65.44
65.85
66.48
67.4
68.66
70.24
72.04
73.75
74.95
75.11
73.77
70.73
66.14
60.47
54.39
48.48
43.09
38.28
33.86
29.59
25.29
20.95
16.69
12.71
9.21
6.23
3.69
1.34
-1.12
-3.89
-7.05
-10.53
-14.18
-17.89
-21.61
-25.41
-29.38
-33.67
-38.43
-43.78
-49.74
-56.18
-62.77
-69.04
-74.63
-79.42
-83.75
-88.35
-94.09
-101.64
-111.09
-121.64
-131.63
-138.71
-140.38
-134.68
-120.81
-99.51
-72.95
-44.21
-16.49
7.74
27.07
41.28
50.91
56.92
60.32
61.95
62.48
62.41
62.09
61.76
61.55
61.56
61.92
62.7
63.98
65.76
67.99
70.5
73.03
75.2
76.57
76.7
75.29
72.3
67.97
62.71
56.95
51.01
45.08
39.25
33.61
28.27
23.35
18.87
14.78
10.94
7.22
3.49
-0.3
-4.18
-8.13
-12.1
-16.04
-19.94
-23.89
-28.13
-32.9
-38.39
-44.54
-51.09
-57.65
-63.85
-69.5
-74.68
-79.73
-85.25
-91.91
-100.21
-110.16
-120.91
-130.66
-136.92
-137.13
-129.47
-113.55
-90.64
-63.34
-34.85
-8.2
14.45
32.05
44.6
52.89
58.08
61.34
63.56
65.27
66.62
67.58
68.12
68.25
68.19
68.15
68.39
69.04
70.17
71.75
73.68
75.77
77.62
78.8
78.8
77.29
74.13
69.5
63.83
57.7
51.72
46.33
41.74
37.87
34.38
30.85
26.96
22.61
18.03
13.64
9.88
6.97
4.82
3.04
1.09
-1.47
-4.84
-8.89
-13.24
-17.47
-21.24
-24.56
-27.72
-31.24
-35.6
-41.03
-47.39
-54.2
-60.8
-66.65
-71.55
-75.71
-79.71
-84.38
-90.5
-98.57
-108.44
-119.16
-128.93
-135.35
-135.99
-129.06
-114.01
-91.83
-64.87
-36.24
-9.01
14.47
32.97
46.41
55.5
61.35
65.01
67.28
68.65
69.44
69.85
70.06
70.2
70.3
70.34
70.32
70.36
70.66
71.45
72.8
74.48
75.98
76.66
75.99
73.75
70.04
65.26
59.89
54.36
48.94
43.74
38.72
33.78
28.89
24.1
19.58
15.57
12.16
9.29
6.66
3.96
0.94
-2.42
-5.95
-9.46
-12.87
-16.28
-19.97
-24.24
-29.3
-35.15
-41.59
-48.24
-54.64
-60.44
-65.53
-70.1
-74.69
-80.04
-86.86
-95.54
-105.85
-116.67
-126.06
-131.49
-130.54
-121.66
-104.77
-81.48
-54.63
-27.5
-2.89
17.53
33.28
44.76
52.8
58.2
61.61
63.53
64.31
64.29
63.75
62.98
62.28
61.92
62.12
62.92
64.23
65.79
67.33
68.64
69.62
70.18
70.17
69.31
67.31
63.98
59.39
53.93
48.16
42.61
37.57
32.99
28.49
23.63
18.12
12.01
5.72
-0.14
-5.06
-8.86
-11.8
-14.51
-17.66
-21.72
-26.82
-32.68
-38.8
-44.72
-50.2
-55.31
-60.42
-66.07
-72.78
-80.89
-90.28
-100.28
-109.57
-116.34
-118.58
-114.67
-103.88
-86.74
-64.98
-41.18
-18.04
2.32
18.76
31.16
40.17
46.7
51.54
55.19
57.87
59.65
60.66
61.07
61.15
61.17
61.36
61.85
62.66
63.71
64.9
66.09
67.13
67.85
68.01
67.41
65.87
63.35
59.98
56.07
51.91
47.79
43.81
39.98
36.22
32.46
28.7
24.92
21.19
17.59
14.17
11.0
8.02
5.11
2.08
-1.23
-4.84
-8.65
-12.48
-16.23
-19.99
-24.02
-28.63
-33.95
-39.9
-46.14
-52.23
-57.84
-62.88
-67.58
-72.39
-77.91
-84.63
-92.7
-101.62
-110.22
-116.72
-119.17
-115.95
-106.38
-90.91
-71.08
-49.18
-27.62
-8.35
7.44
19.53
28.4
34.92
39.94
44.02
47.35
49.86
51.5
52.37
52.79
53.1
53.52
54.07
54.63
55.12
55.58
56.19
57.07
58.12
58.99
59.15
58.17
55.86
52.4
48.23
43.85
39.63
35.73
32.09
28.52
24.83
20.89
16.71
12.47
8.38
4.63
1.31
-1.68
-4.5
-7.39
-10.48
-13.86
-17.46
-21.15
-24.73
-28.1
-31.28
-34.48
-38.03
-42.22
-47.13
-52.58
-58.19
-63.51
-68.27
-72.47
-76.42
-80.67
-85.8
-92.26
-99.99
-108.21
-115.39
-119.46
-118.42
-111.0
-97.18
-78.25
-56.42
-34.24
-13.88
3.18
16.33
25.69
31.89
35.79
38.21
39.85
41.04
41.96
42.62
43.11
43.57
44.12
44.8
45.52
46.18
46.74
47.26
47.84
48.54
49.21
49.6
49.35
48.15
45.79
42.23
37.63
32.37
26.95
21.9
17.58
14.06
11.15
8.54
5.92
3.14
0.15
-3.06
-6.45
-9.93
-13.31
-16.36
-18.95
-21.19
-23.41
-26.07
-29.49
-33.7
-38.47
-43.41
-48.23
-52.77
-57.14
-61.67
-66.82
-73.09
-80.79
-89.74
-98.96
-106.68
-110.7
-109.02
-100.62
-85.79
-66.13
-44.02
-21.96
-1.94
14.85
28.01
37.75
44.61
49.22
52.16
53.92
54.9
55.43
55.8
56.21
56.81
57.62
58.61
59.73
60.99
62.4
63.93
65.51
66.96
68.03
68.46
68.03
66.57
64.04
60.54
56.35
51.85
47.4
43.21
39.25
35.33
31.25
26.92
22.5
18.31
14.66
11.73
9.42
7.43
5.35
2.74
-0.62
-4.73
-9.33
-14.01
-18.36
-22.24
-25.76
-29.3
-33.35
-38.3
-44.32
-51.19
-58.45
-65.49
-71.83
-77.25
-82.01
-86.74
-92.32
-99.52
-108.58
-118.85
-128.81
-136.22
-138.75
-134.61
-123.13
-104.98
-82.02
-56.78
-31.89
-9.43
9.36
24.13
35.21
43.29
49.16
53.48
56.72
59.18
61.06
62.52
63.67
64.65
65.54
66.44
67.48
68.77
70.4
72.35
74.44
76.36
77.72
78.18
77.54
75.74
72.86
69.06
64.6
59.72
54.71
49.81
45.16
40.79
36.63
32.59
28.68
25.01
21.76
19.07
16.91
15.06
13.11
10.64
7.41
3.46
-0.91
-5.28
-9.39
-13.29
-17.35
-22.13
-28.07
-35.23
-43.27
-51.51
-59.19
-65.8
-71.22
-75.82
-80.36
-85.77
-92.84
-101.92
-112.61
-123.64
-132.89
-137.87
-136.28
-126.74
-109.3
-85.48
-58.0
-30.06
-4.58
16.43
32.16
42.92
49.69
53.72
56.14
57.69
58.79
59.59
60.17
60.62
61.05
61.65
62.55
63.84
65.54
67.57
69.8
71.98
73.83
75.03
75.31
74.43
72.33
69.03
64.72
59.7
54.32
48.92
43.71
38.83
34.27
30.0
25.96
22.1
18.39
14.79
11.19
7.5
3.62
-0.45
-4.64
-8.82
-12.9
-16.9
-20.99
-25.43
-30.42
-36.03
-42.17
-48.54
-54.84
-60.82
-66.5
-72.19
-78.43
-85.85
-94.79
-104.99
-115.35
-123.93
-128.39
-126.63
-117.39
-100.82
-78.46
-52.89
-27.0
-3.33
16.44
31.64
42.43
49.46
53.51
55.37
55.67
55.05
54.05
53.18
52.81
53.09
53.99
55.39
57.12
59.07
61.08
63.04
64.76
66.06
66.71
66.58
65.53
63.54
60.68
57.04
52.86
48.33
43.68
39.12
34.81
30.85
27.29
24.13
21.3
18.72
16.38
14.28
12.45
10.83
9.19
7.17
4.44
0.84
-3.48
-8.12
-12.57
-16.46
-19.73
-22.61
-25.58
-29.09
-33.55
-39.03
-45.35
-52.02
-58.47
-64.18
-68.87
-72.7
-76.2
-80.28
-85.81
-93.34
-102.66
-112.61
-121.09
-125.5
-123.53
-113.88
-96.79
-74.08
-48.58
-23.34
-0.8
17.59
31.4
40.93
46.87
50.08
51.46
51.87
51.99
52.23
52.71
53.3
53.85
54.27
54.61
55.02
55.68
56.68
57.98
59.46
60.87
61.88
62.11
61.24
59.18
56.02
52.06
47.63
43.03
38.48
34.08
29.82
25.69
21.61
17.6
13.75
10.2
7.1
4.43
2.02
-0.41
-3.1
-6.14
-9.41
-12.7
-15.77
-18.57
-21.21
-23.97
-27.16
-31.11
-36.0
-41.77
-48.08
-54.36
-60.03
-64.7
-68.47
-71.87
-75.77
-80.96
-87.81
-96.0
-104.31
-110.88
-113.48
-110.15
-99.79
-82.66
-60.38
-35.56
-11.08
10.73
28.51
41.93
51.4
57.67
61.51
63.59
64.44
64.49
64.06
63.37
62.55
61.68
60.9
60.31
60.03
60.11
60.56
61.3
62.18
62.98
63.38
63.0
61.52
58.84
55.09
50.57
45.66
40.61
35.57
30.56
25.65
20.98
16.77
13.11
9.98
7.15
4.3
1.12
-2.57
-6.69
-11.02
-15.23
-19.06
-22.44
-25.53
-28.76
-32.58
-37.25
-42.72
-48.64
-54.47
-59.81
-64.54
-68.93
-73.47
-78.79
-85.41
-93.55
-102.93
-112.59
-120.91
-125.82
-125.27
-117.89
-103.47
-83.14
-59.16
-34.27
-11.03
8.69
24.04
35.08
42.54
47.41
50.64
52.93
54.67
56.0
57.0
57.69
58.17
58.55
58.93
59.37
59.94
60.7
61.73
62.98
64.27
65.23
65.43
64.5
62.34
59.1
55.17
50.99
46.9
43.01
39.25
35.39
31.26
26.82
22.24
17.83
13.91
10.68
8.13
6.0
3.9
1.45
-1.53
-5.02
-8.83
-12.68
-16.37
-19.83
-23.19
-26.68
-30.62
-35.18
-40.39
-46.03
-51.75
-57.18
-62.13
-66.73
-71.44
-76.95
-83.92
-92.61
-102.65
-112.76
-120.93
-124.82
-122.33
-112.39
-95.32
-72.89
-47.83
-23.1
-1.07
16.9
30.54
40.33
47.08
51.62
54.59
56.48
57.65
58.4
58.95
59.45
59.96
60.47
60.99
61.54
62.16
62.94
63.91
65.05
66.18
66.97
67.04
66.03
63.75
60.27
55.85
50.85
45.57
40.19
34.8
29.45
24.27
19.4
14.98
11.06
7.59
4.38
1.23
-2.03
-5.47
-9.04
-12.64
-16.12
-19.38
-22.48
-25.63
-29.17
-33.39
-38.42
-44.11
-50.07
-55.84
-61.07
-65.71
-70.07
-74.71
-80.3
-87.35
-95.94
-105.44
-114.43
-120.92
-122.7
-118.03
-106.2
-87.84
-64.85
-39.92
-15.81
5.28
22.15
34.59
43.19
48.93
52.78
55.46
57.4
58.81
59.82
60.6
61.32
62.13
63.04
64.0
64.9
65.69
66.4
67.15
67.94
68.66
69.03
68.63
67.08
64.15
59.86
54.52
48.63
42.76
37.31
32.43
27.92
23.42
18.56
13.22
7.6
2.16
-2.68
-6.68
-10.02
-13.16
-16.64
-20.9
-26.01
-31.73
-37.65
-43.32
-48.48
-53.13
-57.52
-62.07
-67.32
-73.76
-81.69
-90.92
-100.57
-109.01
-114.05
-113.54
-106.09
-91.63
-71.55
-48.39
-25.03
-3.88
13.62
27.12
37.05
44.21
49.39
53.19
55.97
57.94
59.26
60.03
60.38
60.48
60.5
60.56
60.76
61.13
61.67
62.43
63.39
64.47
65.4
65.73
64.97
62.75
59.04
54.13
48.57
42.89
37.5
32.53
27.96
23.67
19.6
15.73
12.06
8.57
5.19
1.82
-1.6
-5.09
-8.57
-11.96
-15.19
-18.31
-21.47
-24.92
-28.84
-33.33
-38.31
-43.59
-48.95
-54.14
-59.09
-63.85
-68.75
-74.25
-80.83
-88.61
-97.1
-105.03
-110.52
-111.58
-106.74
-95.6
-78.96
-58.63
-36.9
-15.98
2.5
17.68
29.42
38.05
44.2
48.44
51.29
53.09
54.16
54.78
55.24
55.74
56.35
57.01
57.57
57.93
58.14
58.36
58.76
59.37
60.02
60.35
59.98
58.61
56.21
52.89
48.93
44.64
40.3
36.04
31.9
27.85
23.81
19.77
15.77
11.98
8.57
5.66
3.24
1.11
-0.98
-3.3
-6.01
-9.12
-12.51
-16.01
-19.49
-22.94
-26.46
-30.2
-34.33
-38.84
-43.58
-48.29
-52.77
-56.93
-60.94
-65.2
-70.21
-76.38
-83.79
-92.01
-99.97
-106.03
-108.29
-105.12
-95.77
-80.67
-61.39
-40.22
-19.51
-1.05
14.21
26.13
35.08
41.61
46.26
49.45
51.54
52.79
53.5
53.95
54.39
55.03
56.01
57.28
58.68
60.0
61.06
61.82
62.3
62.54
62.44
61.83
60.48
58.28
55.24
51.54
47.38
43.0
38.53
34.07
29.69
25.32
20.9
16.32
11.58
6.84
2.35
-1.56
-4.79
-7.48
-10.08
-13.1
-16.93
-21.67
-27.07
-32.63
-37.82
-42.23
-45.84
-49.02
-52.45
-56.97
-63.18
-71.11
-80.09
-88.72
-95.17
-97.6
-94.73
-86.13
-72.45
-55.25
-36.57
-18.49
-2.61
10.21
19.81
26.56
31.11
34.16
36.3
38.0
39.48
40.81
41.88
42.59
42.89
42.96
43.09
43.6
44.68
46.28
48.17
50.04
51.57
52.5
52.63
51.8
49.96
47.22
43.84
40.18
36.52
33.03
29.72
26.51
23.34
20.23
17.27
14.53
12.04
9.76
7.6
5.43
3.16
0.67
-2.1
-5.1
-8.21
-11.29
-14.26
-17.18
-20.28
-23.78
-27.75
-32.1
-36.52
-40.71
-44.52
-48.07
-51.74
-56.01
-61.31
-67.75
-75.01
-82.23
-88.16
-91.35
-90.51
-84.9
-74.58
-60.47
-44.15
-27.46
-12.07
0.87
10.86
18.04
22.92
26.15
28.33
29.84
30.95
31.81
32.61
33.44
34.39
35.47
36.62
37.81
39.04
40.32
41.63
42.87
43.89
44.52
44.65
44.22
43.16
41.42
38.95
35.82
32.25
28.56
25.06
21.95
19.21
16.71
14.29
11.88
9.54
7.33
5.36
3.63
2.09
0.61
-1.0
-2.9
-5.23
-7.93
-10.88
-13.81
-16.54
-19.02
-21.39
-23.93
-26.85
-30.26
-34.04
-37.99
-41.82
-45.27
-48.24
-50.8
-53.24
-56.04
-59.71
-64.61
-70.76
-77.65
-84.29
-89.35
-91.41
-89.35
-82.67
-71.66
-57.42
-41.65
-26.2
-12.65
-1.95
5.7
10.74
13.91
15.97
17.47
18.73
19.93
21.16
22.48
23.93
25.49
27.05
28.49
29.74
30.86
32.01
33.4
35.13
37.13
39.06
40.46
40.87
40.0
37.85
34.62
30.72
26.58
22.59
19.04
16.08
13.73
11.8
10.01
8.07
5.77
3.03
-0.08
-3.45
-6.98
-10.57
-14.14
-17.63
-20.99
-24.28
-27.67
-31.33
-35.36
-39.68
-44.12
-48.51
-52.75
-56.95
-61.37
-66.4
-72.39
-79.54
-87.62
-95.9
-103.08
-107.53
-107.73
-102.75
-92.61
-78.23
-61.25
-43.5
-26.58
-11.67
0.63
10.16
17.18
22.17
25.68
28.21
30.1
31.55
32.65
33.55
34.46
35.61
37.21
39.33
41.92
44.81
47.79
50.65
53.18
55.19
56.52
57.02
56.63
55.34
53.24
50.5
47.34
43.97
40.56
37.15
33.72
30.27
26.84
23.57
20.59
17.94
15.54
13.2
10.69
7.87
4.69
1.23
-2.41
-6.09
-9.65
-13.0
-16.19
-19.46
-23.17
-27.69
-33.19
-39.48
-46.12
-52.57
-58.45
-63.75
-68.84
-74.32
-80.85
-88.82
-98.11
-107.87
-116.59
-122.26
-122.94
-117.26
-104.9
-86.77
-64.78
-41.35
-18.84
0.9
16.86
28.85
37.37
43.25
47.36
50.33
52.55
54.19
55.41
56.4
57.4
58.6
60.05
61.73
63.58
65.55
67.65
69.85
72.04
73.95
75.26
75.6
74.71
72.48
69.02
64.58
59.63
54.65
50.05
45.95
42.24
38.62
34.83
30.81
26.72
22.84
19.39
16.4
13.67
10.91
7.85
4.35
0.47
-3.64
-7.74
-11.71
-15.57
-19.53
-23.93
-29.09
-35.15
-41.96
-49.13
-56.15
-62.6
-68.35
-73.57
-78.76
-84.62
-91.85
-100.81
-111.18
-121.65
-130.03
-133.69
-130.28
-118.57
-98.92
-73.28
-44.66
-16.34
8.92
29.42
44.59
54.81
61.05
64.4
65.83
66.11
65.83
65.49
65.49
66.08
67.33
69.06
70.96
72.79
74.43
75.93
77.33
78.57
79.49
79.8
79.23
77.61
74.87
71.1
66.43
61.14
55.5
49.78
44.14
38.67
33.39
28.32
23.5
18.93
14.62
10.5
6.48
2.51
-1.37
-5.07
-8.57
-11.98
-15.59
-19.72
-24.62
-30.35
-36.71
-43.37
-49.87
-55.86
-61.17
-65.95
-70.65
-76.01
-82.77
-91.45
-101.95
-113.31
-123.64
-130.41
-131.02
-123.64
-107.8
-84.76
-57.21
-28.55
-1.97
20.31
37.39
49.54
57.69
62.96
66.27
68.21
69.14
69.28
68.82
68.01
67.11
66.38
66.01
66.09
66.64
67.6
68.91
70.49
72.18
73.75
74.8
74.87
73.6
70.84
66.71
61.62
56.1
50.64
45.59
41.04
36.95
33.12
29.35
25.55
21.71
17.95
14.46
11.39
8.86
6.86
5.26
3.79
2.11
-0.15
-3.29
-7.35
-12.07
-16.98
-21.57
-25.58
-29.16
-32.82
-37.18
-42.57
-48.89
-55.56
-61.91
-67.43
-72.06
-76.18
-80.46
-85.6
-92.16
-100.36
-109.83
-119.51
-127.58
-131.7
-129.61
-119.76
-102.07
-77.95
-50.15
-21.93
3.73
24.84
40.57
51.23
57.76
61.33
62.97
63.45
63.27
62.84
62.47
62.39
62.68
63.32
64.13
64.99
65.85
66.76
67.76
68.78
69.61
69.96
69.57
68.29
66.06
62.87
58.78
53.88
48.38
42.64
37.01
31.79
27.03
22.59
18.29
14.03
9.88
6.06
2.79
0.13
-2.06
-4.1
-6.31
-8.92
-11.96
-15.26
-18.61
-21.89
-25.16
-28.68
-32.8
-37.73
-43.44
-49.58
-55.68
-61.23
-65.96
-69.91
-73.45
-77.18
-81.84
-88.06
-96.11
-105.57
-115.13
-122.73
-125.9
-122.46
-111.27
-92.68
-68.54
-41.7
-15.32
8.0
26.68
40.3
49.38
54.93
58.03
59.57
60.1
59.94
59.29
58.39
57.48
56.83
56.65
57.05
58.01
59.4
61.03
62.7
64.22
65.39
66.0
65.82
64.63
62.22
58.53
53.69
48.01
41.92
35.88
30.18
24.98
20.28
15.97
11.91
8.01
4.17
0.34
-3.48
-7.24
-10.87
-14.35
-17.75
-21.26
-25.14
-29.56
-34.58
-40.06
-45.75
-51.34
-56.6
-61.46
-66.04
-70.72
-76.06
-82.65
-90.83
-100.36
-110.21
-118.59
-123.2
-121.88
-113.26
-97.28
-75.35
-50.01
-24.29
-0.88
18.47
33.14
43.5
50.41
54.82
57.49
58.92
59.46
59.42
59.11
58.82
58.74
58.97
59.55
60.42
61.57
62.96
64.55
66.23
67.83
69.05
69.57
69.0
67.1
63.84
59.44
54.33
49.01
43.9
39.21
34.94
31.02
27.28
23.63
20.03
16.52
13.17
10.08
7.26
4.65
2.08
-0.68
-3.8
-7.33
-11.22
-15.31
-19.44
-23.54
-27.67
-31.99
-36.67
-41.87
-47.54
-53.5
-59.39
-64.89
-69.86
-74.51
-79.43
-85.45
-93.26
-102.99
-113.9
-124.25
-131.59
-133.39
-127.79
-114.24
-93.75
-68.64
-41.9
-16.44
5.6
23.09
35.89
44.56
50.06
53.39
55.45
56.88
58.05
59.06
59.86
60.35
60.47
60.28
59.92
59.59
59.48
59.7
60.33
61.3
62.4
63.27
63.47
62.59
60.38
56.81
52.08
46.6
40.77
34.97
29.49
24.46
19.91
15.75
11.83
7.96
4.02
-0.01
-4.03
-7.9
-11.45
-14.67
-17.69
-20.77
-24.24
-28.36
-33.29
-38.98
-45.19
-51.54
-57.58
-62.93
-67.44
-71.35
-75.29
-80.11
-86.68
-95.29
-105.38
-115.31
-122.65
-124.78
-119.73
-106.82
-86.98
-62.48
-36.27
-11.19
10.65
28.16
41.2
50.29
56.28
60.05
62.3
63.54
64.05
64.01
63.55
62.86
62.1
61.46
61.1
61.16
61.7
62.72
64.11
65.61
66.85
67.35
66.69
64.59
61.02
56.13
50.3
43.99
37.75
32.0
26.96
22.55
18.43
14.21
9.57
4.54
-0.58
-5.35
-9.42
-12.73
-15.58
-18.5
-22.05
-26.59
-32.17
-38.49
-45.03
-51.27
-56.83
-61.63
-65.97
-70.43
-75.75
-82.6
-91.24
-101.31
-111.56
-120.0
-124.22
-122.1
-112.46
-95.52
-72.94
-47.36
-21.69
1.59
20.89
35.64
46.15
53.25
57.93
61.04
63.16
64.55
65.31
65.5
65.27
64.84
64.4
64.11
64.02
64.14
64.54
65.32
66.47
67.8
68.82
68.96
67.73
65.01
61.01
56.24
51.23
46.33
41.69
37.23
32.84
28.42
23.94
19.44
15.06
11.03
7.57
4.85
2.87
1.39
-0.02
-1.86
-4.43
-7.81
-11.75
-15.86
-19.79
-23.38
-26.82
-30.51
-34.87
-40.13
-46.14
-52.47
-58.58
-64.05
-68.79
-73.07
-77.46
-82.64
-89.21
-97.43
-106.95
-116.59
-124.42
-127.98
-125.09
-114.51
-96.54
-73.0
-46.74
-20.89
1.99
20.4
33.95
43.12
48.93
52.47
54.68
56.22
57.42
58.42
59.26
59.97
60.55
61.02
61.37
61.67
62.02
62.59
63.48
64.65
65.79
66.43
66.04
64.29
61.13
56.85
51.95
46.93
42.15
37.68
33.42
29.2
24.89
20.53
16.33
12.49
9.16
6.34
3.85
1.43
-1.14
-4.04
-7.3
-10.88
-14.61
-18.29
-21.79
-25.12
-28.46
-32.11
-36.29
-41.07
-46.22
-51.34
-56.08
-60.31
-64.29
-68.57
-73.83
-80.62
-89.03
-98.47
-107.56
-114.33
-116.64
-112.78
-102.07
-85.15
-63.85
-40.71
-18.35
1.24
16.95
28.64
36.9
42.61
46.61
49.53
51.63
53.05
53.83
54.11
54.11
54.06
54.15
54.44
54.93
55.63
56.57
57.78
59.18
60.48
61.26
61.08
59.66
57.02
53.44
49.35
45.11
40.97
37.01
33.19
29.43
25.64
21.8
17.97
14.26
10.84
7.82
5.17
2.72
0.24
-2.55
-5.74
-9.26
-12.89
-16.45
-19.87
-23.27
-26.92
-31.04
-35.73
-40.86
-46.1
-51.08
-55.55
-59.57
-63.46
-67.78
-73.11
-79.78
-87.6
-95.81
-102.97
-107.28
-106.88
-100.47
-87.69
-69.42
-47.65
-24.92
-3.73
14.15
27.89
37.66
44.15
48.29
50.9
52.58
53.71
54.54
55.19
55.74
56.18
56.5
56.72
56.93
57.28
57.97
59.11
60.64
62.31
63.7
64.32
63.8
61.93
58.76
54.55
49.63
44.34
38.98
33.74
28.68
23.81
19.07
14.38
9.74
5.23
1.0
-2.82
-6.15
-9.08
-11.73
-14.28
-16.86
-19.61
-22.73
-26.42
-30.88
-36.17
-42.06
-48.1
-53.76
-58.67
-62.83
-66.58
-70.51
-75.3
-81.4
-88.93
-97.47
-106.01
-112.98
-116.46
-114.64
-106.37
-91.66
-71.76
-48.88
-25.63
-4.3
13.59
27.46
37.52
44.39
48.82
51.44
52.77
53.19
53.11
52.89
52.89
53.33
54.22
55.41
56.63
57.74
58.73
59.75
60.97
62.35
63.59
64.17
63.47
61.11
57.06
51.73
45.81
39.97
34.65
29.94
25.63
21.38
16.98
12.42
7.87
3.55
-0.41
-4.09
-7.74
-11.62
-15.95
-20.8
-26.11
-31.69
-37.34
-42.79
-47.91
-52.71
-57.5
-62.86
-69.45
-77.75
-87.62
-98.13
-107.5
-113.45
-113.82
-107.19
-93.4
-73.71
-50.45
-26.45
-4.3
14.26
28.56
38.86
45.93
50.61
53.52
55.01
55.29
54.57
53.23
51.75
50.56
49.94
49.94
50.48
51.36
52.49
53.75
55.08
56.3
57.15
57.28
56.32
54.12
50.75
46.58
42.14
37.87
34.01
30.51
27.13
23.64
19.97
16.24
12.68
9.5
6.77
4.42
2.2
-0.09
-2.62
-5.39
-8.34
-11.32
-14.23
-17.14
-20.27
-23.91
-28.33
-33.56
-39.37
-45.3
-50.87
-55.75
-60.02
-64.08
-68.62
-74.37
-81.87
-91.21
-101.77
-112.12
-120.14
-123.46
-120.1
-109.06
-90.85
-67.33
-41.34
-15.89
6.54
24.46
37.41
45.83
50.69
53.12
54.15
54.57
54.8
54.99
55.08
54.96
54.66
54.33
54.2
54.48
55.26
56.49
57.98
59.47
60.63
61.13
60.73
59.25
56.65
53.08
48.75
43.91
38.78
33.61
28.56
23.79
19.4
15.4
11.73
8.28
4.97
1.73
-1.5
-4.78
-8.14
-11.52
-14.82
-17.92
-20.88
-23.92
-27.43
-31.7
-36.8
-42.43
-48.13
-53.51
-58.39
-62.92
-67.48
-72.54
-78.53
-85.86
-94.61
-104.4
-114.11
-121.88
-125.45
-122.77
-112.66
-95.37
-72.49
-46.63
-20.72
2.66
21.82
36.09
45.74
51.67
54.9
56.34
56.58
55.98
54.85
53.61
52.72
52.57
53.34
54.87
56.8
58.79
60.61
62.22
63.6
64.59
64.89
64.11
61.96
58.42
53.78
48.51
43.08
37.8
32.71
27.59
22.17
16.26
9.96
3.59
-2.39
-7.66
-12.13
-16.04
-19.87
-24.01
-28.72
-33.98
-39.52
-44.97
-50.01
-54.48
-58.43
-62.21
-66.36
-71.52
-78.1
-85.97
-94.21
-101.11
-104.54
-102.47
-93.69
-78.22
-57.4
-33.56
-9.43
12.59
30.89
44.82
54.63
61.05
64.9
66.9
67.49
66.98
65.61
63.69
61.55
59.58
58.06
57.19
57.02
57.49
58.41
59.6
60.81
61.79
62.25
61.88
60.35
57.47
53.27
48.08
42.42
36.85
31.75
27.16
22.88
18.71
14.58
10.64
7.2
4.42
2.23
0.23
-2.05
-4.99
-8.64
-12.74
-16.83
-20.52
-23.64
-26.34
-29.06
-32.31
-36.51
-41.79
-47.93
-54.44
-60.75
-66.44
-71.41
-75.96
-80.67
-86.28
-93.37
-102.05
-111.74
-120.99
-127.7
-129.48
-124.42
-111.66
-91.87
-67.14
-40.4
-14.72
7.53
25.05
37.66
45.96
50.93
53.58
54.73
55.02
54.9
54.72
54.71
54.99
55.59
56.45
57.51
58.7
59.94
61.17
62.28
63.11
63.39
62.9
61.44
58.93
55.42
51.01
45.88
40.25
34.42
28.74
23.55
19.07
15.28
11.93
8.6
4.94
0.81
-3.6
-7.91
-11.71
-14.78
-17.2
-19.34
-21.7
-24.8
-28.93
-34.12
-40.08
-46.34
-52.4
-57.91
-62.83
-67.41
-72.15
-77.67
-84.49
-92.82
-102.3
-111.75
-119.31
-122.69
-119.8
-109.43
-91.86
-68.83
-43.18
-17.96
4.3
22.15
35.34
44.52
50.7
54.93
57.95
60.16
61.67
62.48
62.66
62.37
61.91
61.56
61.57
62.05
62.97
64.31
66.0
67.92
69.82
71.21
71.5
70.16
66.97
62.06
56.0
49.47
43.17
37.53
32.71
28.54
24.65
20.54
15.82
10.35
4.36
-1.65
-7.09
-11.55
-15.04
-17.95
-20.92
-24.53
-29.12
-34.67
-40.86
-47.18
-53.09
-58.21
-62.39
-65.92
-69.46
-73.93
-80.1
-88.18
-97.44
-106.13
-111.83
-112.04
-105.07
-90.59
-69.79
-45.12
-19.49
4.44
24.84
40.93
52.78
60.99
66.36
69.65
71.53
72.58
73.24
73.76
74.25
74.61
74.73
74.59
74.31
74.08
74.11
74.45
75.07
75.8
76.38
76.51
75.85
74.07
71.0
66.66
61.36
55.6
49.93
44.73
40.19
36.28
32.89
29.86
27.07
24.37
21.58
18.58
15.26
11.7
8.03
4.42
0.95
-2.48
-6.05
-9.97
-14.36
-19.15
-24.12
-29.0
-33.56
-37.72
-41.58
-45.48
-49.86
-55.2
-61.77
-69.48
-77.62
-84.86
-89.44
-89.63
-84.33
-73.52
-58.34
-40.76
-22.94
-6.67
6.99
17.69
25.62
31.14
34.71
36.79
37.79
38.1
37.98
37.61
37.1
36.58
36.26
36.33
36.89
37.84
38.95
39.92
40.56
40.75
40.43
39.56
38.06
35.91
33.16
30.01
26.68
23.38
20.18
17.04
13.91
10.69
7.36
3.91
0.39
-3.17
-6.68
-10.03
-13.11
-15.84
-18.23
-20.38
-22.43
-24.62
-27.18
-30.32
-34.18
-38.77
-43.94
-49.38
-54.58
-58.84
-61.29
-61.08
-57.57
-50.64
-40.87
-29.43
-17.77
-7.2
1.48
8.05
12.78
16.04
18.11
19.13
19.13
18.23
16.7
14.94
13.41
12.44
12.27
12.88
14.09
15.61
17.12
18.32
19.08
19.34
19.13
18.43
17.18
15.35
12.97
10.24
7.46
4.92
2.77
0.97
-0.67
-2.41
-4.38
-6.61
-8.95
-11.24
-13.33
-15.19
-16.93
-18.64
-20.42
-22.26
-24.06
-25.77
-27.3
-28.72
-30.09
-31.54
-33.12
-34.98
-37.27
-40.27
-44.24
-49.16
-54.6
-59.62
-62.98
-63.53
-60.6
-54.29
-45.36
-34.99
-24.43
-14.75
-6.66
-0.46
3.88
6.65
8.24
9.12
9.6
9.92
10.19
10.47
10.84
11.36
12.06
12.91
13.82
14.72
15.57
16.37
17.12
17.72
18.07
18.1
17.8
17.21
16.41
15.42
14.23
12.82
11.22
9.51
7.79
6.18
4.71
3.4
2.22
1.11
-0.06
-1.41
-3.07
-5.07
-7.38
-9.83
-12.26
-14.58
-16.77
-18.89
-21.06
-23.38
-25.92
-28.64
-31.46
-34.23
-36.87
-39.39
-42.04
-45.15
-49.11
-54.07
-59.81
-65.68
-70.65
-73.6
-73.56
-70.03
-63.07
-53.38
-42.12
-30.62
-20.07
-11.24
-4.39
0.64
4.25
6.83
8.65
9.92
10.81
11.55
12.41
13.57
15.1
16.92
18.86
20.74
22.51
24.2
25.86
27.53
29.12
30.41
31.06
30.78
29.41
27.06
24.02
20.71
17.52
14.68
12.19
9.94
7.71
5.31
2.64
-0.25
-3.2
-5.92
-8.19
-9.96
-11.41
-12.92
-14.9
-17.66
-21.22
-25.38
-29.82
-34.26
-38.54
-42.69
-46.89
-51.41
-56.52
-62.44
-69.14
-76.19
-82.63
-87.08
-88.08
-84.51
-76.03
-63.24
-47.61
-31.01
-15.23
-1.58
9.39
17.76
24.03
28.82
32.57
35.52
37.76
39.37
40.56
41.69
43.14
45.09
47.53
50.17
52.66
54.75
56.36
57.58
58.58
59.39
59.94
60.01
59.37
57.82
55.26
51.76
47.54
42.94
38.36
34.14
30.47
27.33
24.51
21.74
18.79
15.56
12.05
8.38
4.68
1.03
-2.53
-6.11
-9.88
-14.07
-18.86
-24.3
-30.27
-36.44
-42.47
-48.07
-53.19
-58.03
-63.06
-68.83
-75.79
-84.04
-93.09
-101.73
-108.14
-110.37
-106.78
-96.72
-80.79
-60.72
-38.94
-17.92
0.43
15.13
26.08
33.79
39.07
42.69
45.2
46.97
48.19
49.09
49.9
50.94
52.4
54.34
56.57
58.79
60.81
62.55
64.14
65.7
67.27
68.57
69.2
68.73
66.91
63.83
59.82
55.36
50.9
46.75
43.02
39.62
36.38
33.14
29.79
26.34
22.98
19.95
17.42
15.38
13.59
11.69
9.28
6.14
2.3
-1.99
-6.35
-10.48
-14.27
-17.88
-21.65
-25.93
-30.92
-36.56
-42.59
-48.66
-54.45
-59.85
-64.93
-69.98
-75.49
-82.03
-90.03
