0
30.27
26.02
22.17
18.86
16.02
13.42
10.74
7.71
4.24
0.4
-3.64
-7.64
-11.39
-14.82
-17.92
-20.83
-23.76
-26.92
-30.45
-34.36
-38.49
-42.63
-46.65
-50.58
-54.53
-58.79
-63.59
-69.18
-75.67
-82.97
-90.58
-97.46
-102.13
-102.95
-98.67
-88.84
-74.07
-55.89
-36.31
-17.29
-0.34
13.72
24.7
32.86
38.7
42.72
45.35
46.85
47.41
47.19
46.47
45.64
45.11
45.21
46.02
47.38
49.07
50.85
52.61
54.32
55.9
57.13
57.67
57.21
55.61
53.07
49.96
46.71
43.58
40.52
37.27
33.57
29.34
24.81
20.4
16.5
13.35
10.9
8.9
7.04
5.02
2.65
-0.17
-3.37
-6.79
-10.19
-13.31
-16.03
-18.38
-20.64
-23.15
-26.21
-29.9
-34.12
-38.66
-43.27
-47.8
-52.22
-56.68
-61.51
-67.17
-74.03
-82.0
-90.24
-97.17
-100.82
-99.47
-92.26
-79.47
-62.5
-43.32
-24.0
-6.23
8.92
20.91
29.74
35.71
39.29
41.03
41.45
41.01
40.11
39.15
38.44
38.22
38.52
39.25
40.18
41.15
42.06
42.95
43.86
44.79
45.61
46.09
45.9
44.77
42.57
39.36
35.41
31.12
26.79
22.65
18.67
14.75
10.79
6.81
2.98
-0.48
-3.38
-5.69
-7.56
-9.23
-11.05
-13.28
-16.11
-19.56
-23.52
-27.75
-32.0
-35.99
-39.57
-42.75
-45.82
-49.27
-53.78
-59.83
-67.44
-75.94
-83.94
-89.59
-91.13
-87.37
-78.08
-64.03
-46.79
-28.27
-10.33
5.58
18.61
28.5
35.51
40.18
43.1
44.76
45.48
45.45
44.86
43.91
42.87
41.97
41.36
41.09
41.14
41.49
42.16
43.19
44.53
46.03
47.38
48.18
48.11
46.96
44.73
41.6
37.9
33.94
29.96
26.08
22.32
18.69
15.22
11.95
8.91
6.02
3.15
0.13
-3.1
-6.45
-9.71
-12.69
-15.33
-17.8
-20.47
-23.66
-27.52
-31.92
-36.52
-41.01
-45.18
-49.11
-52.99
-57.12
-61.83
-67.37
-73.9
-81.23
-88.73
-95.15
-98.85
-98.18
-92.08
-80.51
-64.51
-45.93
-26.85
-9.07
6.23
18.56
28.01
34.99
40.05
43.69
46.24
47.82
48.51
48.43
47.85
47.18
46.75
46.73
47.06
47.53
48.03
48.62
49.5
50.81
52.48
54.1
55.1
55.04
53.75
51.42
48.48
45.39
42.42
39.64
36.92
34.05
30.89
27.38
23.63
19.83
16.21
12.91
9.96
7.21
4.46
1.54
-1.6
-4.86
-8.04
-11.03
-13.83
-16.63
-19.71
-23.27
-27.42
-32.06
-37.02
-42.02
-46.86
-51.37
-55.53
-59.49
-63.53
-68.11
-73.66
-80.33
-87.78
-95.05
-100.59
-102.66
-99.81
-91.41
-77.85
-60.53
-41.46
-22.65
-5.68
8.55
19.84
28.42
34.69
39.07
41.86
43.38
43.92
43.83
43.41
42.95
42.59
42.46
42.6
43.09
43.97
45.23
46.77
48.42
49.93
51.03
51.51
51.2
50.01
47.92
45.06
41.61
37.88
34.13
30.5
26.94
23.25
19.26
14.97
10.58
6.44
2.86
-0.1
-2.65
-5.18
-8.04
-11.38
-15.14
-19.13
-23.13
-27.04
-30.83
-34.54
-38.27
-42.22
-46.8
-52.37
-59.09
-66.59
-73.72
-78.81
-80.1
-76.32
-67.18
-53.5
-36.96
-19.58
-3.18
10.99
22.4
31.12
37.61
42.38
45.89
48.38
49.93
50.57
50.34
49.4
48.03
46.6
45.45
44.87
44.96
45.68
46.82
48.11
49.28
50.04
50.2
49.54
47.9
45.21
41.58
37.33
32.93
28.84
25.35
22.41
19.7
16.82
13.52
9.8
5.92
2.15
-1.31
-4.52
-7.62
-10.72
-13.8
-16.71
-19.34
-21.75
-24.2
-27.01
-30.42
-34.39
-38.63
-42.73
-46.35
-49.42
-52.16
-55.09
-58.85
-63.98
-70.67
-78.51
-86.46
-92.89
-95.97
-94.2
-86.85
-74.26
-57.69
-39.04
-20.26
-2.95
11.9
23.93
33.19
39.98
44.65
47.51
48.9
49.19
48.74
47.96
47.11
46.36
45.74
45.25
44.91
44.8
45.05
45.7
46.68
47.75
48.57
48.84
48.36
47.06
44.97
42.17
38.82
35.14
31.36
27.68
24.19
20.84
17.48
14.05
10.56
7.21
4.2
1.64
-0.58
-2.72
-5.06
-7.77
-10.82
-14.03
-17.23
-20.34
-23.38
-26.48
-29.79
-33.39
-37.27
-41.39
-45.64
-49.89
-54.0
-57.91
-61.68
-65.62
-70.21
-75.94
-82.96
-90.81
-98.28
-103.57
-104.81
-100.57
-90.44
-75.13
-56.33
-36.25
-17.01
-0.18
13.43
23.74
31.2
36.42
40.01
42.4
43.89
44.74
45.17
45.38
45.56
45.84
46.32
47.06
48.12
49.49
51.05
52.56
53.79
54.56
54.77
54.38
53.31
51.45
48.67
44.99
40.61
35.9
31.24
26.88
22.84
18.95
14.97
10.77
6.4
2.04
-2.07
-5.77
-9.11
-12.3
-15.69
-19.62
-24.21
-29.31
-34.51
-39.32
-43.39
-46.75
-49.77
-53.12
-57.5
-63.29
-70.44
-78.29
-85.69
-91.16
-93.19
-90.63
-82.95
-70.53
-54.54
-36.75
-19.05
-2.97
10.58
21.41
29.8
36.21
41.0
44.39
46.52
47.55
47.74
47.39
46.79
46.1
45.45
44.96
44.76
44.96
45.64
46.75
48.1
49.45
50.48
50.93
50.58
49.28
47.07
44.12
40.7
37.06
33.33
29.5
25.51
21.37
17.27
13.46
10.13
7.27
4.65
1.95
-1.03
-4.28
-7.58
-10.63
-13.31
-15.67
-17.98
-20.58
-23.74
-27.55
-31.93
-36.64
-41.37
-45.84
-49.89
-53.54
-56.99
-60.69
-65.08
-70.55
-77.06
-84.05
-90.32
-94.24
-94.11
-88.78
-77.95
-62.45
-43.97
-24.63
-6.38
9.4
22.09
31.74
38.75
43.67
46.96
48.98
50.02
50.36
50.24
49.91
49.54
49.15
48.72
48.24
47.78
47.54
47.71
48.45
49.67
51.08
52.21
52.57
51.78
49.73
46.55
42.62
38.41
34.32
30.54
27.03
23.61
20.06
16.3
12.42
8.59
4.93
1.4
-2.09
-5.64
-9.15
-12.42
-15.18
-17.4
-19.28
-21.3
-23.91
-27.38
-31.64
-36.37
-41.15
-45.63
-49.71
-53.47
-57.18
-61.23
-66.04
-71.95
-79.03
-86.88
-94.51
-100.45
-103.06
-101.0
-93.59
-81.06
-64.5
-45.61
-26.29
-8.29
7.11
19.3
28.28
34.54
38.76
41.53
43.28
44.24
44.55
44.43
44.13
43.89
43.85
44.02
44.34
44.76
45.34
46.17
47.25
48.49
49.59
50.18
49.96
48.72
46.46
43.3
39.45
35.18
30.67
26.04
21.31
16.49
11.62
6.84
2.35
-1.68
-5.17
-8.28
-11.33
-14.72
-18.72
-23.35
-28.3
-33.15
-37.51
-41.24
-44.55
-47.91
-51.97
-57.22
-63.93
-71.81
-79.99
-87.03
-91.18
-90.8
-84.93
-73.61
-57.95
-39.83
-21.29
-4.06
10.74
22.66
31.71
38.19
42.55
45.33
47.03
48.06
48.68
48.98
48.97
48.71
48.3
47.94
47.76
47.81
48.09
48.57
49.24
50.03
50.78
51.19
50.94
49.77
47.61
44.59
40.98
37.03
32.94
28.83
24.8
20.96
17.4
14.16
11.14
8.21
5.14
1.83
-1.72
-5.39
-8.94
-12.15
-14.85
-17.06
-19.03
-21.16
-23.87
-27.44
-31.84
-36.75
-41.7
-46.25
-50.24
-53.8
-57.38
-61.53
-66.75
-73.23
-80.74
-88.45
-95.0
-98.71
-97.92
-91.58
-79.58
-62.96
-43.6
-23.73
-5.32
10.33
22.75
32.1
38.86
43.55
46.59
48.31
48.97
48.9
48.46
47.92
47.49
47.26
47.22
47.34
47.6
48.0
48.58
49.32
50.13
50.81
51.04
50.52
49.06
46.68
43.56
40.0
36.25
32.39
28.36
24.1
19.6
15.03
10.64
6.61
2.95
-0.45
-3.76
-7.06
-10.31
-13.4
-16.21
-18.75
-21.12
-23.49
-26.01
-28.81
-31.95
-35.45
-39.23
-43.13
-46.98
-50.63
-54.12
-57.72
-61.89
-67.09
-73.49
-80.77
-87.97
-93.58
-95.93
-93.56
-85.77
-72.8
-55.87
-36.79
-17.59
0.08
15.13
27.17
36.3
42.85
47.23
49.79
50.87
50.85
50.14
49.18
48.3
47.72
47.53
47.7
48.21
49.0
50.04
51.22
52.37
53.25
53.57
53.09
51.65
49.29
46.22
42.8
39.4
36.2
33.18
30.06
26.51
22.31
17.47
12.27
7.12
2.44
-1.62
-5.12
-8.32
-11.57
-15.16
-19.16
-23.47
-27.84
-32.01
-35.84
-39.41
-43.0
-47.05
-51.93
-57.87
-64.7
-71.75
-77.86
-81.6
-81.65
-77.09
-67.81
-54.5
-38.51
-21.52
-5.2
9.21
20.96
29.89
36.25
40.57
43.44
45.28
46.36
46.75
46.56
45.92
45.08
44.27
43.67
43.32
43.19
43.26
43.55
44.03
44.62
45.13
45.3
44.92
43.85
42.08
39.68
36.79
33.6
30.34
27.22
24.36
21.71
19.09
16.33
13.42
10.51
7.86
5.71
4.01
2.5
0.79
-1.4
-4.15
-7.23
-10.31
-13.05
-15.32
-17.27
-19.27
-21.8
-25.22
-29.58
-34.57
-39.64
-44.2
-47.95
-50.97
-53.69
-56.75
-60.69
-65.87
-72.2
-79.12
-85.61
-90.26
-91.61
-88.52
-80.55
-68.17
-52.64
-35.67
-18.94
-3.77
9.09
19.36
27.13
32.69
36.45
38.82
40.2
40.89
41.11
41.03
40.81
40.56
40.42
40.44
40.63
40.96
41.43
42.0
42.62
43.18
43.47
43.26
42.39
40.79
38.5
35.63
32.3
28.64
24.77
20.87
17.1
13.63
10.51
7.65
4.88
2.05
-0.9
-3.88
-6.76
-9.4
-11.81
-14.11
-16.52
-19.2
-22.2
-25.5
-28.98
-32.55
-36.14
-39.73
-43.31
-46.93
-50.74
-55.01
-60.07
-66.16
-73.16
-80.46
-86.92
-91.06
-91.42
-87.01
-77.59
-63.82
-47.08
-29.18
-11.92
3.32
15.78
25.32
32.25
37.07
40.23
42.1
42.94
43.04
42.71
42.31
42.07
42.12
42.42
42.86
43.36
43.92
44.57
45.34
46.16
46.86
47.18
46.85
45.64
43.43
40.32
36.59
32.7
29.04
25.79
22.83
19.79
16.29
12.14
7.52
2.84
-1.49
-5.27
-8.65
-11.97
-15.59
-19.62
-23.97
-28.43
-32.77
-36.89
-40.77
-44.47
-48.07
-51.71
-55.69
-60.37
-66.02
-72.57
-79.36
-85.15
-88.34
-87.45
-81.58
-70.74
-55.86
-38.54
-20.66
-3.9
10.56
22.15
30.9
37.17
41.5
44.34
46.09
46.95
47.17
46.95
46.55
46.17
45.94
45.91
46.04
46.37
46.96
47.91
49.21
50.68
51.97
52.59
52.16
50.5
47.75
44.26
40.47
36.72
33.15
29.73
26.29
22.7
18.93
15.09
11.38
7.95
4.82
1.88
-1.06
-4.12
-7.25
-10.25
-12.86
-14.99
-16.8
-18.66
-21.01
-24.09
-27.86
-31.99
-36.08
-39.82
-43.12
-46.18
-49.39
-53.27
-58.28
-64.73
-72.57
-81.25
-89.62
-96.05
-98.78
-96.38
-88.17
-74.53
-56.78
-36.92
-17.12
0.78
15.61
26.95
35.03
40.45
43.88
45.85
46.74
46.8
46.3
45.55
44.84
44.36
44.14
44.08
44.07
44.11
44.27
44.73
45.53
46.55
47.47
47.89
47.46
45.98
43.45
40.03
36.01
31.7
27.38
23.23
19.22
15.21
10.97
6.37
1.49
-3.42
-8.02
-12.08
-15.61
-18.86
-22.15
-25.73
-29.61
-33.64
-37.62
-41.41
-45.02
-48.49
-51.95
-55.54
-59.57
-64.41
-70.45
-77.73
-85.69
-93.06
-98.04
-98.78
-93.98
-83.3
-67.52
-48.3
-27.74
-7.87
9.76
24.27
35.41
43.42
48.77
51.98
53.51
53.81
53.27
52.31
51.29
50.46
49.89
49.51
49.24
49.02
48.93
49.15
49.79
50.82
51.96
52.82
52.9
51.84
49.48
45.93
41.49
36.59
31.61
26.79
22.21
17.77
13.32
8.76
4.13
-0.39
-4.57
-8.28
-11.57
-14.68
-17.96
-21.7
-26.0
-30.74
-35.6
-40.25
-44.45
-48.13
-51.48
-54.91
-58.96
-64.13
-70.69
-78.42
-86.42
-93.19
-96.84
-95.67
-88.64
-75.79
-58.28
-38.12
-17.59
1.25
17.08
29.34
38.2
44.2
48.0
50.13
51.0
50.86
50.0
48.71
47.3
46.01
45.03
44.41
44.19
44.42
45.11
46.24
47.66
49.12
50.3
50.9
50.68
49.51
47.35
44.26
40.39
36.0
31.42
26.99
22.97
19.38
16.07
12.76
9.23
5.37
1.26
-2.83
-6.62
-9.89
-12.55
-14.76
-16.81
-19.09
-21.98
-25.65
-30.05
-34.88
-39.69
-44.09
-47.94
-51.35
-54.74
-58.63
-63.58
-69.9
-77.5
-85.71
-93.21
-98.23
-98.93
-93.9
-82.74
-66.2
-46.1
-24.77
-4.51
12.97
26.78
36.85
43.65
47.92
50.41
51.66
52.05
51.84
51.26
50.53
49.88
49.44
49.21
49.11
49.07
49.1
49.3
49.8
50.6
51.54
52.25
52.25
51.18
48.89
45.5
41.37
36.93
32.54
28.41
24.59
20.97
17.41
13.77
9.96
5.92
1.73
-2.5
-6.58
-10.38
-13.88
-17.23
-20.66
-24.41
-28.58
-33.07
-37.67
-42.13
-46.28
-50.11
-53.72
-57.32
-61.27
-65.98
-71.83
-78.92
-86.75
-94.16
-99.44
-100.76
-96.69
-86.77
-71.66
-53.0
-32.92
-13.54
3.56
17.51
28.11
35.66
40.65
43.62
44.99
45.13
44.39
43.1
41.62
40.2
38.97
37.99
37.25
36.76
36.6
36.91
37.75
38.99
40.34
41.34
41.57
40.76
38.91
36.22
32.96
29.38
25.61
21.71
17.72
13.75
9.89
6.21
2.66
-0.91
-4.72
-8.9
-13.48
-18.29
-23.11
-27.66
-31.81
-35.56
-39.14
-42.93
-47.39
-52.89
-59.58
-67.17
-74.79
-81.09
-84.43
-83.41
-77.18
-65.83
-50.38
-32.53
-14.18
2.94
17.68
29.5
38.39
44.73
48.99
51.62
52.95
53.17
52.48
51.12
49.43
47.77
46.49
45.74
45.56
45.84
46.47
47.3
48.22
49.09
49.69
49.76
49.08
47.48
44.93
41.58
37.74
33.72
29.76
25.91
22.1
18.14
13.9
9.38
4.74
0.22
-3.94
-7.59
-10.71
-13.39
-15.83
-18.35
-21.29
-24.92
-29.27
-34.11
-38.99
-43.44
-47.23
-50.5
-53.71
-57.48
-62.33
-68.43
-75.52
-82.82
-89.1
-92.88
-92.65
-87.36
-76.7
-61.34
-42.86
-23.31
-4.74
11.35
24.17
33.72
40.5
45.18
48.34
50.36
51.42
51.58
50.97
49.82
48.5
47.37
46.7
46.59
46.89
47.42
47.96
48.41
48.77
49.03
49.11
48.81
47.89
46.17
43.61
40.35
36.65
32.75
28.83
24.96
21.15
17.42
13.8
10.32
7.05
3.97
1.08
-1.67
-4.35
-6.99
-9.64
-12.33
-15.09
-17.99
-21.14
-24.59
-28.35
-32.3
-36.23
-39.9
-43.2
-46.16
-49.11
-52.49
-56.85
-62.54
-69.53
-77.25
-84.58
-90.0
-91.93
-89.13
-81.11
-68.31
-51.99
-33.93
-16.0
0.2
13.63
23.84
30.96
35.45
37.94
39.07
39.33
39.09
38.58
37.99
37.43
37.0
36.7
36.53
36.48
36.67
37.23
38.31
39.9
41.72
43.33
44.19
43.94
42.46
39.95
36.81
33.45
30.16
27.02
23.94
20.72
17.21
13.35
9.24
5.1
1.18
-2.31
-5.34
-8.07
-10.76
-13.74
-17.22
-21.24
-25.62
-30.03
-34.13
-37.75
-40.97
-44.16
-47.85
-52.51
-58.31
-64.88
-71.28
-76.11
-77.86
-75.3
-67.92
-56.1
-41.09
-24.68
-8.75
5.25
16.52
24.97
31.0
35.19
38.0
39.69
40.4
40.24
39.44
38.37
37.37
36.68
36.38
36.43
36.73
37.26
38.02
39.0
40.13
41.25
42.13
42.54
42.29
41.24
39.38
36.81
33.69
30.26
26.72
23.17
19.67
16.19
12.76
9.43
6.24
3.19
0.21
-2.77
-5.79
-8.76
-11.52
-13.97
-16.13
-18.21
-20.53
-23.34
-26.72
-30.58
-34.68
-38.74
-42.56
-46.04
-49.24
-52.33
-55.65
-59.64
-64.68
-70.92
-78.0
-84.95
-90.3
-92.44
-90.08
-82.67
-70.61
-55.1
-37.8
-20.46
-4.52
9.02
19.71
27.55
32.91
36.3
38.3
39.41
39.96
40.16
40.16
40.02
39.86
39.75
39.74
39.9
40.33
41.08
42.15
43.47
44.77
45.75
46.06
45.49
44.01
41.74
38.92
35.84
32.68
29.53
26.32
22.92
19.22
15.27
11.26
7.53
4.36
1.81
-0.31
-2.37
-4.69
-7.43
-10.48
-13.57
-16.46
-19.04
-21.39
-23.72
-26.27
-29.21
-32.62
-36.47
-40.65
-44.94
-49.11
-53.0
-56.63
-60.26
-64.4
-69.56
-75.97
-83.36
-90.82
-96.89
-99.93
-98.52
-91.91
-80.21
-64.44
-46.24
-27.53
-10.02
5.03
16.96
25.7
31.56
35.1
36.94
37.69
37.84
37.73
37.58
37.45
37.35
37.26
37.24
37.4
37.9
38.87
40.33
42.13
44.0
45.56
46.49
46.52
45.53
43.53
40.64
37.1
33.15
29.08
25.01
21.0
16.96
12.78
8.46
4.11
-0.05
-3.8
-7.11
-10.16
-13.26
-16.72
-20.68
-25.04
-29.53
-33.84
-37.76
-41.33
-44.77
-48.56
-53.22
-59.17
-66.49
-74.72
-82.75
-89.0
-91.77
-89.63
-81.89
-68.82
-51.61
-32.12
-12.42
5.64
20.83
32.61
41.14
46.99
50.8
53.09
54.17
54.27
53.64
52.64
51.65
50.97
50.71
50.8
51.1
51.53
52.15
53.06
54.32
55.81
57.19
58.0
57.78
56.22
53.26
49.15
44.32
39.25
34.34
29.76
25.44
21.17
16.78
12.22
7.59
3.05
-1.23
-5.16
-8.73
-11.94
-14.82
-17.43
-19.93
-22.53
-25.5
-29.05
-33.23
-37.91
-42.83
-47.62
-52.07
-56.12
-60.0
-64.21
-69.3
-75.7
-83.34
-91.41
-98.4
-102.35
-101.44
-94.5
-81.51
-63.57
-42.64
-20.97
-0.57
17.14
31.46
42.27
49.82
54.53
56.89
57.42
56.68
55.24
53.67
52.4
51.64
51.39
51.45
51.68
51.99
52.49
53.36
54.64
56.22
57.66
58.49
58.32
57.02
54.73
51.73
48.27
44.44
40.21
35.59
30.72
25.84
21.28
17.21
13.58
10.2
6.79
3.18
-0.64
-4.54
-8.34
-11.87
-15.04
-17.83
-20.32
-22.73
-25.33
-28.42
-32.19
-36.63
-41.51
-46.49
-51.3
-55.76
-59.96
-64.18
-68.86
-74.43
-81.18
-88.96
-96.97
-103.78
-107.49
-106.33
-99.16
-85.96
-67.85
-46.82
-25.13
-4.78
12.77
26.76
36.99
43.74
47.58
49.22
49.38
48.66
47.5
46.17
44.91
43.92
43.39
43.45
44.11
45.25
46.67
48.19
49.63
50.85
51.71
52.02
51.6
50.27
48.0
44.91
41.23
37.23
33.13
29.0
24.75
20.25
15.38
10.19
4.92
-0.05
-4.36
-7.86
-10.69
-13.26
-16.1
-19.6
-23.89
-28.75
-33.71
-38.32
-42.29
-45.64
-48.75
-52.2
-56.62
-62.45
-69.67
-77.61
-84.89
-89.64
-89.92
-84.41
-72.78
-56.01
-36.07
-15.36
3.96
20.43
33.44
43.01
49.51
53.46
55.37
55.8
55.33
54.44
53.44
52.43
51.37
50.25
49.18
48.41
48.23
48.75
49.86
51.27
52.59
53.55
53.9
53.51
52.25
50.09
47.07
43.37
39.29
35.15
31.14
27.28
23.54
19.84
16.21
12.75
9.53
6.56
3.72
0.86
-2.14
-5.3
-8.55
-11.72
-14.71
-17.41
-19.87
-22.23
-24.74
-27.64
-31.11
-35.16
-39.62
-44.17
-48.51
-52.45
-56.05
-59.64
-63.73
-68.8
-75.04
-82.06
-88.82
-93.72
-94.94
-91.04
-81.37
-66.35
-47.36
-26.47
-5.82
12.78
28.21
40.01
48.35
53.66
56.54
57.51
57.06
55.63
53.66
51.62
49.86
48.62
47.95
47.69
47.62
47.57
47.5
47.55
47.86
48.46
49.12
49.42
48.86
47.14
44.29
40.62
36.6
32.55
28.53
24.42
20.09
15.54
11.0
6.74
3.02
-0.07
-2.66
-4.98
-7.32
-9.89
-12.82
-16.03
-19.3
-22.37
-25.09
-27.55
-30.09
-33.11
-36.81
-41.12
-45.63
-49.93
-53.82
-57.46
-61.28
-65.79
-71.32
-77.93
-85.35
-92.93
-99.65
-104.11
-104.74
-100.24
-90.07
-74.74
-55.77
-35.27
-15.36
2.33
16.88
28.0
35.83
40.79
43.36
44.14
43.7
42.59
41.21
39.88
38.8
38.15
38.02
38.45
39.39
40.71
42.29
44.05
45.89
47.62
48.94
49.45
48.83
46.94
43.95
40.22
36.22
32.26
28.44
24.62
20.57
16.09
11.19
6.1
1.19
-3.16
-6.76
-9.69
-12.32
-15.11
-18.45
-22.49
-27.06
-31.82
-36.43
-40.65
-44.5
-48.19
-52.14
-56.84
-62.76
-70.04
-78.29
-86.41
-92.72
-95.3
-92.58
-83.83
-69.51
-51.15
-30.93
-11.07
6.65
21.2
32.3
40.22
45.49
48.73
50.47
51.11
50.98
50.31
49.32
48.17
47.04
46.06
45.34
44.96
44.98
45.38
46.13
47.12
48.12
48.81
48.82
47.8
45.63
42.43
38.55
34.43
30.37
26.44
22.53
18.51
14.38
10.28
6.5
3.28
0.63
-1.58
-3.61
-5.64
-7.77
-9.95
-12.09
-14.16
-16.22
-18.42
-20.94
-23.96
-27.56
-31.7
-36.18
-40.74
-45.16
-49.33
-53.34
-57.43
-61.97
-67.34
-73.81
-81.4
-89.58
-97.21
-102.63
-103.92
-99.52
-88.76
-72.25
-51.69
-29.47
-7.97
10.99
26.4
38.03
46.18
51.46
54.54
56.02
56.37
55.96
55.04
53.86
52.68
51.71
51.14
50.97
51.13
51.52
52.07
52.79
53.66
54.56
55.21
55.24
54.33
52.38
49.48
45.89
41.91
37.78
33.62
29.46
25.31
21.13
16.95
12.85
9.0
5.57
2.63
0.09
-2.31
-4.9
-7.92
-11.34
-14.92
-18.29
-21.27
-23.94
-26.66
-29.91
-33.98
-38.83
-44.1
-49.28
-53.98
-58.08
-61.77
-65.53
-69.87
-75.23
-81.76
-89.18
-96.64
-102.71
-105.64
-103.73
-95.92
-82.16
-63.58
-42.19
-20.39
-0.32
16.56
29.64
38.97
45.04
48.49
49.97
50.09
49.35
48.26
47.19
46.37
45.94
45.9
46.2
46.76
47.59
48.75
50.27
52.08
53.93
55.36
55.88
55.12
52.99
49.71
45.67
41.35
37.04
32.88
28.9
25.04
21.23
17.36
13.28
8.92
4.38
-0.07
-4.07
-7.38
-10.07
-12.52
-15.27
-18.75
-23.09
-28.07
-33.28
-38.31
-42.88
-46.94
-50.72
-54.62
-59.17
-64.9
-72.06
-80.38
-88.87
-95.94
-99.65
-98.35
-91.13
-78.14
-60.63
-40.61
-20.34
-1.76
13.81
25.92
34.76
40.95
45.15
47.87
49.47
50.13
50.07
49.55
48.88
48.32
48.01
47.96
48.11
48.45
48.99
49.79
50.89
52.21
53.5
54.42
54.57
53.65
51.53
48.32
44.34
40.1
36.07
32.54
29.52
26.78
24.0
20.99
17.8
14.7
12.02
9.88
8.14
6.41
4.28
1.54
-1.66
-5.0
-8.16
-11.04
-13.83
-16.9
-20.56
-24.93
-29.91
-35.27
-40.74
-46.13
-51.35
-56.41
-61.43
-66.65
-72.42
-79.07
-86.66
-94.75
-102.26
-107.61
-109.06
-105.23
-95.59
-80.68
-62.02
-41.76
-22.08
-4.71
9.46
20.29
28.17
33.73
37.52
39.89
41.12
41.45
41.17
40.65
40.17
39.95
40.01
40.28
40.69
41.2
41.86
42.76
44.0
45.52
47.13
48.46
49.05
48.51
46.69
43.68
39.83
35.6
31.4
27.44
23.73
20.14
16.47
12.62
8.61
4.58
0.76
-2.66
-5.59
-8.07
-10.31
-12.55
-15.01
-17.83
-20.98
-24.33
-27.69
-30.92
-33.97
-36.9
-39.86
-43.1
-46.92
-51.63
-57.48
-64.38
-71.84
-78.68
-83.34
-84.11
-79.75
-69.86
-55.14
-37.18
-18.02
0.37
16.54
29.7
39.71
46.89
51.72
54.73
56.35
56.9
56.61
55.72
54.48
53.2
52.18
51.62
51.52
51.74
52.1
52.4
52.62
52.74
52.71
52.33
51.28
49.24
46.1
42.02
37.35
32.59
28.1
24.04
20.36
16.86
13.27
9.41
5.25
0.93
-3.22
-6.88
-9.85
-12.25
-14.49
-17.14
-20.64
-25.06
-30.13
-35.26
-40.0
-44.13
-47.83
-51.51
-55.75
-60.99
-67.47
-75.03
-83.05
-90.41
-95.59
-96.99
-93.35
-84.19
-69.99
-52.13
-32.49
-13.0
4.73
19.69
31.46
40.11
46.04
49.79
51.91
52.89
53.07
52.7
51.97
51.06
50.16
49.4
48.86
48.52
48.31
48.24
48.28
48.44
48.68
48.8
48.52
47.5
45.53
42.56
38.78
34.49
30.01
25.57
21.34
17.39
13.73
10.35
7.19
4.18
1.25
-1.62
-4.42
-7.08
-9.61
-12.03
-14.45
-16.98
-19.67
-22.57
-25.67
-29.02
-32.65
-36.54
-40.58
-44.59
-48.41
-52.04
-55.71
-59.88
-65.01
-71.43
-79.07
-87.34
-95.08
-100.68
-102.33
-98.58
-88.75
-73.29
-53.78
-32.5
-11.88
6.22
20.78
31.7
39.48
44.82
48.29
50.29
51.03
50.72
49.66
48.18
46.69
45.48
44.75
44.5
44.62
44.94
45.34
45.81
46.37
47.06
47.75
48.2
48.03
46.93
44.73
41.5
37.53
33.17
28.71
24.33
20.03
15.8
11.58
7.4
3.29
-0.73
-4.65
-8.47
-12.19
-15.74
-19.07
-22.18
-25.17
-28.25
-31.68
-35.62
-40.03
-44.7
-49.26
-53.41
-57.02
-60.28
-63.66
-67.82
-73.39
-80.66
-89.32
-98.28
-105.77
-109.67
-108.21
-100.42
-86.55
-68.0
-46.89
-25.58
-6.05
10.41
23.31
32.77
39.33
43.68
46.42
48.04
48.86
49.1
48.91
48.45
47.86
47.31
46.97
47.06
47.76
49.17
51.24
53.65
55.97
57.67
58.36
57.77
55.88
52.77
48.73
44.07
39.16
34.28
29.57
24.98
20.33
15.46
10.38
5.28
0.44
-3.93
-7.87
-11.58
-15.35
-19.37
-23.63
-28.02
-32.38
-36.64
-40.85
-45.19
-49.96
-55.52
-62.2
-70.1
-78.81
-87.19
-93.58
-96.1
-93.27
-84.58
-70.62
-52.93
-33.56
-14.48
2.77
17.28
28.8
37.52
43.88
48.35
51.29
52.9
53.32
52.78
51.62
50.29
49.14
48.38
47.99
47.87
47.94
48.2
48.7
49.4
50.14
50.61
50.49
49.53
47.63
44.87
41.48
37.74
33.94
30.23
26.66
23.15
19.57
15.89
12.2
8.65
5.36
2.29
-0.67
-3.64
-6.63
-9.51
-12.11
-14.46
-16.84
-19.7
-23.48
-28.29
-33.83
-39.53
-44.76
-49.18
-52.85
-56.23
-60.02
-64.87
-71.25
-79.23
-88.34
-97.49
-104.99
-108.87
-107.34
-99.34
-85.02
-65.78
-43.91
-21.98
-2.12
14.35
27.05
36.34
42.9
47.45
50.54
52.52
53.65
54.09
54.02
53.64
53.14
52.71
52.47
52.47
52.71
53.18
53.84
54.69
55.63
56.46
56.82
56.31
54.6
51.58
47.39
42.4
37.06
31.82
26.97
22.61
18.69
14.96
11.18
7.14
2.8
-1.67
-5.93
-9.69
-12.83
-15.5
-18.07
-21.0
-24.61
-29.04
-34.17
-39.67
-45.12
-50.16
-54.6
-58.56
-62.48
-67.08
-73.07
-80.85
-90.13
-99.85
-108.22
-113.17
-112.89
-106.37
-93.74
-76.2
-55.76
-34.7
-15.03
1.82
15.2
25.14
32.1
36.72
39.6
41.19
41.81
41.71
41.1
40.27
39.46
38.88
38.68
38.94
39.71
41.02
42.89
45.19
47.69
49.96
51.48
51.79
50.63
48.06
44.51
40.61
36.9
33.68
30.86
28.06
24.82
20.86
16.22
11.26
6.48
2.28
-1.19
-4.08
-6.8
-9.78
-13.36
-17.63
-22.44
-27.46
-32.34
-36.87
-41.04
-45.16
-49.73
-55.33
-62.34
-70.72
-79.83
-88.4
-94.68
-96.91
-93.76
-84.74
-70.39
-52.19
-32.16
-12.38
5.46
20.33
31.93
40.52
46.65
50.9
53.73
55.37
55.97
55.66
54.67
53.32
51.96
50.91
50.38
50.39
50.87
51.66
52.56
53.43
54.1
54.48
54.39
53.57
51.79
48.87
44.88
40.18
35.3
30.73
26.71
23.18
19.87
16.56
13.2
9.92
6.91
4.21
1.64
-1.09
-4.19
-7.67
-11.3
-14.76
-17.81
-20.44
-22.86
-25.44
-28.49
-32.16
-36.38
-40.91
-45.44
-49.79
-54.05
-58.55
-63.82
-70.33
-78.19
-86.87
-95.18
-101.36
-103.54
-100.26
-90.95
-76.15
-57.39
-36.84
-16.75
1.08
15.59
26.5
34.16
39.2
42.34
44.15
45.0
45.13
44.7
43.91
42.98
42.09
41.43
41.06
41.03
41.37
42.12
43.25
44.68
46.18
47.4
47.99
47.65
46.18
43.54
39.83
35.29
30.28
25.25
20.59
16.49
12.95
9.72
6.48
3.0
-0.78
-4.67
-8.38
-11.62
-14.2
-16.16
-17.77
-19.4
-21.49
-24.3
-27.8
-31.7
-35.49
-38.74
-41.29
-43.37
-45.57
-48.58
-53.0
-59.01
-66.27
-73.81
-80.13
-83.5
-82.33
-75.61
-63.32
-46.53
-27.15
-7.46
10.48
25.34
36.68
44.77
50.31
53.98
56.27
57.39
57.41
56.4
54.54
52.16
49.67
47.45
45.75
44.68
44.21
44.29
44.86
45.82
46.99
48.03
48.42
47.67
45.4
41.61
36.66
31.2
25.87
21.17
17.21
13.81
10.61
7.26
3.56
-0.47
-4.69
-8.78
-12.45
-15.5
-17.86
-19.66
-21.22
-22.96
-25.25
-28.3
-32.04
-36.24
-40.52
-44.6
-48.38
-51.99
-55.75
-60.07
-65.35
-71.8
-79.27
-87.06
-93.89
-98.04
-97.81
-92.04
-80.61
-64.46
-45.43
-25.63
-6.98
9.25
22.45
32.61
40.04
45.2
48.54
50.49
51.35
51.43
51.0
50.34
49.74
49.45
49.57
50.14
51.07
52.25
53.6
55.01
56.34
57.32
57.62
56.98
55.29
52.69
49.43
45.82
42.07
38.27
34.46
30.64
26.86
23.19
19.68
16.39
13.35
10.6
8.14
6.0
4.09
2.3
0.45
-1.64
-4.09
-6.93
-10.06
-13.26
-16.27
-18.93
-21.3
-23.63
-26.37
-29.86
-34.19
-39.09
-44.1
-48.73
-52.74
-56.16
-59.35
-62.81
-67.07
-72.52
-79.23
-86.68
-93.7
-98.53
-99.25
-94.38
-83.51
-67.46
-48.17
-28.0
-9.13
7.01
19.82
29.41
36.24
40.84
43.71
45.24
45.79
45.69
45.22
44.66
44.16
43.86
43.79
43.99
44.46
45.23
46.35
47.76
49.3
50.65
51.4
51.16
49.71
47.11
43.61
39.57
35.36
31.21
27.21
23.39
19.76
16.33
13.1
10.02
7.0
3.92
0.7
-2.65
-6.0
-9.19
-12.08
-14.64
-17.0
-19.42
-22.17
-25.5
-29.5
-34.01
-38.72
-43.23
-47.26
-50.7
-53.67
-56.48
-59.56
-63.4
-68.4
-74.67
-81.82
-88.79
-93.94
-95.43
-91.69
-82.09
-67.16
-48.54
-28.45
-9.02
8.14
22.2
32.97
40.69
45.75
48.57
49.62
49.39
48.33
46.88
45.38
44.07
43.12
42.62
42.63
43.16
44.12
45.39
46.79
48.14
49.24
49.89
49.88
49.02
47.2
44.43
40.85
36.73
32.4
28.16
24.23
20.68
17.45
14.38
11.28
8.02
4.55
0.94
-2.72
-6.25
-9.55
-12.58
-15.43
-18.26
-21.3
-24.75
-28.7
-33.1
-37.71
-42.18
-46.23
-49.72
-52.77
-55.79
-59.36
-64.06
-70.24
-77.76
-85.84
-93.09
-97.7
-97.89
-92.44
-81.07
-64.61
-44.84
-24.04
-4.39
12.48
25.77
35.48
42.14
46.44
49.06
50.4
50.74
50.32
49.39
48.27
47.24
46.44
45.92
45.67
45.71
46.16
47.16
48.71
50.64
52.53
53.87
54.21
53.35
51.34
48.42
44.99
41.38
37.83
34.39
30.98
27.45
23.72
19.82
15.92
12.18
8.72
5.5
2.36
-0.85
-4.22
-7.72
-11.2
-14.52
-17.61
-20.54
-23.5
-26.76
-30.52
-34.84
-39.59
-44.5
-49.3
-53.8
-58.05
-62.34
-67.12
-72.87
-79.87
-87.95
-96.32
-103.56
-107.79
-107.16
-100.39
-87.29
-68.95
-47.45
-25.35
-5.0
11.97
24.85
33.74
39.26
42.2
43.35
43.37
42.76
41.91
41.11
40.5
40.16
40.05
40.16
40.48
41.04
41.9
43.14
44.77
46.66
48.5
49.83
50.13
48.97
46.19
41.94
36.7
31.07
25.62
20.69
16.34
12.38
8.54
4.59
0.49
-3.63
-7.56
-11.06
-14.04
-16.59
-18.99
-21.61
-24.73
-28.49
-32.74
-37.15
-41.32
-44.97
-48.11
-51.08
-54.44
-58.81
-64.58
-71.69
-79.51
-86.8
-91.92
-93.17
-89.22
-79.51
-64.5
-45.65
-25.03
-4.89
12.96
27.4
38.16
45.54
50.19
52.77
53.8
53.62
52.47
50.54
48.08
45.4
42.86
40.84
39.65
39.41
40.06
41.39
43.08
44.77
46.09
46.7
46.24
44.54
41.64
37.84
33.63
29.49
25.65
22.01
18.23
13.96
9.04
3.57
-2.04
-7.33
-11.94
-15.74
-18.9
-21.78
-24.84
-28.39
-32.48
-36.84
-41.06
-44.72
-47.71
-50.33
-53.2
-57.02
-62.32
-69.1
-76.76
-84.04
-89.3
-90.82
-87.28
-78.1
-63.73
-45.57
-25.66
-6.14
11.21
25.36
36.08
43.74
48.98
52.39
54.44
55.42
55.55
55.05
54.2
53.27
52.46
51.91
51.64
51.72
52.14
52.88
53.86
54.9
55.76
56.18
55.92
54.8
52.76
49.84
46.22
42.14
37.88
33.65
29.58
25.69
22.0
18.51
15.23
12.17
9.3
6.55
3.86
1.22
