0
-22.74
-26.27
-29.71
-33.49
-38.12
-44.13
-51.84
-61.08
-71.05
-80.19
-86.53
-88.18
-83.98
-73.93
-59.29
-42.23
-25.11
-9.83
2.58
11.97
18.75
23.46
26.55
28.29
28.96
28.98
28.85
29.03
29.75
30.96
32.39
33.76
34.97
36.11
37.38
38.84
40.32
41.4
41.57
40.42
37.85
34.04
29.44
24.62
20.03
15.88
12.12
8.43
4.41
-0.15
-5.22
-10.46
-15.43
-19.85
-23.74
-27.5
-31.77
-37.18
-44.13
-52.59
-61.94
-70.94
-77.88
-80.99
-78.89
-71.16
-58.56
-42.88
-26.4
-11.2
1.44
11.23
18.58
24.19
28.58
31.97
34.29
35.52
35.8
35.6
35.52
36.1
37.55
39.72
42.11
44.15
45.42
45.86
45.67
45.14
44.43
43.39
41.66
38.92
35.07
30.36
25.37
20.7
16.75
13.58
10.86
8.06
4.68
0.42
-4.67
-10.25
-15.81
-20.86
-25.13
-28.71
-32.0
-35.67
-40.44
-46.91
-55.33
-65.34
-75.87
-85.15
-91.08
-91.77
-86.22
-74.76
-58.97
-41.26
-24.06
-9.14
2.74
11.74
18.52
23.76
27.9
31.13
33.49
35.1
36.16
36.95
37.72
38.63
39.72
40.93
42.09
43.03
43.58
43.64
43.28
42.65
41.91
41.08
39.94
38.17
35.43
31.64
27.09
22.35
17.99
14.43
11.73
9.6
7.57
5.12
1.89
-2.25
-7.12
-12.33
-17.36
-21.88
-25.8
-29.42
-33.27
-37.99
-44.07
-51.66
-60.56
-70.02
-78.8
-85.29
-87.83
-85.23
-77.19
-64.53
-48.98
-32.65
-17.4
-4.41
5.88
13.61
19.15
22.9
25.22
26.47
27.03
27.28
27.56
28.1
29.0
30.29
31.94
33.86
35.88
37.78
39.32
40.32
40.62
40.09
38.61
36.08
32.57
28.36
23.88
19.54
15.53
11.75
7.86
3.52
-1.35
-6.55
-11.69
-16.39
-20.51
-24.21
-27.94
-32.29
-37.91
-45.2
-54.14
-63.95
-73.05
-79.37
-80.92
-76.5
-66.26
-51.68
-35.09
-18.9
-4.9
6.1
14.23
20.13
24.56
28.03
30.72
32.56
33.54
33.79
33.7
33.73
34.3
35.54
37.27
39.09
40.66
41.79
42.52
43.02
43.31
43.24
42.44
40.52
37.31
32.95
27.92
22.82
18.16
14.19
10.88
7.9
4.86
1.43
-2.59
-7.19
-12.2
-17.29
-22.12
-26.46
-30.32
-34.04
-38.18
-43.43
-50.35
-59.0
-68.75
-78.24
-85.5
-88.57
-86.0
-77.47
-63.86
-47.15
-29.7
-13.62
-0.24
10.06
17.6
22.98
26.79
29.4
31.09
32.15
32.93
33.79
34.95
36.44
38.09
39.69
41.06
42.08
42.72
42.94
42.74
42.14
41.25
40.2
39.01
37.52
35.42
32.43
28.56
24.15
19.79
16.04
13.13
10.88
8.72
6.04
2.44
-2.1
-7.29
-12.65
-17.79
-22.48
-26.75
-30.85
-35.15
-40.14
-46.28
-53.87
-62.72
-72.02
-80.23
-85.39
-85.69
-80.13
-68.98
-53.76
-36.81
-20.48
-6.47
4.51
12.65
18.58
22.94
26.09
28.18
29.33
29.77
29.86
29.93
30.24
30.85
31.71
32.74
33.94
35.33
36.89
38.43
39.55
39.79
38.73
36.18
32.29
27.53
22.53
17.89
13.96
10.71
7.76
4.55
0.63
-4.19
-9.67
-15.36
-20.69
-25.3
-29.19
-32.76
-36.7
-41.81
-48.67
-57.33
-67.07
-76.3
-82.88
-84.75
-80.6
-70.47
-55.78
-38.81
-22.04
-7.34
4.37
13.09
19.31
23.71
26.78
28.82
30.12
30.95
31.63
32.5
33.78
35.54
37.62
39.71
41.43
42.52
42.94
42.93
42.84
42.9
43.01
42.73
41.46
38.76
34.63
29.52
24.23
19.54
15.87
13.15
10.89
8.39
5.04
0.57
-4.89
-10.88
-16.75
-21.98
-26.41
-30.28
-34.17
-38.84
-44.93
-52.73
-62.02
-71.93
-80.99
-87.33
-89.12
-85.18
-75.46
-61.15
-44.42
-27.68
-12.92
-1.14
7.62
14.02
18.86
22.73
25.94
28.55
30.59
32.11
33.24
34.13
34.98
35.89
36.96
38.22
39.58
40.85
41.84
42.34
42.2
41.28
39.45
36.66
33.03
28.85
24.6
20.71
17.37
14.41
11.37
7.77
3.34
-1.73
-6.98
-11.83
-15.98
-19.52
-22.9
-26.87
-32.11
-39.04
-47.6
-57.05
-66.01
-72.64
-75.11
-72.19
-63.69
-50.58
-34.8
-18.58
-3.83
8.33
17.67
24.54
29.53
33.09
35.46
36.73
37.08
36.8
36.33
36.08
36.32
37.03
38.04
39.12
40.11
40.92
41.54
41.84
41.6
40.5
38.31
34.98
30.83
26.34
22.03
18.21
14.82
11.55
7.96
3.78
-1.0
-6.16
-11.31
-16.11
-20.4
-24.26
-28.05
-32.33
-37.72
-44.65
-53.07
-62.15
-70.35
-75.73
-76.57
-71.94
-62.12
-48.43
-32.9
-17.57
-4.01
6.94
15.19
21.13
25.37
28.47
30.81
32.58
33.87
34.86
35.74
36.76
38.05
39.5
40.83
41.74
42.05
41.92
41.67
41.59
41.7
41.65
40.94
39.09
35.98
31.85
27.25
22.82
19.09
16.27
14.16
12.29
10.02
6.8
2.41
-2.92
-8.57
-13.85
-18.26
-21.79
-24.87
-28.24
-32.71
-38.81
-46.66
-55.77
-65.06
-72.91
-77.53
-77.44
-71.98
-61.63
-47.89
-32.82
-18.41
-6.05
3.75
11.11
16.54
20.54
23.47
25.58
27.08
28.19
29.17
30.18
31.26
32.28
33.07
33.49
33.53
33.29
32.96
32.68
32.48
32.19
31.56
30.27
28.09
25.01
21.21
17.1
13.12
9.57
6.51
3.71
0.82
-2.45
-6.14
-10.03
-13.79
-17.13
-20.02
-22.7
-25.63
-29.36
-34.29
-40.59
-47.93
-55.46
-61.84
-65.55
-65.28
-60.41
-51.25
-38.99
-25.32
-11.98
-0.24
9.22
16.31
21.27
24.43
26.1
26.56
26.09
25.13
24.1
23.44
23.37
23.88
24.75
25.69
26.49
27.14
27.77
28.53
29.44
30.27
30.64
30.08
28.25
25.14
21.03
16.46
12.05
8.25
5.22
2.76
0.36
-2.47
-6.03
-10.28
-14.83
-19.21
-23.1
-26.43
-29.41
-32.42
-35.86
-40.1
-45.44
-52.05
-59.73
-67.7
-74.58
-78.61
-78.25
-72.69
-62.34
-48.63
-33.61
-19.3
-7.06
2.5
9.46
14.3
17.59
19.84
21.41
22.54
23.35
24.0
24.63
25.42
26.52
27.99
29.7
31.39
32.75
33.54
33.77
33.6
33.26
32.8
32.06
30.69
28.33
24.92
20.72
16.27
12.15
8.79
6.28
4.36
2.54
0.3
-2.72
-6.61
-11.12
-15.79
-20.11
-23.75
-26.79
-29.6
-32.87
-37.33
-43.49
-51.42
-60.59
-69.91
-77.81
-82.61
-82.91
-78.05
-68.38
-55.19
-40.4
-25.95
-13.33
-3.25
4.29
9.79
13.84
16.89
19.18
20.83
21.98
22.87
23.8
24.97
26.47
28.15
29.77
31.14
32.15
32.87
33.41
33.87
34.14
33.98
32.99
30.88
27.61
23.47
19.0
14.8
11.25
8.34
5.65
2.63
-1.16
-5.74
-10.76
-15.67
-20.01
-23.67
-26.95
-30.41
-34.73
-40.39
-47.59
-55.98
-64.66
-72.2
-76.94
-77.41
-72.82
-63.43
-50.46
-35.78
-21.31
-8.46
2.09
10.35
16.64
21.34
24.66
26.66
27.44
27.33
26.87
26.69
27.31
28.88
31.17
33.67
35.89
37.56
38.68
39.46
40.09
40.53
40.46
39.47
37.23
33.67
29.11
24.08
19.23
14.99
11.55
8.71
6.03
2.97
-0.91
-5.75
-11.31
-17.09
-22.51
-27.2
-31.12
-34.69
-38.61
-43.69
-50.52
-59.19
-69.09
-78.8
-86.42
-89.95
-88.0
-80.24
-67.61
-51.96
-35.53
-20.2
-7.1
3.47
11.81
18.43
23.74
27.99
31.31
33.83
35.75
37.34
38.81
40.34
41.98
43.68
45.35
46.85
48.06
48.92
49.42
49.54
49.26
48.44
46.89
44.37
40.8
36.37
31.54
26.93
23.05
20.06
17.72
15.47
12.7
8.97
4.2
-1.35
-7.2
-12.86
-17.98
-22.51
-26.78
-31.35
-36.97
-44.29
-53.57
-64.39
-75.58
-85.28
-91.45
-92.34
-87.14
-76.21
-61.08
-43.93
-26.97
-11.87
0.54
10.21
17.57
23.13
27.28
30.27
32.21
33.29
33.77
34.02
34.35
35.0
36.06
37.49
39.2
41.01
42.72
44.07
44.75
44.54
43.28
40.99
37.82
34.02
29.85
25.47
20.97
16.35
11.56
6.62
1.63
-3.27
-7.93
-12.28
-16.39
-20.52
-25.17
-30.84
-37.98
-46.58
-56.02
-64.99
-71.63
-74.1
-71.1
-62.41
-49.01
-32.81
-16.09
-0.8
11.88
21.63
28.82
34.11
38.07
41.08
43.26
44.65
45.33
45.52
45.55
45.67
46.02
46.56
47.22
47.94
48.71
49.5
50.12
50.2
49.33
47.18
43.76
39.35
34.46
29.56
25.02
20.94
17.22
13.63
9.84
5.62
0.86
-4.33
-9.66
-14.82
-19.7
-24.49
-29.78
-36.19
-44.07
-53.19
-62.52
-70.4
-74.97
-74.69
-68.9
-58.07
-43.69
-27.8
-12.42
1.05
11.99
20.55
27.19
32.37
36.36
39.26
41.12
42.15
42.72
43.25
44.03
45.13
46.43
47.67
48.65
49.3
49.67
49.9
50.01
49.93
49.38
48.04
45.69
42.29
38.07
33.42
28.8
24.54
20.73
17.17
13.5
9.37
4.65
-0.48
-5.61
-10.27
-14.25
-17.64
-20.94
-24.82
-29.92
-36.56
-44.62
-53.39
-61.63
-67.77
-70.28
-68.09
-61.0
-49.83
-36.21
-22.07
-9.06
1.8
10.22
16.43
20.79
23.62
25.14
25.55
25.12
24.23
23.32
22.77
22.85
23.63
24.99
26.62
28.11
29.07
29.31
28.85
27.87
26.57
24.99
22.98
20.3
16.83
12.61
7.96
3.26
-1.13
-5.0
-8.29
-11.06
-13.47
-15.74
-18.2
-21.27
-25.34
-30.62
-36.98
-43.85
-50.17
-54.61
-55.89
-53.12
-46.2
-35.85
-23.51
-10.96
0.2
8.97
15.11
18.97
21.27
22.63
23.46
23.89
23.94
23.66
23.22
22.87
22.79
23.02
23.45
23.88
24.17
24.28
24.24
24.07
23.68
22.86
21.32
18.93
15.73
12.0
8.13
4.47
1.16
-1.87
-4.88
-8.15
-11.76
-15.63
-19.52
-23.16
-26.44
-29.45
-32.52
-36.06
-40.48
-46.02
-52.55
-59.45
-65.62
-69.6
-70.0
-65.93
-57.47
-45.73
-32.51
-19.8
-9.02
-0.74
5.3
9.79
13.35
16.27
18.51
19.93
20.57
20.7
20.79
21.17
21.92
22.83
23.53
23.75
23.45
22.84
22.22
21.82
21.59
21.24
20.34
18.52
15.64
11.94
7.96
4.29
1.37
-0.75
-2.42
-4.23
-6.74
-10.15
-14.29
-18.65
-22.73
-26.24
-29.2
-31.94
-34.88
-38.41
-42.89
-48.5
-55.19
-62.48
-69.32
-74.25
-75.74
-72.77
-65.28
-54.26
-41.46
-28.79
-17.72
-8.96
-2.53
2.02
5.23
7.49
8.98
9.8
10.03
9.85
9.52
9.32
9.51
10.18
11.34
12.88
14.65
16.46
18.04
19.12
19.38
18.6
16.7
13.84
10.36
6.63
2.95
-0.6
-4.1
-7.73
-11.61
-15.74
-20.04
-24.36
-28.65
-32.98
-37.54
-42.61
-48.49
-55.39
-63.3
-71.77
-79.81
-85.92
-88.44
-86.07
-78.41
-66.17
-51.04
-35.11
-20.26
-7.66
2.37
10.09
16.02
20.59
24.12
26.75
28.68
30.16
31.54
33.14
35.19
37.71
40.5
43.21
45.47
47.06
47.96
48.34
48.34
47.94
46.86
44.7
41.22
36.55
31.24
26.06
21.68
18.35
15.81
13.39
10.3
5.99
0.36
-6.21
-13.02
-19.31
-24.63
-28.97
-32.84
-37.14
-42.83
-50.6
-60.56
-71.95
-83.21
-92.24
-96.89
-95.63
-88.02
-74.85
-57.99
-39.78
-22.4
-7.37
4.71
13.93
20.81
25.92
29.67
32.35
34.16
35.41
36.41
37.51
38.88
40.56
42.45
44.45
46.5
48.55
50.47
51.99
52.71
52.33
50.71
48.04
44.7
41.07
37.4
33.69
29.8
25.56
20.86
15.73
10.28
4.71
-0.81
-6.15
-11.27
-16.33
-21.72
-27.98
-35.63
-44.79
-54.88
-64.6
-71.99
-75.08
-72.42
-63.66
-49.68
-32.35
-14.0
3.3
18.14
29.92
38.67
44.76
48.6
50.56
51.03
50.5
49.57
48.93
49.07
50.26
52.39
55.03
57.7
59.94
61.47
62.21
62.22
61.54
60.18
58.02
54.95
50.92
46.02
40.62
35.18
30.13
25.69
21.72
17.79
13.37
8.08
1.9
-4.8
-11.42
-17.4
-22.48
-26.79
-30.87
-35.51
-41.55
-49.49
-59.22
-69.71
-79.13
-85.19
-85.82
-79.93
-67.72
-50.75
-31.38
-12.14
4.91
18.58
28.48
34.95
38.7
40.55
41.3
41.55
41.71
42.04
42.69
43.75
45.22
46.98
48.8
50.45
51.73
52.63
53.23
53.62
53.73
53.28
51.93
49.35
45.48
40.54
34.99
29.39
24.23
19.8
16.11
12.92
9.76
6.18
1.89
-3.13
-8.58
-13.99
-18.98
-23.39
-27.47
-31.79
-37.01
-43.69
-51.95
-61.31
-70.59
-78.06
-81.85
-80.48
-73.4
-61.23
-45.62
-28.73
-12.59
1.37
12.51
20.81
26.56
30.11
31.81
32.07
31.41
30.48
29.83
29.93
30.92
32.71
34.98
37.33
39.42
41.06
42.19
42.87
43.1
42.72
41.46
39.02
35.33
30.62
25.45
20.48
16.15
12.54
9.36
6.11
2.37
-2.03
-7.03
-12.28
-17.4
-22.08
-26.21
-29.96
-33.8
-38.34
-44.14
-51.41
-59.71
-67.9
-74.36
-77.33
-75.51
-68.47
-56.8
-42.01
-26.1
-10.98
1.95
12.02
19.28
24.16
27.22
28.94
29.64
29.65
29.29
28.98
29.08
29.82
31.17
32.88
34.58
35.92
36.73
37.03
37.0
36.85
36.68
36.46
35.92
34.72
32.55
29.35
25.34
21.03
17.02
13.7
11.1
8.86
6.39
3.18
-0.96
-5.82
-10.87
-15.56
-19.53
-22.76
-25.58
-28.48
-31.99
-36.54
-42.41
-49.56
-57.53
-65.35
-71.56
-74.56
-73.12
-66.84
-56.34
-43.16
-29.17
-16.12
-5.14
3.37
9.53
13.76
16.47
18.01
18.62
18.51
17.89
17.05
16.31
15.97
16.27
17.24
18.77
20.59
22.38
23.85
24.76
24.99
24.45
23.13
21.12
18.59
15.77
12.88
10.08
7.41
4.82
2.19
-0.62
-3.74
-7.2
-10.89
-14.55
-17.93
-20.87
-23.53
-26.38
-30.07
-35.1
-41.52
-48.69
-55.38
-60.03
-61.21
-58.06
-50.59
-39.66
-26.8
-13.77
-2.09
7.28
14.08
18.57
21.22
22.48
22.66
21.98
20.77
19.51
18.74
18.9
20.09
22.08
24.32
26.26
27.49
27.87
27.49
26.57
25.28
23.75
21.94
19.78
17.24
14.37
11.38
8.56
6.12
4.09
2.24
0.16
-2.54
-6.06
-10.28
-14.86
-19.33
-23.29
-26.59
-29.34
-31.84
-34.62
-38.21
-43.12
-49.54
-57.15
-64.98
-71.44
-74.78
-73.58
-67.31
-56.58
-42.97
-28.54
-15.23
-4.28
3.9
9.58
13.39
15.91
17.53
18.43
18.71
18.56
18.29
18.29
18.84
20.02
21.65
23.4
24.93
26.08
26.87
27.45
27.94
28.28
28.18
27.27
25.32
22.37
18.79
15.14
11.95
9.47
7.68
6.24
4.71
2.63
-0.24
-3.93
-8.21
-12.69
-16.95
-20.68
-23.87
-26.81
-30.0
-33.95
-39.04
-45.41
-52.84
-60.66
-67.78
-72.74
-74.04
-70.61
-62.29
-50.03
-35.67
-21.32
-8.65
1.51
9.16
14.78
18.78
21.29
22.28
21.84
20.45
18.92
18.11
18.52
20.15
22.54
25.02
27.08
28.49
29.35
29.86
30.18
30.27
29.89
28.69
26.35
22.83
18.43
13.68
9.23
5.52
2.65
0.31
-1.96
-4.64
-7.94
-11.79
-15.91
-19.94
-23.64
-26.92
-29.94
-33.07
-36.84
-41.81
-48.33
-56.23
-64.69
-72.2
-76.95
-77.34
-72.54
-62.78
-49.33
-34.08
-19.01
-5.65
5.14
13.19
18.82
22.57
24.94
26.34
27.1
27.5
27.84
28.42
29.46
31.05
33.04
35.13
36.98
38.34
39.18
39.6
39.77
39.81
39.59
38.86
37.35
34.87
31.43
27.31
22.96
18.84
15.31
12.46
10.07
7.69
4.82
1.12
-3.43
-8.52
-13.66
-18.42
-22.62
-26.41
-30.21
-34.53
-39.82
-46.39
-54.19
-62.71
-70.84
-76.95
-79.24
-76.38
-68.07
-55.28
-39.95
-24.37
-10.42
0.89
9.47
15.75
20.25
23.33
25.17
25.93
25.91
25.58
25.44
25.87
27.05
28.89
31.15
33.51
35.73
37.64
39.16
40.23
40.73
40.44
39.1
36.59
33.04
28.84
24.55
20.65
17.4
14.66
12.07
9.24
5.89
2.02
-2.16
-6.35
-10.33
-14.05
-17.63
-21.39
-25.75
-31.16
-37.89
-45.83
-54.24
-61.78
-66.74
-67.51
-63.17
-53.82
-40.65
-25.53
-10.45
3.07
14.21
22.83
29.16
33.53
36.19
37.33
37.17
36.11
34.7
33.58
33.27
34.01
35.68
37.88
40.09
41.84
42.9
43.3
43.18
42.64
41.61
39.9
37.33
33.91
29.95
25.92
22.32
19.39
17.03
14.8
12.17
8.68
4.18
-1.13
-6.77
-12.1
-16.59
-20.02
-22.62
-25.03
-28.15
-32.8
-39.43
-47.81
-56.95
-65.23
-70.79
-72.01
-67.99
-58.92
-46.03
-31.26
-16.71
-4.01
6.0
13.31
18.5
22.25
25.07
27.18
28.64
29.54
30.09
30.62
31.44
32.69
34.27
35.87
37.19
38.07
38.54
38.75
38.87
38.91
38.68
37.81
35.97
33.0
29.09
24.72
20.57
17.17
14.72
12.99
11.38
9.23
6.09
1.99
-2.64
-7.21
-11.18
-14.43
-17.21
-20.08
-23.66
-28.43
-34.56
-41.86
-49.64
-56.87
-62.16
-64.13
-61.83
-55.03
-44.49
-31.69
-18.47
-6.4
3.52
11.03
16.35
19.94
22.2
23.42
23.79
23.55
23.06
22.74
22.98
23.98
25.67
27.7
29.57
30.87
31.42
31.33
30.9
30.41
29.87
29.04
27.55
25.18
21.99
18.45
15.11
12.4
10.39
8.78
7.01
4.58
1.3
-2.71
-7.0
-11.1
-14.69
-17.76
-20.59
-23.71
-27.67
-32.91
-39.56
-47.32
-55.34
-62.34
-66.76
-67.25
-63.06
-54.41
-42.52
-29.24
-16.52
-5.76
2.5
8.49
12.9
16.35
19.1
21.11
22.29
22.78
23.0
23.53
24.75
26.65
28.86
30.82
32.16
32.79
32.92
32.87
32.88
32.98
32.95
32.46
31.2
28.99
25.91
22.27
18.53
15.18
12.43
10.22
8.18
5.84
2.82
-0.94
-5.23
-9.64
-13.74
-17.29
-20.28
-23.01
-25.87
-29.37
-33.84
-39.45
-46.0
-52.83
-58.83
-62.66
-63.05
-59.29
-51.47
-40.6
-28.33
-16.44
-6.24
1.65
7.36
11.45
14.5
16.82
18.49
19.43
19.69
19.52
19.31
19.4
19.9
20.74
21.7
22.6
23.4
24.15
24.83
25.26
25.16
24.15
22.12
19.2
15.83
12.54
9.7
7.44
5.61
3.86
1.86
-0.62
-3.63
-6.99
-10.42
-13.63
-16.51
-19.2
-22.12
-25.84
-30.81
-37.04
-43.94
-50.31
-54.66
-55.66
-52.56
-45.5
-35.41
-23.74
-12.03
-1.58
6.83
12.94
16.91
19.13
20.07
20.14
19.69
19.02
18.48
18.37
18.95
20.29
22.23
24.49
26.66
28.43
29.63
30.23
30.31
29.99
29.37
28.44
27.13
25.23
22.57
19.08
14.94
10.57
6.51
3.19
0.71
-1.19
-3.0
-5.18
-7.96
-11.26
-14.78
-18.25
-21.56
-24.83
-28.4
-32.69
-38.07
-44.74
-52.46
-60.52
-67.71
-72.57
-73.76
-70.51
-62.92
-52.0
-39.3
-26.52
-15.01
-5.57
1.6
6.72
10.21
12.5
14.02
15.15
16.22
17.48
19.09
21.02
23.09
25.03
26.64
27.8
28.57
29.06
29.38
29.54
29.43
28.86
27.64
25.64
22.82
19.31
15.32
11.2
7.35
4.05
1.41
-0.75
-2.81
-5.23
-8.31
-12.1
-16.34
-20.56
-24.35
-27.54
-30.32
-33.24
-37.03
-42.22
-48.86
-56.32
-63.3
-68.13
-69.3
-65.87
-57.84
-46.17
-32.5
-18.65
-6.16
4.03
11.65
16.94
20.37
22.37
23.28
23.35
22.92
22.44
22.45
23.4
25.44
28.24
31.23
33.71
35.24
35.78
35.59
35.15
34.75
34.4
33.77
32.38
29.92
26.33
21.99
17.51
13.57
10.6
8.63
7.31
5.98
4.07
1.16
-2.72
-7.26
-11.92
-16.27
-20.14
-23.71
-27.4
-31.68
-36.97
-43.39
-50.74
-58.38
-65.2
-69.81
-70.8
-67.23
-58.99
-47.02
-33.07
-19.19
-7.08
2.34
8.99
13.5
16.67
19.17
21.36
23.24
24.69
25.62
26.12
26.49
27.13
28.36
30.21
32.39
34.45
35.92
36.6
36.59
36.14
35.46
34.55
33.15
30.97
27.95
24.38
20.81
17.82
15.7
14.25
12.95
11.13
8.3
4.4
-0.28
-5.21
-9.84
-13.86
-17.27
-20.35
-23.53
-27.29
-31.99
-37.83
-44.8
-52.49
-60.1
-66.38
-69.76
-68.89
-63.1
-52.78
-39.36
-24.9
-11.37
-0.08
8.59
14.96
19.66
23.16
25.64
27.08
27.54
27.29
26.81
26.63
27.09
28.28
29.96
31.8
33.47
34.86
35.98
36.93
37.71
38.12
37.81
36.43
33.8
30.04
25.59
21.08
17.15
14.15
12.08
10.58
9.04
6.93
3.93
0.08
-4.26
-8.59
-12.49
-15.85
-18.91
-22.23
-26.48
-32.12
-39.26
-47.42
-55.5
-62.05
-65.51
-64.7
-59.15
-49.37
-36.71
-22.95
-9.92
1.12
9.58
15.61
19.76
22.69
24.87
26.53
27.76
28.64
29.37
30.21
31.41
33.04
34.95
36.85
38.42
39.46
39.96
40.05
39.87
39.48
38.81
37.71
36.05
33.76
30.84
27.46
23.9
20.47
17.48
15.02
12.94
10.84
8.26
4.9
0.75
-3.81
-8.29
-12.25
-15.59
-18.53
-21.51
-25.04
-29.53
-35.22
-42.12
-49.97
-58.07
-65.27
-70.11
-71.2
-67.7
-59.6
-47.91
-34.29
-20.62
-8.39
1.57
9.13
14.69
18.74
21.65
23.55
24.51
24.62
24.22
23.81
23.86
24.68
26.2
28.15
30.18
32.04
33.66
35.01
36.07
36.62
36.44
35.28
33.05
29.86
25.98
21.74
17.52
13.69
10.54
8.11
6.22
4.38
2.09
-0.98
-4.79
-8.94
-12.91
-16.37
-19.3
-22.02
-25.02
-28.87
-33.92
-40.26
-47.54
-54.84
-60.85
-64.05
-63.2
-57.81
-48.35
-36.13
-22.95
-10.45
0.13
8.27
13.92
17.44
19.28
19.95
19.89
19.47
19.04
18.86
19.12
19.89
21.18
22.85
24.65
26.37
27.76
28.72
29.18
29.14
28.54
27.31
25.34
22.59
19.19
15.36
11.48
7.9
4.89
2.51
0.6
-1.19
-3.19
-5.62
-8.56
-11.87
-15.33
-18.67
-21.75
-24.58
-27.44
-30.79
-35.18
-41.05
-48.45
-56.89
-65.31
-72.2
-76.01
-75.56
-70.41
-61.0
-48.58
-34.87
-21.58
-10.02
-0.8
6.15
11.31
15.22
18.26
20.59
22.23
23.3
24.05
24.83
25.96
27.53
29.46
31.5
33.38
34.9
35.98
36.59
36.78
36.64
36.23
35.52
34.39
32.65
30.23
27.25
24.05
21.03
18.51
16.53
14.85
13.11
10.95
8.19
4.84
1.07
-2.85
-6.64
-10.04
-12.95
-15.48
-17.98
-20.97
-25.0
-30.46
-37.37
-45.23
-53.02
-59.27
-62.43
-61.27
-55.38
-45.34
-32.7
-19.44
-7.39
2.32
9.46
14.45
17.98
20.58
22.45
23.51
23.69
23.16
22.33
21.76
21.9
22.92
24.69
26.85
28.99
30.84
32.27
33.27
33.79
33.73
32.83
30.9
27.88
24.01
19.81
15.92
12.93
11.1
10.25
9.82
9.11
7.51
4.78
1.09
-3.04
-7.01
-10.4
-13.03
-15.08
-16.95
-19.19
-22.4
-27.01
-33.07
-40.06
-46.79
-51.69
-53.19
-50.34
-43.14
-32.58
-20.32
-8.1
2.76
11.51
18.07
22.65
25.58
27.12
27.44
26.72
25.24
23.43
21.93
21.37
22.15
24.23
27.08
29.88
31.89
32.79
32.72
32.18
31.57
31.0
30.21
28.76
26.36
23.05
19.24
15.46
12.19
9.63
7.66
5.96
4.11
1.76
-1.25
-4.8
-8.58
-12.16
-15.24
-17.8
-20.13
-22.74
-26.14
-30.7
-36.54
-43.34
-50.38
-56.46
-60.2
-60.26
-55.97
-47.57
-36.31
-24.09
-12.69
-3.33
3.68
8.71
12.4
15.24
17.39
18.8
19.48
19.59
19.53
19.7
20.38
21.65
23.3
25.03
26.51
27.58
28.18
28.42
28.42
28.23
27.78
26.87
25.29
22.99
20.12
17.0
14.03
11.48
9.43
7.73
6.16
4.46
2.44
-0.01
-2.91
-6.19
-9.65
-13.02
-16.01
-18.5
-20.62
-22.81
-25.61
-29.56
-34.82
-41.11
-47.64
-53.26
-56.74
-57.03
-53.6
-46.63
-36.96
-26.0
-15.27
-6.03
1.03
5.87
8.95
10.9
12.23
13.2
13.95
14.49
14.97
15.58
16.51
17.85
19.46
21.08
22.39
23.16
23.32
22.98
22.4
21.75
21.18
20.58
19.74
18.39
16.41
13.93
11.26
8.78
6.67
4.91
3.22
1.27
-1.2
-4.14
-7.4
-10.7
-13.81
-16.64
-19.14
-21.4
-23.53
-25.77
-28.41
-31.84
-36.37
-42.0
-48.29
-54.26
-58.62
-60.1
-57.88
-51.93
-43.04
-32.55
-21.97
-12.52
-4.86
0.9
5.06
7.96
9.89
10.99
11.36
11.15
10.65
10.22
10.18
10.73
11.85
13.39
15.09
16.69
17.98
18.79
18.99
18.52
17.37
15.58
13.26
10.54
7.59
4.6
1.72
-0.96
-3.5
-6.09
-8.95
-12.18
-15.7
-19.24
-22.44
-25.11
-27.39
-29.75
-32.86
-37.3
-43.21
-50.14
-57.05
-62.57
-65.27
-64.17
-58.87
-49.86
-38.38
-26.05
-14.53
-4.95
2.21
7.16
10.44
12.65
14.16
15.11
15.6
15.84
16.18
17.02
18.57
20.76
23.27
25.69
27.7
29.2
30.18
30.71
30.77
30.26
29.08
27.15
24.51
21.3
17.82
14.36
11.2
8.46
6.09
3.84
1.4
-1.47
-4.85
-8.63
-12.56
-16.4
-20.01
-23.46
-27.03
-31.16
-36.37
-43.05
-51.22
-60.24
-68.84
-75.33
-78.11
-76.14
-69.41
-58.88
-46.17
-33.09
-21.1
-11.02
-3.16
2.65
6.73
9.44
11.17
12.31
13.23
14.25
15.59
17.34
19.45
21.79
24.2
26.52
28.64
30.5
32.06
33.27
34.01
34.1
33.31
31.55
28.9
25.64
22.19
18.93
16.07
13.47
10.83
7.78
4.11
-0.12
-4.63
-9.04
-13.09
-16.72
-20.18
-23.89
-28.41
-34.17
-41.37
-49.75
-58.45
-66.07
-70.88
-71.31
-66.49
-56.65
-43.09
-27.82
-12.89
0.12
10.5
18.27
23.83
27.74
30.33
31.82
32.46
32.56
32.62
33.09
34.32
36.34
38.96
41.82
44.51
46.77
48.42
49.43
49.76
49.34
48.08
45.9
42.83
39.05
34.9
30.75
26.91
23.48
20.27
16.91
12.99
8.29
2.88
-2.84
-8.36
-13.29
-17.59
-21.6
-25.99
-31.49
-38.67
-47.67
-58.03
-68.62
-77.73
-83.44
-84.15
-79.01
-68.37
-53.66
-37.03
-20.67
-6.29
5.32
14.17
20.78
25.8
29.72
32.79
35.15
36.92
38.36
39.79
41.49
43.61
46.06
48.59
50.87
52.72
54.09
55.05
55.58
55.57
54.77
52.88
49.77
45.56
40.66
35.64
31.08
27.3
24.28
21.65
18.85
15.37
10.99
5.88
0.52
-4.51
-8.83
-12.45
-15.86
-19.82
-25.18
-32.52
-41.92
-52.7
-63.49
-72.36
-77.34
-76.98
-70.89
-59.87
-45.7
-30.55
-16.34
-4.25
5.36
12.75
18.43
22.8
26.05
28.26
29.52
30.08
30.37
30.86
31.92
33.72
36.15
38.94
41.71
44.15
45.99
47.05
47.22
46.38
44.55
41.8
38.33
34.36
30.14
25.83
21.5
17.15
12.77
8.36
4.0
-0.22
-4.27
-8.23
-12.33
-16.94
-22.49
-29.29
-37.4
-46.4
-55.35
-62.79
-67.11
-66.93
-61.59
-51.44
-37.81
-22.63
-7.91
4.87
14.99
22.45
27.76
31.53
34.2
36.01
37.14
37.78
38.3
39.06
40.35
42.2
44.35
46.38
47.91
48.77
49.03
48.88
48.46
47.75
46.53
44.51
41.5
37.6
33.17
28.74
24.74
21.36
18.42
15.5
12.14
8.09
3.44
-1.45
-6.12
-10.32
-14.1
-17.88
-22.25
-27.83
-34.9
-43.33
-52.34
-60.67
-66.72
-69.0
-66.55
-59.31
-48.17
-34.71
-20.74
-7.83
3.05
11.56
17.82
22.22
25.17
27.1
28.36
29.25
30.05
30.98
32.22
33.81
35.72
37.72
39.56
40.99
41.87
42.19
42.03
41.41
40.23
38.31
35.49
31.83
27.66
23.49
19.8
16.74
14.12
11.52
8.52
4.89
0.74
-3.59
-7.74
-11.46
-14.71
-17.71
-20.92
-24.91
-30.21
-37.03
-44.96
-52.92
-59.26
-62.27
-60.72
-54.33
-43.85
-30.85
-17.19
-4.57
5.89
13.69
18.92
21.97
23.4
23.67
23.18
22.28
21.32
20.76
20.95
22.11
24.08
26.45
28.69
30.39
31.42
31.89
31.98
31.74
30.98
29.41
26.85
23.33
19.22
15.02
11.18
7.92
5.19
2.66
0.02
-3.01
-6.49
-10.22
-13.9
-17.3
-20.41
-23.53
-27.17
-31.88
-38.0
-45.41
-53.48
-61.01
-66.49
-68.51
-66.11
-59.17
-48.53
-35.75
-22.65
-10.77
-1.01
6.44
11.94
16.0
19.03
21.25
22.7
23.49
23.79
23.92
24.27
25.07
26.4
28.07
29.72
30.95
31.5
31.34
30.68
29.79
28.76
27.53
25.81
23.35
20.13
16.5
13.0
10.12
8.02
6.43
4.8
2.49
-0.85
-5.11
-9.82
-14.37
-18.24
-21.27
-23.72
-26.13
-29.18
-33.43
-39.15
-46.12
-53.61
-60.39
-65.08
-66.4
-63.63
-56.83
-46.88
-35.16
-23.25
-12.43
-3.52
3.18
7.75
10.56
12.05
12.69
12.89
13.0
13.2
13.65
14.4
15.47
16.85
18.48
20.22
21.89
23.33
24.36
24.89
24.86
24.22
22.97
21.12
18.76
16.04
13.13
10.15
7.19
4.24
1.25
-1.82
-4.94
-8.09
-11.2
-14.22
-17.18
-20.16
-23.37
-27.15
-31.83
-37.59
-44.18
-50.79
-56.09
-58.61
-57.14
-51.34
-41.84
-30.12
-18.04
-7.2
1.46
7.77
12.11
15.03
16.97
18.11
18.49
18.23
17.63
17.18
17.38
18.47
20.33
22.52
24.57
26.13
27.17
27.87
28.4
28.8
28.89
28.36
26.91
24.44
21.1
17.23
13.34
9.88
7.07
4.87
2.92
0.77
-1.99
-5.42
-9.33
-13.29
-16.87
-19.92
-22.54
-25.08
-28.0
-31.7
-36.48
-42.42
-49.27
-56.33
-62.4
-66.0
-65.79
-61.08
-52.12
-40.18
-27.13
-14.82
-4.6
2.99
8.14
11.46
13.62
15.11
16.21
17.07
17.84
18.7
19.82
21.31
23.12
25.01
26.68
27.82
28.29
28.16
27.67
27.05
26.42
25.69
24.61
22.91
20.48
17.46
14.22
11.15
8.56
6.52
4.81
3.12
1.15
-1.29
-4.18
-7.31
-10.42
-13.28
-15.82
-18.15
-20.65
-23.76
-27.95
-33.43
-40.08
-47.32
-54.17
-59.32
-61.5
-59.8
-54.03
-44.83
-33.55
-21.89
-11.33
-2.79
3.51
7.93
11.02
13.23
14.82
15.85
16.41
16.67
16.84
17.2
17.95
19.12
20.7
22.54
24.41
26.01
27.04
27.25
26.55
25.02
22.84
20.23
17.36
14.34
11.26
8.23
5.35
2.72
0.27
-2.12
-4.58
-7.24
-10.11
-13.17
-16.42
-19.92
-23.86
-28.48
-33.93
-40.14
-46.63
-52.44
-56.29
-56.91
-53.5
-46.17
-35.92
-24.44
-13.48
-4.31
2.64
7.64
11.33
14.29
16.77
18.72
20.01
20.62
20.77
20.93
21.48
22.7
24.58
26.82
29.04
30.82
31.93
32.32
32.09
31.32
30.04
28.21
25.71
22.61
19.12
15.68
12.74
10.55
9.0
7.66
5.96
3.42
-0.1
-4.35
-8.83
-12.99
-16.53
-19.46
-22.08
-24.88
-28.36
-32.88
-38.52
-44.96
-51.39
-56.61
-59.31
-58.41
-53.52
-45.1
-34.38
-22.99
-12.44
-3.76
2.71
7.17
10.14
12.16
13.6
14.64
15.36
15.85
16.27
16.87
17.88
19.43
21.31
23.19
24.63
25.37
25.41
24.94
24.23
23.38
22.33
20.91
19.03
16.75
14.26
11.78
9.4
7.08
4.68
2.04
-0.93
-4.19
-7.64
-11.06
-14.21
-16.87
-19.08
-21.11
-23.45
-26.63
-31.02
-36.64
-43.07
-49.51
-54.92
-58.18
-58.34
-54.87
-47.92
-38.33
-27.44
-16.71
-7.29
0.3
6.09
10.39
13.56
15.79
17.17
17.81
17.91
17.82
17.85
18.28
19.14
20.4
21.93
23.58
25.14
26.39
27.1
27.1
26.23
24.48
21.91
18.69
15.12
11.56
8.35
5.69
3.52
1.51
-0.77
-3.61
-7.07
-10.91
-14.73
-18.18
-21.14
-23.75
-26.37
-29.47
-33.51
-38.78
-45.26
-52.38
-59.1
-63.95
-65.5
-62.82
-55.85
-45.49
-33.31
-21.11
-10.29
-1.62
4.85
9.52
12.94
15.5
17.44
18.86
19.92
20.86
21.99
23.59
25.77
28.35
