0
21.6
31.5
38.9
44.33
48.16
50.64
51.94
52.26
51.93
51.35
50.92
50.87
51.23
51.86
52.66
53.67
55.04
56.9
59.14
61.32
62.73
62.68
60.71
56.83
51.46
45.28
38.97
33.05
27.66
22.68
17.76
12.49
6.57
-0.07
-7.26
-14.54
-21.4
-27.38
-32.25
-36.19
-39.78
-43.85
-49.27
-56.52
-65.34
-74.58
-82.37
-86.65
-85.72
-78.86
-66.49
-50.04
-31.51
-12.87
4.33
19.15
31.25
40.63
47.54
52.28
55.26
56.83
57.36
57.15
56.39
55.24
53.86
52.42
51.17
50.31
50.02
50.35
51.19
52.33
53.43
54.09
53.96
52.81
50.64
47.65
44.18
40.49
36.7
32.7
28.28
23.28
17.72
11.84
5.96
0.42
-4.62
-9.17
-13.45
-17.78
-22.45
-27.61
-33.14
-38.75
-44.12
-49.07
-53.75
-58.56
-64.14
-71.01
-79.47
-89.24
-99.4
-108.37
-114.15
-114.79
-108.95
-96.43
-78.27
-56.57
-33.84
-12.37
6.31
21.46
33.01
41.25
46.61
49.64
50.94
51.15
50.91
50.67
50.69
51.01
51.52
52.07
52.55
52.99
53.53
54.36
55.67
57.44
59.38
60.99
61.64
60.87
58.5
54.7
49.96
44.86
39.93
35.44
31.44
27.72
23.96
19.89
15.35
10.43
5.39
0.5
-4.04
-8.25
-12.3
-16.46
-20.93
-25.7
-30.63
-35.48
-40.11
-44.5
-48.79
-53.24
-58.14
-63.81
-70.54
-78.46
-87.38
-96.53
-104.51
-109.44
-109.42
-103.18
-90.55
-72.69
-51.73
-30.18
-10.17
6.92
20.65
31.21
39.01
44.47
47.88
49.5
49.7
48.94
47.73
46.51
45.52
44.82
44.38
44.13
44.08
44.26
44.7
45.36
46.1
46.66
46.72
45.93
44.05
41.03
36.97
32.14
26.78
21.1
15.18
9.12
3.09
-2.68
-7.94
-12.61
-16.82
-20.86
-25.06
-29.58
-34.29
-38.9
-43.07
-46.67
-49.86
-53.1
-57.03
-62.27
-69.14
-77.47
-86.4
-94.4
-99.59
-100.24
-95.22
-84.43
-68.81
-50.11
-30.36
-11.43
5.4
19.45
30.58
38.97
44.82
48.41
50.06
50.21
49.46
48.46
47.75
47.63
48.06
48.78
49.53
50.16
50.74
51.41
52.28
53.24
53.94
53.9
52.66
49.97
45.84
40.59
34.73
28.77
23.06
17.6
12.12
6.23
-0.37
-7.65
-15.21
-22.46
-28.87
-34.18
-38.53
-42.36
-46.27
-50.89
-56.74
-64.09
-72.74
-81.89
-90.03
-95.26
-95.71
-90.26
-78.91
-62.87
-44.2
-25.13
-7.49
7.66
20.0
29.68
37.04
42.37
45.9
47.83
48.46
48.17
47.41
46.55
45.89
45.6
45.74
46.33
47.3
48.5
49.7
50.64
51.09
50.93
50.11
48.62
46.45
43.55
39.85
35.33
30.08
24.27
18.14
11.99
6.11
0.71
-4.11
-8.46
-12.63
-16.93
-21.56
-26.51
-31.59
-36.58
-41.41
-46.21
-51.27
-56.95
-63.56
-71.33
-80.3
-90.22
-100.27
-108.98
-114.41
-114.64
-108.41
-95.68
-77.74
-56.78
-35.28
-15.26
2.08
16.35
27.74
36.71
43.63
48.8
52.4
54.69
56.01
56.8
57.51
58.45
59.7
61.14
62.58
63.93
65.23
66.59
67.98
69.18
69.76
69.27
67.47
64.42
60.45
56.01
51.48
47.08
42.81
38.5
33.89
28.8
23.19
17.32
11.6
6.47
2.17
-1.42
-4.71
-8.21
-12.31
-17.06
-22.26
-27.52
-32.5
-37.02
-41.18
-45.39
-50.27
-56.53
-64.59
-74.31
-84.74
-94.15
-100.41
-101.66
-96.82
-85.99
-70.38
-51.88
-32.55
-14.14
2.15
15.7
26.37
34.32
39.95
43.75
46.23
47.81
48.8
49.31
49.38
49.06
48.51
47.96
47.72
48.01
48.9
50.22
51.67
52.86
53.4
53.04
51.68
49.38
46.36
42.84
38.99
34.89
30.48
25.73
20.68
15.53
10.59
6.18
2.48
-0.59
-3.32
-6.12
-9.33
-13.06
-17.23
-21.57
-25.78
-29.66
-33.21
-36.66
-40.39
-44.92
-50.61
-57.62
-65.63
-73.82
-80.88
-85.27
-85.56
-80.9
-71.35
-57.94
-42.4
-26.67
-12.32
-0.24
9.43
17.01
22.94
27.51
30.81
32.86
33.82
34.07
34.16
34.6
35.7
37.44
39.55
41.67
43.5
44.89
45.88
46.5
46.8
46.7
46.02
44.6
42.32
39.22
35.46
31.24
26.81
22.33
17.95
13.75
9.76
5.95
2.24
-1.46
-5.17
-8.87
-12.42
-15.72
-18.73
-21.56
-24.42
-27.56
-31.16
-35.4
-40.36
-46.07
-52.39
-58.78
-64.3
-67.74
-67.94
-64.23
-56.67
-46.13
-33.97
-21.6
-10.17
-0.3
7.81
14.3
19.35
23.14
25.75
27.27
27.87
27.86
27.66
27.59
27.82
28.31
28.85
29.3
29.6
29.85
30.23
30.8
31.49
32.07
32.23
31.77
30.6
28.78
26.5
23.96
21.38
18.85
16.41
14.06
11.77
9.56
7.42
5.28
2.98
0.39
-2.51
-5.55
-8.34
-10.61
-12.31
-13.75
-15.48
-17.95
-21.25
-25.02
-28.69
-31.8
-34.27
-36.41
-38.74
-41.73
-45.61
-50.3
-55.44
-60.44
-64.56
-66.9
-66.63
-63.24
-56.75
-47.77
-37.36
-26.7
-16.81
-8.34
-1.59
3.47
7.0
9.33
10.81
11.8
12.59
13.43
14.42
15.56
16.83
18.12
19.38
20.56
21.7
22.85
24.1
25.41
26.63
27.51
27.79
27.33
26.14
24.37
22.22
19.91
17.66
15.75
14.37
13.61
13.33
13.21
12.87
12.08
10.81
9.2
7.42
5.57
3.61
1.53
-0.72
-3.03
-5.27
-7.33
-9.18
-10.99
-13.04
-15.61
-18.9
-22.89
-27.31
-31.74
-35.77
-39.16
-41.94
-44.42
-47.02
-50.22
-54.4
-59.75
-66.16
-73.07
-79.46
-84.04
-85.61
-83.48
-77.67
-68.9
-58.29
-47.05
-36.17
-26.26
-17.62
-10.23
-3.95
1.4
5.96
9.78
12.84
15.17
16.93
18.3
19.52
20.72
21.98
23.34
24.89
26.65
28.57
30.42
31.87
32.68
32.8
32.37
31.63
30.71
29.6
28.18
26.41
24.41
22.4
20.55
18.85
17.08
14.95
12.24
8.97
5.3
1.57
-1.87
-4.79
-7.13
-9.11
-11.16
-13.78
-17.3
-21.73
-26.71
-31.68
-36.2
-40.1
-43.6
-47.16
-51.28
-56.36
-62.54
-69.75
-77.62
-85.49
-92.24
-96.53
-97.03
-92.85
-83.87
-70.82
-55.12
-38.44
-22.28
-7.67
4.95
15.6
24.5
31.83
37.62
41.88
44.65
46.18
46.96
47.58
48.56
50.17
52.41
55.07
57.89
60.63
63.17
65.43
67.29
68.57
68.93
68.1
65.89
62.37
57.88
52.93
48.03
43.45
39.2
35.06
30.77
26.19
21.37
16.5
11.83
7.55
3.73
0.33
-2.81
-5.97
-9.48
-13.64
-18.56
-24.15
-30.07
-35.92
-41.38
-46.35
-51.01
-55.75
-61.12
-67.67
-75.8
-85.48
-96.06
-106.08
-113.55
-116.37
-112.95
-102.84
-86.76
-66.52
-44.39
-22.57
-2.76
14.04
27.52
37.87
45.62
51.41
55.75
58.99
61.26
62.64
63.26
63.46
63.64
64.25
65.52
67.46
69.89
72.49
74.97
77.06
78.54
79.2
78.84
77.35
74.71
71.12
66.9
62.43
57.96
53.56
49.07
44.3
39.2
33.91
28.77
24.13
20.17
16.82
13.8
10.77
7.48
3.84
-0.09
-4.21
-8.45
-12.8
-17.37
-22.3
-27.72
-33.55
-39.57
-45.44
-50.77
-55.39
-59.43
-63.28
-67.61
-73.11
-80.37
-89.53
-99.99
-110.25
-118.04
-120.84
-116.62
-104.63
-85.7
-62.07
-36.67
-12.31
8.98
26.19
39.24
48.66
55.23
59.76
62.89
65.02
66.38
67.08
67.27
67.14
66.93
66.84
66.97
67.33
67.9
68.72
69.77
70.99
72.13
72.78
72.52
71.04
68.25
64.32
59.58
54.4
49.1
43.87
38.81
33.95
29.29
24.92
20.93
17.41
14.33
11.48
8.57
5.32
1.6
-2.48
-6.64
-10.66
-14.41
-18.05
-21.89
-26.25
-31.34
-37.15
-43.44
-49.92
-56.23
-62.14
-67.48
-72.31
-76.81
-81.43
-86.77
-93.4
-101.51
-110.6
-119.25
-125.3
-126.4
-120.81
-107.98
-88.9
-65.74
-41.22
-17.83
2.68
19.47
32.41
41.83
48.18
51.95
53.68
53.92
53.34
52.6
52.29
52.76
54.08
56.06
58.31
60.49
62.41
64.08
65.6
67.01
68.15
68.66
68.14
66.35
63.3
59.25
54.58
49.64
44.63
39.63
34.6
29.51
24.31
19.06
13.87
8.89
4.29
0.15
-3.64
-7.35
-11.31
-15.8
-20.87
-26.35
-31.91
-37.29
-42.36
-47.26
-52.26
-57.84
-64.44
-72.41
-81.71
-91.65
-100.83
-107.29
-108.97
-104.36
-93.06
-76.02
-55.21
-33.07
-11.91
6.65
21.82
33.52
42.13
48.2
52.25
54.67
55.79
55.9
55.3
54.31
53.25
52.37
51.85
51.78
52.18
53.09
54.49
56.23
58.08
59.63
60.45
60.22
58.79
56.26
52.85
48.86
44.52
40.02
35.48
31.01
26.74
22.76
19.14
15.88
12.94
10.27
7.88
5.81
4.06
2.6
1.25
-0.22
-2.07
-4.43
-7.32
-10.65
-14.27
-18.09
-22.06
-26.21
-30.53
-35.06
-39.82
-44.79
-49.91
-55.01
-59.86
-64.2
-67.96
-71.42
-75.21
-80.16
-86.91
-95.49
-105.04
-113.77
-119.4
-119.77
-113.62
-100.92
-82.96
-61.95
-40.28
-20.02
-2.46
11.97
23.42
32.33
39.17
44.31
48.0
50.5
52.02
52.86
53.31
53.67
54.2
55.05
56.23
57.66
59.21
60.71
62.08
63.23
64.04
64.3
63.78
62.25
59.68
56.28
52.37
48.3
44.29
40.37
36.44
32.41
28.31
24.29
20.58
17.32
14.53
12.13
10.01
8.1
6.41
4.92
3.53
2.0
0.02
-2.65
-6.03
-9.88
-13.82
-17.52
-20.84
-23.9
-26.97
-30.29
-33.97
-37.95
-42.13
-46.38
-50.63
-54.82
-58.92
-62.88
-66.74
-70.67
-75.07
-80.42
-87.02
-94.7
-102.51
-108.82
-111.67
-109.39
-101.2
-87.49
-69.79
-50.25
-31.0
-13.68
0.87
12.48
21.43
28.18
33.18
36.78
39.3
41.0
42.15
43.04
43.96
45.17
46.82
48.9
51.29
53.77
56.13
58.2
59.88
61.06
61.63
61.44
60.35
58.31
55.44
51.94
48.07
44.06
40.04
36.02
31.99
27.96
23.96
20.1
16.46
13.08
9.95
7.02
4.24
1.57
-1.05
-3.73
-6.59
-9.78
-13.38
-17.35
-21.56
-25.85
-30.05
-34.09
-37.91
-41.59
-45.23
-49.08
-53.43
-58.63
-65.01
-72.56
-80.83
-88.74
-94.7
-97.02
-94.37
-86.32
-73.56
-57.66
-40.65
-24.35
-9.98
2.02
11.78
19.71
26.24
31.61
35.91
39.14
41.32
42.61
43.22
43.49
43.7
44.09
44.81
45.91
47.37
49.14
51.11
53.05
54.66
55.55
55.43
54.18
51.93
49.02
45.85
42.74
39.84
37.17
34.63
32.11
29.54
26.92
24.3
21.78
19.44
17.35
15.57
14.14
13.03
12.13
11.26
10.2
8.78
7.0
5.03
3.08
1.27
-0.46
-2.32
-4.6
-7.4
-10.59
-13.86
-16.92
-19.63
-22.07
-24.52
-27.25
-30.42
-33.98
-37.75
-41.49
-44.98
-48.11
-50.9
-53.52
-56.32
-59.78
-64.42
-70.57
-78.26
-86.9
-95.22
-101.52
-103.97
-101.26
-93.05
-80.08
-64.06
-47.06
-30.91
-16.75
-5.02
4.44
11.96
17.92
22.59
26.23
29.09
31.43
33.41
35.06
36.41
37.5
38.5
39.63
41.11
43.0
45.2
47.46
49.51
51.12
52.1
52.27
51.5
49.71
47.02
43.72
40.25
36.98
34.13
31.64
29.26
26.68
23.64
20.13
16.35
12.67
9.43
6.85
4.96
3.54
2.26
0.81
-1.09
-3.53
-6.5
-9.87
-13.43
-16.93
-20.21
-23.27
-26.27
-29.46
-33.06
-37.06
-41.3
-45.48
-49.43
-53.18
-57.02
-61.34
-66.51
-72.69
-79.73
-87.01
-93.4
-97.43
-97.56
-92.71
-82.64
-68.16
-50.91
-32.88
-15.82
-0.9
11.41
21.12
28.54
34.02
37.98
40.73
42.53
43.56
43.95
43.92
43.77
43.9
44.63
46.14
48.3
50.8
53.24
55.36
57.02
58.17
58.74
58.59
57.51
55.35
52.17
48.24
44.01
39.98
36.39
33.22
30.16
26.83
23.04
18.86
14.66
10.91
7.85
5.5
3.57
1.71
-0.35
-2.71
-5.44
-8.58
-12.23
-16.5
-21.35
-26.63
-32.05
-37.34
-42.29
-46.84
-51.1
-55.28
-59.83
-65.23
-71.91
-79.97
-88.91
-97.49
-103.95
-106.44
-103.58
-94.93
-81.17
-63.91
-45.25
-27.15
-11.04
2.43
13.27
21.87
28.71
34.14
38.43
41.8
44.48
46.64
48.36
49.57
50.25
50.47
50.54
50.95
52.08
54.09
56.76
59.66
62.28
64.23
65.27
65.27
64.15
61.93
58.76
54.97
50.98
47.17
43.73
40.63
37.69
34.75
31.72
28.65
25.69
23.03
20.8
19.08
17.83
16.9
16.03
15.0
13.61
11.75
9.37
6.51
3.22
-0.37
-4.1
-7.79
-11.32
-14.72
-18.18
-21.92
-26.14
-30.94
-36.25
-41.86
-47.51
-52.9
-57.78
-62.04
-65.84
-69.66
-74.2
-80.19
-88.0
-97.24
-106.63
-114.19
-117.74
-115.58
-107.07
-92.81
-74.51
-54.39
-34.61
-16.72
-1.6
10.54
19.85
26.72
31.58
34.89
37.15
38.78
40.15
41.48
42.91
44.47
46.16
47.94
49.79
51.63
53.45
55.19
56.79
58.11
58.9
58.89
57.83
55.66
52.49
48.6
44.3
39.89
35.58
31.54
27.9
24.68
21.76
18.89
15.77
12.23
8.36
4.43
0.83
-2.17
-4.58
-6.67
-8.85
-11.52
-14.88
-18.96
-23.62
-28.66
-33.85
-39.01
-44.02
-48.89
-53.81
-59.19
-65.5
-73.07
-81.75
-90.66
-98.2
-102.35
-101.29
-94.08
-80.99
-63.51
-43.84
-24.2
-6.28
9.01
21.45
31.19
38.53
43.81
47.37
49.56
50.78
51.34
51.47
51.31
51.01
50.78
50.86
51.5
52.79
54.71
57.05
59.44
61.49
62.75
62.91
61.77
59.39
56.02
52.04
47.82
43.63
39.54
35.53
31.54
27.55
23.59
19.72
15.99
12.38
8.9
5.53
2.29
-0.84
-3.88
-6.89
-9.99
-13.3
-16.96
-21.08
-25.76
-30.99
-36.63
-42.41
-47.99
-53.09
-57.64
-61.88
-66.29
-71.5
-78.09
-86.24
-95.49
-104.6
-111.77
-115.01
-112.77
-104.42
-90.45
-72.24
-51.72
-30.91
-11.5
5.27
18.81
29.08
36.55
41.96
46.01
49.2
51.7
53.52
54.66
55.26
55.62
56.04
56.77
57.88
59.33
61.02
62.83
64.6
66.1
67.07
67.24
66.44
64.58
61.73
58.09
53.98
49.78
45.83
42.27
39.05
35.94
32.67
29.08
25.23
21.33
17.67
14.43
11.69
9.38
7.32
5.28
3.01
0.3
-2.93
-6.6
-10.51
-14.43
-18.26
-22.08
-26.14
-30.7
-35.86
-41.48
-47.26
-52.86
-58.02
-62.72
-67.07
-71.37
-76.02
-81.46
-88.09
-96.01
-104.75
-113.11
-119.29
-121.26
-117.48
-107.38
-91.67
-72.15
-51.17
-30.99
-13.24
1.34
12.83
21.78
28.87
34.63
39.28
42.82
45.2
46.49
47.0
47.19
47.58
48.53
50.1
52.12
54.25
56.24
57.96
59.45
60.76
61.85
62.48
62.3
60.97
58.32
54.5
49.94
45.17
40.68
36.68
33.15
29.83
26.41
22.7
18.72
14.65
10.86
7.61
4.98
2.71
0.32
-2.77
-6.99
-12.4
-18.67
-25.23
-31.47
-37.03
-41.89
-46.32
-50.84
-56.04
-62.43
-70.32
-79.56
-89.3
-98.06
-103.89
-104.9
-99.91
-88.84
-72.81
-53.77
-33.99
-15.4
0.73
13.92
24.3
32.39
38.73
43.74
47.66
50.54
52.48
53.69
54.52
55.33
56.32
57.47
58.57
59.35
59.76
59.91
60.05
60.35
60.76
61.01
60.72
59.56
57.4
54.32
50.55
46.38
42.08
37.85
33.85
30.18
26.82
23.74
20.83
18.04
15.39
12.91
10.65
8.59
6.58
4.41
1.87
-1.14
-4.56
-8.24
-11.91
-15.39
-18.64
-21.79
-25.13
-28.94
-33.39
-38.45
-43.91
-49.38
-54.52
-59.12
-63.14
-66.84
-70.59
-74.94
-80.45
-87.46
-95.81
-104.64
-112.34
-116.77
-115.93
-108.58
-94.76
-75.87
-54.27
-32.62
-13.12
2.95
15.35
24.62
31.67
37.41
42.37
46.71
50.34
53.15
55.15
56.54
57.62
58.58
59.57
60.59
61.61
62.68
63.9
65.25
66.56
67.45
67.43
66.12
63.43
59.61
55.19
50.74
46.71
43.27
40.27
37.39
34.32
30.9
27.21
23.48
19.95
16.78
13.97
11.44
9.08
6.86
4.75
2.67
0.43
-2.23
-5.48
-9.32
-13.54
-17.81
-21.81
-25.43
-28.76
-32.07
-35.64
-39.62
-44.0
-48.59
-53.15
-57.49
-61.58
-65.59
-69.84
-74.74
-80.68
-87.87
-96.18
-104.97
-113.0
-118.61
-120.01
-115.88
-105.75
-90.27
-71.07
-50.28
-29.99
-11.78
3.51
15.7
25.13
32.29
37.7
41.79
44.83
47.06
48.72
50.13
51.62
53.42
55.61
58.07
60.57
62.9
64.97
66.77
68.28
69.36
69.75
69.12
67.29
64.28
60.33
55.78
51.02
46.38
42.04
38.05
34.35
30.76
27.12
23.38
19.64
16.17
13.19
10.79
8.76
6.72
4.29
1.28
-2.28
-6.18
-10.2
-14.23
-18.31
-22.61
-27.26
-32.33
-37.75
-43.3
-48.69
-53.59
-57.85
-61.58
-65.18
-69.34
-74.77
-81.86
-90.44
-99.56
-107.61
-112.63
-112.81
-107.07
-95.37
-78.81
-59.29
-39.04
-19.95
-3.27
10.55
21.63
30.38
37.25
42.62
46.76
49.89
52.16
53.69
54.61
55.09
55.43
55.9
56.78
58.18
59.98
61.91
63.63
64.85
65.46
65.39
64.66
63.26
61.19
58.56
55.56
52.44
49.4
46.48
43.59
40.54
37.17
33.51
29.72
26.12
23.02
20.61
18.89
17.68
16.66
15.5
13.97
12.02
9.72
7.26
4.74
2.21
-0.38
-3.14
-6.13
-9.4
-12.91
-16.64
-20.51
-24.38
-28.12
-31.61
-34.89
-38.1
-41.49
-45.26
-49.42
-53.78
-58.03
-61.9
-65.34
-68.59
-72.21
-76.86
-83.14
-91.26
-100.77
-110.37
-118.15
-121.93
-119.99
-111.56
-97.14
-78.31
-57.23
-36.04
-16.43
0.61
14.65
25.71
34.07
40.2
44.61
47.76
49.98
51.44
52.26
52.6
52.74
52.97
53.56
54.55
55.91
57.5
59.23
61.03
62.73
64.04
64.56
64.0
62.27
59.55
56.21
52.55
48.73
44.76
40.63
36.38
32.11
27.94
23.92
19.99
16.16
12.49
9.21
6.6
4.78
3.63
2.79
1.75
0.04
-2.57
-6.06
-10.11
-14.24
-18.02
-21.24
-23.98
-26.66
-29.78
-33.77
-38.78
-44.63
-50.89
-57.01
-62.54
-67.23
-71.17
-74.76
-78.68
-83.68
-90.24
-98.21
-106.58
-113.51
-116.77
-114.43
-105.57
-90.61
-71.15
-49.53
-28.06
-8.57
7.9
20.96
30.74
37.6
42.07
44.74
46.24
47.18
48.03
49.08
50.41
51.88
53.36
54.72
55.94
57.13
58.38
59.77
61.26
62.7
63.86
64.46
64.2
62.9
60.53
57.26
53.48
49.59
45.92
42.53
39.27
35.89
32.19
28.2
24.16
20.4
17.17
14.56
12.48
10.74
9.1
7.31
5.17
2.5
-0.68
-4.31
-8.22
-12.24
-16.3
-20.42
-24.7
-29.26
-34.19
-39.49
-45.16
-51.07
-57.05
-62.86
-68.24
-73.16
-77.88
-83.03
-89.39
-97.47
-106.98
-116.63
-124.23
-127.28
-123.84
-113.25
-96.33
-75.17
-52.37
-30.32
-10.7
5.63
18.56
28.34
35.47
40.51
44.06
46.67
48.74
50.52
52.12
53.65
55.18
56.81
58.58
60.5
62.48
64.43
66.34
68.21
69.97
71.45
72.31
72.19
70.89
68.48
65.25
61.6
57.87
54.17
50.46
46.65
42.73
38.79
35.0
31.52
28.46
25.94
23.97
22.53
21.46
20.48
19.29
17.68
15.6
13.18
10.62
8.04
5.41
2.6
-0.53
-4.0
-7.7
-11.45
-15.08
-18.41
-21.4
-24.08
-26.62
-29.35
-32.7
-37.02
-42.41
-48.58
-54.93
-60.81
-65.78
-69.88
-73.62
-77.87
-83.53
-91.21
-100.91
-111.85
-122.39
-130.28
-133.17
-129.23
-117.83
-99.73
-76.94
-52.17
-28.06
-6.63
10.97
24.46
34.18
40.76
44.99
47.66
49.45
50.88
52.27
53.7
55.11
56.32
57.17
57.62
57.81
58.0
58.56
59.72
61.5
63.68
65.82
67.4
67.92
67.11
64.91
61.51
57.28
52.64
47.97
43.51
39.36
35.48
31.82
28.31
24.9
21.58
18.35
15.22
12.22
9.37
6.6
3.78
0.72
-2.69
-6.38
-10.15
-13.75
-17.05
-20.19
-23.57
-27.63
-32.67
-38.63
-45.15
-51.69
-57.7
-62.86
-67.14
-70.9
-74.81
-79.72
-86.39
-95.16
-105.56
-116.11
-124.53
-128.28
-125.3
-114.74
-97.27
-74.89
-50.35
-26.38
-5.1
12.37
25.85
35.83
43.15
48.61
52.84
56.14
58.65
60.4
61.5
62.16
62.65
63.23
64.07
65.21
66.64
68.31
70.13
71.99
73.67
74.89
75.31
74.63
72.68
69.5
65.35
60.61
55.74
51.03
46.63
42.52
38.59
34.74
30.94
27.23
23.66
20.3
17.18
14.32
11.72
9.34
7.06
4.72
2.1
-0.98
-4.61
-8.74
-13.16
-17.64
-21.96
-26.05
-30.06
-34.29
-39.06
-44.56
-50.65
-56.95
-62.93
-68.23
-72.8
-77.02
-81.55
-87.14
-94.43
-103.59
-114.15
-124.8
-133.45
-137.63
-135.17
-124.98
-107.51
-84.69
-59.38
-34.49
-12.21
6.32
20.95
32.1
40.48
46.74
51.47
55.13
58.14
60.71
62.93
64.79
66.27
67.44
68.44
69.46
70.66
72.17
74.03
76.19
78.4
80.28
81.32
81.1
79.41
76.42
72.51
68.19
63.82
59.51
55.17
50.65
45.93
41.15
36.51
32.22
28.4
25.1
22.28
19.85
17.66
15.53
13.28
10.82
8.17
5.41
2.59
-0.35
-3.54
-7.09
-10.98
-15.06
-19.08
-22.95
-26.73
-30.69
-35.2
-40.47
-46.53
-53.13
-59.87
-66.32
-72.2
-77.43
-82.24
-87.07
-92.62
-99.55
-108.23
-118.37
-128.78
-137.33
-141.47
-138.92
-128.49
-110.63
-87.34
-61.53
-36.18
-13.53
5.28
20.09
31.36
39.76
45.95
50.46
53.76
56.18
57.98
59.33
60.35
61.19
62.03
63.05
64.35
65.97
67.88
69.98
72.16
74.18
75.66
76.17
75.38
73.17
69.74
65.51
60.9
56.22
51.53
46.75
41.79
36.7
31.65
26.93
22.78
19.34
16.6
14.39
12.41
10.32
7.8
4.69
1.02
-2.95
-6.88
-10.47
-13.68
-16.76
-20.2
-24.5
-29.91
-36.28
-43.1
-49.7
-55.54
-60.52
-65.05
-69.91
-75.97
-83.84
-93.64
-104.74
-115.79
-124.85
-129.66
-128.22
-119.32
-103.06
-80.94
-55.58
-30.01
-6.87
12.18
26.64
37.0
44.26
49.43
53.31
56.3
58.61
60.3
61.44
62.2
62.79
63.4
64.14
65.05
66.13
67.37
68.82
70.53
72.46
74.3
75.57
75.65
74.07
70.74
65.96
60.39
54.72
49.51
44.94
40.98
37.37
33.89
30.4
26.85
23.34
19.96
16.85
14.06
11.56
9.21
6.81
4.19
1.26
-1.97
-5.47
-9.2
-13.14
-17.3
-21.67
-26.24
-31.08
-36.29
-41.99
-48.16
-54.54
-60.72
-66.28
-71.03
-75.19
-79.37
-84.38
-90.95
-99.39
-109.26
-119.35
-127.74
-132.2
-130.81
-122.54
-107.64
-87.65
-64.91
-41.87
-20.53
-2.03
13.22
25.33
34.72
41.85
47.24
51.32
54.49
56.95
58.84
60.22
61.22
62.04
62.93
64.12
65.69
67.62
69.76
71.89
73.69
74.8
74.85
73.64
71.17
67.75
63.85
59.87
56.01
52.24
48.38
44.33
40.11
35.88
31.85
28.13
24.74
21.64
18.79
16.19
13.81
11.57
9.33
6.9
4.18
1.13
-2.21
-5.74
-9.4
-13.11
-16.77
-20.28
-23.63
-26.87
-30.25
-34.09
-38.66
-44.01
-49.9
-55.86
-61.35
-66.07
-70.11
-73.95
-78.36
-84.1
-91.7
-101.05
-111.27
-120.77
-127.41
-129.1
-124.42
-113.08
-96.04
-75.34
-53.36
-32.22
-13.35
2.63
15.68
26.07
34.08
40.04
44.31
47.3
49.49
51.19
52.61
53.8
54.73
55.4
55.92
56.44
57.12
58.06
59.26
60.6
61.84
62.65
62.74
61.9
60.13
57.57
54.48
51.08
47.5
43.72
39.66
35.26
30.6
25.87
21.33
17.19
13.54
10.3
7.29
4.3
1.23
-1.97
-5.24
-8.53
-11.86
-15.32
-19.06
-23.21
-27.81
-32.8
-38.04
-43.35
-48.58
-53.69
-58.76
-64.04
-69.93
-76.82
-84.95
-94.12
-103.42
-111.27
-115.66
-114.78
-107.63
-94.44
-76.67
-56.52
-36.3
-17.76
-1.82
11.3
21.81
30.07
36.38
41.07
44.48
47.02
49.03
50.75
52.24
53.5
54.58
55.59
56.73
58.1
59.73
61.51
63.28
64.86
66.05
66.6
66.24
64.72
61.93
58.05
53.51
48.85
44.53
40.73
37.33
34.0
30.43
26.43
22.12
17.8
13.92
10.81
8.54
6.83
5.12
2.79
-0.57
-4.99
-10.09
-15.27
-20.05
-24.23
-28.01
-31.8
-35.98
-40.73
-45.86
-51.01
-55.83
-60.14
-64.12
-68.16
-72.85
-78.73
-86.18
-95.16
-105.13
-114.86
-122.62
-126.38
-124.49
-116.13
-101.75
-82.93
-61.92
-40.95
-21.66
-4.86
9.34
21.13
30.71
38.25
43.91
47.96
50.79
52.81
54.37
55.64
56.7
57.64
58.6
59.79
61.37
63.34
65.56
67.76
69.69
71.12
71.83
71.66
70.44
68.06
64.58
60.28
55.6
51.06
47.0
43.5
40.32
37.01
33.21
28.83
24.11
19.56
15.64
12.64
10.46
8.71
6.87
4.51
1.43
-2.35
-6.62
-11.12
-15.58
-19.84
-23.85
-27.67
-31.54
-35.68
-40.29
-45.38
-50.75
-56.02
-60.89
-65.25
-69.38
-73.92
-79.63
-87.07
-96.24
-106.33
-115.69
-122.16
-123.64
-118.72
-107.18
-90.08
-69.46
-47.76
-27.15
-9.07
5.92
17.9
27.34
34.75
40.56
45.12
48.69
51.53
53.78
55.55
56.89
57.84
58.48
58.95
59.42
60.04
60.92
62.03
63.23
64.26
64.75
64.36
62.87
60.23
56.6
52.33
47.79
43.31
39.05
35.0
31.07
27.1
23.01
18.81
14.57
10.42
6.54
3.0
-0.2
-3.22
-6.32
-9.84
-14.05
-19.06
-24.76
-30.9
-37.08
-42.94
-48.23
-52.96
-57.4
-62.13
-67.9
-75.36
-84.62
-94.93
-104.6
-111.27
-112.71
-107.52
-95.69
-78.55
-58.34
-37.46
-17.9
-0.85
13.25
24.53
33.46
40.56
46.31
51.01
54.74
57.49
59.21
60.0
60.11
59.96
59.91
60.24
60.97
61.97
63.05
64.04
64.84
65.37
65.54
65.18
64.08
62.05
59.03
55.15
50.7
46.0
41.31
36.81
32.5
28.38
24.41
20.69
17.29
14.35
11.87
9.71
7.59
5.17
2.18
-1.46
-5.59
-9.88
-13.94
-17.49
-20.5
-23.24
-26.2
-29.92
-34.82
-40.95
-47.99
-55.26
-62.05
-67.81
-72.47
-76.39
-80.34
-85.24
-91.87
-100.43
-110.37
-120.23
-127.8
-130.72
-127.19
-116.62
-99.86
-78.94
-56.41
-34.61
-15.18
1.14
14.22
24.36
32.07
37.89
42.35
45.86
48.69
50.99
52.9
54.61
56.36
58.34
60.52
62.76
64.85
66.69
68.36
69.98
71.5
72.67
73.03
72.2
70.04
66.8
62.89
58.75
54.67
50.74
46.96
43.26
39.6
35.93
32.29
28.73
25.35
22.26
19.49
16.95
14.5
12.01
9.4
6.67
3.81
0.82
-2.36
-5.72
-9.17
-12.63
-16.14
-19.87
-24.12
-29.12
-34.89
-41.15
-47.47
-53.45
-58.85
-63.68
-68.11
-72.42
-76.99
-82.31
-88.91
-97.19
-106.98
-117.24
-126.14
-131.35
-130.81
-123.39
-109.37
-90.33
-68.71
-47.01
-27.22
-10.42
3.16
13.96
22.68
30.02
36.45
42.19
47.19
51.31
54.39
56.35
57.33
57.59
57.52
57.55
58.07
59.36
61.44
64.15
67.08
69.62
71.15
71.15
69.43
66.16
61.81
57.05
52.4
48.13
44.21
40.38
36.41
32.23
27.95
23.74
19.71
15.88
12.14
8.45
4.78
1.21
-2.19
-5.42
-8.61
-12.03
-15.95
-20.59
-25.95
-31.88
-38.06
-44.14
-49.83
-55.03
-59.83
-64.51
-69.53
-75.41
-82.66
-91.46
-101.38
-111.19
-118.92
-122.3
-119.5
-109.81
-93.93
-73.79
-51.92
-30.71
-11.78
4.09
16.9
27.09
35.21
41.78
47.18
51.63
55.19
57.89
59.75
60.92
61.6
62.03
62.46
63.02
63.82
64.94
66.44
68.28
70.22
71.8
72.47
71.78
69.56
66.02
61.62
56.94
52.4
48.22
44.44
40.96
37.65
34.4
31.14
27.86
24.55
21.25
18.04
15.0
12.24
9.85
7.84
6.12
4.48
2.6
0.21
-2.86
-6.62
-10.89
-15.38
-19.81
-24.01
-27.93
-31.69
-35.52
-39.65
-44.24
-49.29
-54.62
-59.97
-65.08
-69.76
-74.09
-78.34
-83.01
-88.68
-95.85
-104.57
-114.18
-123.17
-129.41
-130.69
-125.5
-113.52
-95.82
-74.5
-52.02
-30.56
-11.54
4.39
17.24
27.35
35.24
41.36
46.07
49.65
52.32
54.28
55.77
57.08
58.47
60.06
61.85
63.76
65.69
67.59
69.48
71.33
73.0
74.19
74.52
73.67
71.46
68.02
63.69
58.94
54.17
49.58
45.14
40.63
35.86
30.81
25.7
20.97
17.05
14.16
12.27
10.99
9.8
8.15
5.67
2.26
-1.89
-6.41
-10.85
-14.86
-18.35
-21.49
-24.73
-28.58
-33.4
-39.28
-45.94
-52.79
-59.24
-64.81
-69.4
-73.29
-77.11
-81.68
-87.76
-95.71
-105.16
-114.87
-122.79
-126.55
-124.19
-114.85
-99.07
-78.71
-56.24
-34.06
-13.87
3.53
18.04
29.91
39.43
46.8
52.21
55.83
58.0
59.23
60.05
60.96
62.26
64.0
66.0
67.98
69.67
71.0
72.04
72.95
73.8
74.47
74.65
74.02
72.38
69.76
66.39
62.5
58.27
53.78
49.06
44.21
39.39
34.87
30.86
27.44
24.55
22.03
19.69
17.32
14.79
12.04
9.12
6.1
3.09
0.1
-2.94
-6.14
-9.57
-13.22
-16.91
-20.57
-24.24
-28.1
-32.44
-37.42
-42.96
-48.77
-54.42
-59.6
-64.15
-68.19
-72.0
-76.02
-80.77
-86.76
-94.31
-103.4
-113.33
-122.73
-129.62
-131.91
-128.0
-117.27
-100.35
-79.05
-55.76
-32.89
-12.23
5.25
19.38
30.52
39.23
46.06
51.44
55.65
58.84
61.03
62.25
62.61
62.37
61.92
61.68
61.99
62.99
64.64
66.79
69.19
71.55
73.44
74.38
73.99
72.13
69.02
65.16
61.11
57.22
53.6
50.09
46.51
42.75
38.81
34.78
30.77
26.95
23.46
20.5
18.16
16.37
14.88
13.4
11.69
9.67
7.37
4.82
1.97
-1.25
-4.91
-8.93
-13.1
-17.19
-20.99
-24.47
-27.72
-30.96
-34.5
-38.68
-43.74
-49.65
-56.1
-62.5
-68.23
-72.94
-76.72
-80.14
-84.05
-89.32
-96.52
-105.69
-116.09
-126.16
-133.69
-136.33
-132.26
-120.86
-102.98
-80.71
-56.67
-33.31
-12.37
5.25
19.34
30.1
37.93
43.44
47.27
50.08
52.36
54.35
56.07
57.46
58.42
59.02
59.42
59.87
60.65
62.03
64.12
66.79
69.64
72.02
73.3
73.07
71.21
67.94
63.71
59.02
54.33
49.97
46.1
42.69
39.52
36.26
32.68
28.76
24.76
21.05
17.84
15.08
12.41
9.43
5.9
1.92
-2.16
-6.0
-9.42
-12.61
-15.95
-19.87
-24.62
-30.21
-36.4
-42.83
-49.15
-55.13
-60.67
-65.82
-70.8
-75.94
-81.73
-88.69
-97.14
-106.8
-116.63
-124.74
-128.86
-127.01
-118.2
-102.83
-82.58
-59.87
-37.16
-16.28
1.7
16.48
28.21
37.26
44.06
49.07
52.68
55.22
56.99
58.24
59.22
60.17
61.22
62.44
63.75
65.13
66.57
68.16
70.0
71.99
73.82
74.99
74.99
73.52
70.68
66.84
62.48
58.04
53.73
49.56
45.45
41.29
37.0
32.61
28.19
23.86
19.78
16.08
12.84
10.08
7.74
5.67
3.66
1.41
-1.35
-4.82
-8.96
-13.53
-18.16
-22.57
-26.75
-30.91
-35.44
-40.62
-46.42
-52.57
-58.62
-64.19
-69.14
-73.66
-78.19
-83.35
-89.74
-97.78
-107.38
-117.72
-127.13
-133.43
-134.45
-128.72
-116.03
-97.52
-75.31
-51.85
-29.34
-9.21
7.82
21.65
32.49
40.65
46.52
50.55
53.2
54.96
56.2
57.18
58.02
58.78
59.48
60.18
60.99
62.06
63.47
65.24
67.21
69.08
70.44
70.9
70.16
68.14
64.98
60.98
56.55
51.99
47.5
43.08
38.64
34.08
29.4
24.73
20.29
16.3
12.88
9.97
7.34
4.71
1.86
-1.28
-4.63
-8.01
-11.34
-14.66
-18.22
-22.36
-27.39
-33.38
-40.08
-47.0
-53.54
-59.27
-64.08
-68.3
-72.59
-77.78
-84.69
-93.73
-104.59
-116.02
-125.91
-131.69
-131.14
-123.09
-107.87
-87.21
-63.68
-39.87
-17.83
