0
50.74
50.22
50.0
50.1
50.33
50.18
49.08
46.62
42.66
37.48
31.62
25.67
20.02
14.74
9.54
3.99
-2.26
-9.27
-16.75
-24.19
-31.04
-37.0
-42.07
-46.67
-51.5
-57.41
-65.17
-75.09
-86.69
-98.46
-107.99
-112.58
-109.99
-99.35
-81.44
-58.58
-33.82
-10.1
10.46
26.75
38.65
46.59
51.29
53.52
53.97
53.23
51.71
49.7
47.36
44.84
42.37
40.19
38.55
37.57
37.22
37.35
37.68
37.98
38.02
37.55
36.39
34.35
31.35
27.43
22.77
17.54
11.9
5.89
-0.44
-7.0
-13.55
-19.87
-25.8
-31.38
-36.96
-43.04
-50.16
-58.57
-68.01
-77.47
-85.25
-89.25
-87.53
-78.98
-63.74
-43.38
-20.45
2.25
22.36
38.52
50.31
58.05
62.29
63.59
62.36
59.01
54.1
48.4
42.78
37.97
34.46
32.28
31.21
30.82
30.7
30.59
30.38
30.0
29.37
28.29
26.48
23.66
19.6
14.3
7.95
0.92
-6.27
-13.17
-19.43
-24.96
-29.89
-34.58
-39.53
-45.38
-52.74
-61.86
-72.39
-83.12
-92.04
-96.76
-95.25
-86.54
-71.06
-50.63
-27.82
-5.29
14.84
31.28
43.57
51.86
56.7
58.79
58.89
57.67
55.65
53.2
50.59
47.98
45.53
43.32
41.42
39.94
38.99
38.65
38.88
39.39
39.69
39.18
37.44
34.36
30.22
25.52
20.74
16.07
11.42
6.48
0.94
-5.37
-12.32
-19.55
-26.58
-32.95
-38.34
-42.79
-46.67
-50.75
-55.92
-62.91
-71.87
-81.98
-91.43
-97.72
-98.34
-91.62
-77.36
-57.03
-33.31
-9.32
12.23
29.62
42.3
50.58
55.25
57.18
57.12
55.71
53.48
50.94
48.51
46.46
44.91
43.82
43.08
42.56
42.21
42.08
42.28
42.85
43.68
44.4
44.5
43.39
40.71
36.4
30.8
24.54
18.3
12.64
7.75
3.52
-0.45
-4.63
-9.37
-14.81
-20.78
-26.89
-32.66
-37.76
-42.09
-45.92
-49.84
-54.58
-60.83
-68.87
-78.31
-87.91
-95.71
-99.43
-97.18
-88.06
-72.56
-52.42
-30.16
-8.4
10.77
26.07
37.1
44.09
47.65
48.56
47.55
45.32
42.39
39.16
35.94
32.98
30.5
28.7
27.69
27.49
27.96
28.88
29.95
30.87
31.32
31.06
29.93
27.86
24.84
20.96
16.32
11.11
5.51
-0.25
-5.98
-11.48
-16.65
-21.49
-26.1
-30.74
-35.78
-41.73
-49.05
-57.93
-67.91
-77.79
-85.65
-89.25
-86.78
-77.49
-62.04
-42.34
-21.0
-0.57
17.12
31.11
41.24
47.84
51.42
52.54
51.72
49.56
46.65
43.55
40.71
38.37
36.61
35.34
34.49
33.99
33.87
34.2
34.97
36.02
36.98
37.22
36.18
33.47
29.13
23.64
17.8
12.39
7.88
4.23
0.9
-2.82
-7.46
-13.17
-19.59
-26.1
-32.11
-37.26
-41.59
-45.51
-49.64
-54.75
-61.41
-69.86
-79.57
-89.18
-96.55
-99.28
-95.44
-84.29
-66.65
-44.67
-21.25
0.78
19.33
33.37
42.83
48.34
50.79
51.08
49.96
47.99
45.58
43.08
40.78
38.92
37.59
36.73
36.18
35.78
35.52
35.51
35.94
36.89
38.21
39.49
40.16
39.69
37.77
34.36
29.72
24.3
18.62
13.21
8.41
4.34
0.8
-2.64
-6.44
-10.97
-16.24
-22.0
-27.78
-33.19
-38.05
-42.5
-46.96
-51.98
-58.11
-65.71
-74.69
-84.28
-92.97
-98.69
-99.31
-93.34
-80.52
-61.99
-40.02
-17.39
3.4
20.6
33.4
41.82
46.37
47.83
47.1
45.0
42.29
39.54
37.13
35.21
33.83
32.9
32.32
31.97
31.84
31.96
32.42
33.2
34.14
34.85
34.82
33.56
30.9
26.99
22.31
17.48
12.88
8.61
4.43
-0.01
-4.96
-10.4
-16.06
-21.55
-26.52
-30.85
-34.62
-38.16
-42.02
-46.83
-53.14
-61.14
-70.29
-79.22
-85.85
-88.01
-84.09
-73.61
-57.52
-37.79
-16.92
2.78
19.64
32.78
41.98
47.51
49.85
49.66
47.66
44.55
40.96
37.43
34.3
31.8
30.06
29.08
28.79
29.1
29.92
31.18
32.8
34.58
36.17
37.03
36.55
34.32
30.35
25.07
19.25
13.64
8.72
4.45
0.44
-3.91
-9.05
-15.1
-21.74
-28.45
-34.64
-39.95
-44.34
-48.16
-52.1
-56.95
-63.41
-71.77
-81.55
-91.39
-99.13
-102.34
-98.99
-88.25
-70.81
-48.81
-25.17
-2.71
16.47
31.37
41.94
48.7
52.33
53.49
52.77
50.73
47.96
45.02
42.37
40.29
38.92
38.25
38.23
38.75
39.63
40.69
41.72
42.57
43.1
43.18
42.67
41.37
39.1
35.74
31.37
26.26
20.83
15.57
10.79
6.57
2.73
-1.06
-5.18
-9.92
-15.34
-21.26
-27.32
-33.13
-38.34
-42.88
-46.92
-50.88
-55.38
-61.06
-68.36
-77.24
-86.93
-95.89
-102.0
-103.07
-97.53
-84.99
-66.45
-44.14
-20.75
1.2
19.95
34.73
45.44
52.42
56.1
56.93
55.45
52.35
48.46
44.58
41.37
39.18
38.07
37.84
38.21
38.87
39.66
40.56
41.57
42.69
43.78
44.5
44.4
43.1
40.43
36.48
31.63
26.33
21.0
15.9
11.14
6.7
2.44
-1.83
-6.36
-11.34
-16.81
-22.59
-28.35
-33.73
-38.49
-42.68
-46.66
-50.98
-56.3
-63.13
-71.59
-81.18
-90.62
-97.93
-100.87
-97.54
-87.14
-70.29
-49.02
-26.1
-4.28
14.43
29.02
39.4
45.99
49.42
50.3
49.22
46.75
43.49
39.92
36.43
33.24
30.55
28.6
27.6
27.71
28.9
30.83
32.92
34.52
35.09
34.32
32.21
28.99
24.96
20.42
15.58
10.49
5.13
-0.54
-6.46
-12.47
-18.39
-24.01
-29.25
-34.21
-39.19
-44.67
-51.13
-58.88
-67.84
-77.28
-85.83
-91.6
-92.69
-87.7
-76.23
-59.11
-38.21
-15.93
5.32
23.66
37.97
47.92
53.79
56.22
56.03
54.01
50.93
47.44
44.13
41.4
39.46
38.3
37.74
37.6
37.75
38.18
38.93
39.92
40.88
41.38
40.93
39.16
36.0
31.63
26.47
21.02
15.66
10.64
5.91
1.26
-3.66
-9.11
-15.17
-21.62
-28.0
-33.83
-38.78
-42.89
-46.61
-50.74
-56.2
-63.62
-72.94
-83.14
-92.31
-97.98
-97.87
-90.57
-76.11
-56.0
-32.81
-9.39
11.82
29.25
42.34
51.19
56.32
58.4
58.19
56.45
53.93
51.31
49.03
47.32
46.17
45.47
45.07
44.9
44.91
45.14
45.63
46.37
47.19
47.74
47.46
45.77
42.28
37.0
30.33
23.11
16.21
10.44
6.28
3.88
3.02
3.23
3.92
4.5
4.51
3.72
2.12
-0.18
-3.1
-6.55
-10.55
-15.1
-20.29
-26.35
-33.75
-43.06
-54.54
-67.69
-80.86
-91.55
-97.04
-95.46
-86.5
-71.68
-53.85
-36.33
-21.94
-12.42
-8.27
-8.93
-13.16
-19.36
-25.91
-31.48
-35.39
-37.83
-39.85
-43.01
-48.62
-57.03
-67.16
-76.62
-82.56
-82.78
-76.76
-65.79
-52.46
-39.53
-28.82
-20.7
-14.28
-8.08
-0.82
8.07
18.2
28.45
37.29
43.2
45.16
42.91
37.08
28.95
20.04
11.69
4.85
0.11
-2.25
-2.39
-1.2
-0.55
-3.03
-10.98
-25.25
-44.39
-64.7
-81.53
-91.2
-92.52
-87.2
-78.98
-72.01
-69.28
-71.92
-79.41
-90.32
-103.14
-116.54
-129.35
-140.41
-148.55
-152.79
-152.58
-147.77
-138.5
-124.78
-106.48
-83.22
-54.95
-22.24
13.47
50.13
85.6
118.24
147.24
172.55
194.5
213.33
228.95
240.99
248.97
252.59
251.95
247.61
240.57
232.08
223.37
215.26
207.85
200.42
191.77
180.76
166.92
150.79
133.9
118.28
105.86
97.77
93.89
92.8
92.09
89.24
82.58
72.17
60.02
49.54
44.05
45.34
52.59
62.47
70.22
71.25
62.67
44.13
17.78
-12.48
-42.15
-67.28
-85.37
-95.74
-99.49
-98.96
-96.99
-96.05
-97.72
-102.4
-109.39
-117.27
-124.34
-128.95
-129.9
-126.73
-119.86
-110.57
-100.54
-91.4
-84.25
-79.3
-76.07
-73.7
-71.44
-68.97
-66.59
-65.02
-65.17
-67.61
-72.23
-77.94
-82.79
-84.37
-80.57
-70.3
-53.99
-33.5
-11.54
9.24
26.95
40.76
50.82
57.71
62.12
64.6
65.54
65.34
64.37
63.01
61.49
59.9
58.2
56.35
54.4
52.56
51.07
50.08
49.59
49.37
49.08
48.35
46.89
44.58
41.4
37.48
32.93
27.91
22.52
16.88
11.09
5.28
-0.42
-5.84
-10.97
-15.96
-21.15
-27.08
-34.21
-42.69
-52.01
-60.92
-67.67
-70.38
-67.7
-59.25
-45.8
-29.0
-10.94
6.39
21.58
33.85
43.02
49.25
52.88
54.23
53.69
51.67
48.66
45.24
41.98
39.35
37.6
36.73
36.48
36.5
36.45
36.17
35.62
34.88
34.02
32.96
31.44
29.1
25.61
20.84
14.94
8.38
1.69
-4.64
-10.44
-15.84
-21.2
-26.99
-33.66
-41.48
-50.44
-60.06
-69.25
-76.4
-79.7
-77.64
-69.56
-55.99
-38.57
-19.52
-1.02
15.36
28.85
39.38
47.19
52.64
55.95
57.33
57.03
55.46
53.13
50.57
48.2
46.24
44.68
43.47
42.52
41.85
41.53
41.58
41.86
42.07
41.81
40.7
38.55
35.39
31.47
27.13
22.74
18.54
14.62
10.85
7.0
2.74
-2.2
-7.87
-14.09
-20.42
-26.34
-31.44
-35.57
-38.94
-42.11
-45.85
-50.87
-57.51
-65.45
-73.54
-79.98
-82.73
-80.22
-71.86
-58.3
-41.19
-22.68
-4.77
11.09
24.17
34.26
41.47
46.04
48.29
48.71
47.93
46.62
45.34
44.39
43.75
43.17
42.42
41.4
40.26
39.27
38.64
38.44
38.5
38.53
38.26
37.47
36.09
34.12
31.64
28.75
25.59
22.36
19.17
16.11
13.18
10.36
7.63
5.01
2.47
-0.06
-2.76
-5.82
-9.4
-13.55
-18.19
-23.06
-27.86
-32.28
-36.13
-39.42
-42.4
-45.56
-49.46
-54.47
-60.55
-67.01
-72.53
-75.48
-74.34
-68.3
-57.51
-43.17
-27.14
-11.42
2.37
13.3
21.17
26.29
29.15
30.26
30.08
28.97
27.28
25.36
23.47
21.83
20.55
19.66
19.09
18.78
18.65
18.71
18.98
19.46
20.0
20.33
20.01
18.63
16.05
12.46
8.34
4.26
0.61
-2.55
-5.42
-8.36
-11.6
-15.19
-18.95
-22.62
-25.97
-28.91
-31.57
-34.25
-37.43
-41.59
-46.95
-53.3
-59.82
-65.12
-67.71
-66.33
-60.48
-50.49
-37.47
-22.97
-8.62
4.25
14.76
22.53
27.71
30.71
32.12
32.42
31.98
30.96
29.51
27.77
25.94
24.2
22.63
21.23
19.99
18.95
18.26
18.08
18.37
18.93
19.41
19.45
18.9
17.86
16.56
15.22
13.93
12.61
11.08
9.18
6.89
4.29
1.56
-1.12
-3.63
-5.93
-8.14
-10.48
-13.14
-16.27
-19.83
-23.61
-27.32
-30.7
-33.66
-36.3
-38.95
-42.03
-45.96
-50.94
-56.81
-62.88
-67.94
-70.49
-69.18
-63.29
-53.05
-39.65
-24.88
-10.61
1.73
11.37
18.22
22.56
24.85
25.59
25.2
24.1
22.68
21.27
20.07
19.1
18.31
17.6
16.92
16.36
16.05
16.1
16.53
17.25
18.07
18.72
18.99
18.69
17.73
16.14
13.99
11.43
8.62
5.73
2.9
0.24
-2.18
-4.41
-6.54
-8.78
-11.31
-14.26
-17.59
-21.14
-24.66
-27.88
-30.62
-32.81
-34.59
-36.28
-38.37
-41.36
-45.57
-50.83
-56.33
-60.75
-62.57
-60.58
-54.34
-44.28
-31.6
-17.92
-4.8
6.53
15.4
21.63
25.46
27.32
27.74
27.17
25.95
24.33
22.48
20.59
18.89
17.61
16.86
16.63
16.81
17.23
17.76
18.35
18.92
19.37
19.47
19.01
17.82
15.94
13.52
10.85
8.17
5.59
3.14
0.71
-1.79
-4.46
-7.35
-10.49
-13.9
-17.49
-21.12
-24.57
-27.67
-30.33
-32.69
-35.08
-37.97
-41.88
-47.11
-53.57
-60.64
-67.16
-71.62
-72.6
-69.19
-61.3
-49.72
-35.91
-21.59
-8.3
2.93
11.67
17.95
22.08
24.47
25.53
25.64
25.15
24.31
23.32
22.3
21.34
20.56
20.06
19.98
20.38
21.24
22.52
24.06
25.59
26.8
27.33
26.93
25.57
23.49
21.08
18.75
16.62
14.58
12.39
9.81
6.85
3.65
0.48
-2.56
-5.52
-8.55
-11.8
-15.33
-19.1
-23.01
-27.0
-30.99
-34.88
-38.6
-42.12
-45.62
-49.53
-54.35
-60.37
-67.33
-74.28
-79.66
-81.73
-79.14
-71.41
-59.11
-43.7
-27.11
-11.16
2.77
13.94
22.2
27.77
31.04
32.43
32.35
31.22
29.52
27.72
26.25
25.39
25.19
25.56
26.36
27.52
29.06
30.99
33.24
35.56
37.55
38.82
39.1
38.29
36.47
33.77
30.34
26.37
22.05
17.64
13.41
9.52
6.0
2.68
-0.7
-4.36
-8.42
-12.88
-17.65
-22.58
-27.5
-32.25
-36.71
-40.88
-45.0
-49.53
-55.0
-61.67
-69.21
-76.52
-81.88
-83.46
-79.87
-70.69
-56.6
-39.17
-20.51
-2.64
12.89
25.22
34.16
40.03
43.36
44.7
44.53
43.29
41.41
39.35
37.55
36.33
35.8
35.89
36.47
37.38
38.51
39.84
41.31
42.81
44.1
44.88
44.77
43.41
40.59
36.32
30.92
24.97
19.17
14.11
10.01
6.67
3.62
0.28
-3.72
-8.42
-13.56
-18.79
-23.78
-28.38
-32.59
-36.51
-40.33
-44.38
-49.11
-55.06
-62.56
-71.33
-80.28
-87.53
-90.86
-88.5
-79.7
-65.07
-46.39
-26.06
-6.37
10.94
24.93
35.35
42.42
46.56
48.33
48.29
47.04
45.2
43.31
41.78
40.81
40.41
40.43
40.72
41.15
41.76
42.62
43.77
45.1
46.36
47.22
47.32
46.47
44.6
41.77
38.12
33.85
29.21
24.48
19.91
15.7
11.95
8.58
5.39
2.11
-1.54
-5.79
-10.7
-16.2
-22.04
-27.85
-33.35
-38.32
-42.87
-47.32
-52.23
-58.09
-65.14
-73.05
-80.76
-86.67
-88.91
-85.89
-76.87
-62.27
-43.64
-23.26
-3.45
13.9
27.78
37.94
44.69
48.61
50.29
50.26
49.04
47.14
45.06
43.24
41.93
41.2
40.97
41.11
41.54
42.25
43.22
44.38
45.5
46.27
46.27
45.19
42.91
39.51
35.3
30.71
26.18
22.0
18.2
14.57
10.73
6.31
1.16
-4.57
-10.47
-16.05
-20.96
-25.14
-28.84
-32.48
-36.6
-41.7
-48.06
-55.63
-63.84
-71.55
-77.1
-78.73
-75.08
-65.68
-51.16
-33.18
-13.94
4.4
20.18
32.51
41.21
46.64
49.45
50.31
49.87
48.59
46.79
44.67
42.43
40.32
38.61
37.57
37.29
37.67
38.43
39.25
39.87
40.17
40.15
39.82
39.12
37.89
36.02
33.42
30.22
26.57
22.72
18.87
15.13
11.5
7.89
4.11
-0.08
-4.85
-10.17
-15.77
-21.26
-26.24
-30.5
-34.1
-37.43
-41.01
-45.39
-51.03
-58.13
-66.5
-75.35
-83.29
-88.45
-88.96
-83.51
-71.91
-55.21
-35.51
-15.31
3.11
18.26
29.57
37.23
41.91
44.37
45.27
45.07
44.11
42.68
41.12
39.69
38.62
38.02
37.85
38.01
38.36
38.8
39.24
39.57
39.6
39.09
37.81
35.65
32.72
29.29
25.7
22.2
18.87
15.67
12.47
9.21
5.91
2.62
-0.63
-3.97
-7.55
-11.53
-15.89
-20.48
-24.99
-29.15
-32.81
-36.03
-39.05
-42.21
-45.95
-50.65
-56.57
-63.6
-71.04
-77.64
-81.72
-81.63
-76.25
-65.44
-50.1
-32.03
-13.4
3.8
18.15
28.98
36.27
40.48
42.21
42.06
40.56
38.2
35.46
32.83
30.74
29.43
28.91
28.98
29.38
30.0
30.8
31.86
33.18
34.59
35.71
36.06
35.29
33.22
29.96
25.89
21.47
17.19
13.41
10.19
7.34
4.46
1.11
-2.95
-7.67
-12.74
-17.7
-22.19
-26.07
-29.52
-32.96
-37.01
-42.22
-48.95
-57.07
-65.76
-73.54
-78.47
-78.76
-73.3
-62.19
-46.64
-28.75
-10.81
5.28
18.38
28.1
34.64
38.51
40.34
40.75
40.24
39.24
38.05
36.82
35.69
34.73
34.12
33.98
34.38
35.29
36.5
37.77
38.87
39.63
39.93
39.66
38.72
37.03
34.55
31.34
27.57
23.37
18.91
14.35
9.84
5.57
1.7
-1.69
-4.7
-7.55
-10.57
-13.97
-17.84
-22.04
-26.31
-30.36
-34.0
-37.24
-40.37
-43.88
-48.4
-54.39
-61.94
-70.46
-78.67
-84.72
-86.66
-83.02
-73.38
-58.55
-40.44
-21.45
-3.85
10.79
21.8
29.31
33.89
36.26
37.03
36.72
35.76
34.55
33.49
32.87
32.79
33.13
33.61
33.95
33.97
33.77
33.53
33.47
33.69
34.09
34.39
34.28
33.49
31.94
29.63
26.69
23.28
19.59
15.81
12.11
8.58
5.23
1.98
-1.3
-4.78
-8.59
-12.82
-17.44
-22.31
-27.18
-31.75
-35.81
-39.35
-42.65
-46.25
-50.81
-56.77
-64.08
-71.85
-78.54
-82.18
-81.01
-74.09
-61.65
-45.12
-26.67
-8.58
7.35
20.11
29.45
35.66
39.17
40.42
39.82
37.83
34.98
31.9
29.1
26.99
25.7
25.22
25.41
26.15
27.33
28.81
30.46
32.07
33.39
34.15
34.04
32.88
30.59
27.26
23.16
18.7
14.25
10.13
6.44
3.07
-0.2
-3.67
-7.6
-12.12
-17.17
-22.54
-27.82
-32.6
-36.6
-39.76
-42.4
-45.12
-48.69
-53.75
-60.55
-68.61
-76.67
-82.91
-85.34
-82.48
-73.88
-60.26
-43.3
-25.11
-7.64
7.71
20.23
29.74
36.42
40.58
42.61
43.02
42.32
41.01
39.52
38.08
36.81
35.74
34.88
34.31
34.17
34.57
35.52
36.89
38.36
39.53
40.0
39.54
38.09
35.77
32.77
29.32
25.57
21.61
17.53
13.34
9.07
4.75
0.42
-3.82
-7.92
-11.84
-15.67
-19.56
-23.6
-27.77
-31.94
-35.91
-39.56
-42.94
-46.28
-49.96
-54.36
-59.77
-66.23
-73.35
-80.22
-85.31
-86.85
-83.3
-73.95
-59.33
-41.18
-21.89
-3.77
11.54
23.36
31.77
37.28
40.4
41.59
41.2
39.64
37.4
35.04
33.03
31.65
30.95
30.79
31.0
31.45
32.11
33.05
34.33
35.85
37.35
38.39
38.54
37.51
35.18
31.71
27.39
22.61
17.77
13.24
9.25
5.82
2.73
-0.4
-3.96
-8.12
-12.77
-17.53
-21.97
-25.88
-29.35
-32.87
-37.07
-42.47
-49.26
-57.04
-64.81
-71.07
-74.09
-72.41
-65.27
-52.93
-36.66
-18.44
-0.41
15.63
28.53
37.89
43.85
46.88
47.6
46.68
44.77
42.47
40.25
38.41
37.04
36.12
35.57
35.35
35.43
35.76
36.25
36.76
37.2
37.47
37.47
37.05
35.94
33.81
30.42
25.82
20.43
14.88
9.82
5.66
2.4
-0.27
-2.86
-5.83
-9.52
-13.99
-19.09
-24.43
-29.57
-34.07
-37.81
-40.99
-44.17
-48.06
-53.27
-60.02
-67.96
-76.09
-82.9
-86.6
-85.59
-78.94
-66.73
-50.08
-30.97
-11.68
5.74
19.91
30.31
37.13
41.0
42.71
42.96
42.3
41.16
39.85
38.69
37.92
37.66
37.92
38.5
39.19
39.79
40.26
40.67
41.09
41.51
41.76
41.53
40.55
38.65
35.87
32.38
28.38
24.0
19.33
14.47
9.6
5.02
0.95
-2.51
-5.53
-8.5
-11.88
-16.03
-20.98
-26.5
-32.14
-37.4
-41.96
-45.73
-48.94
-52.11
-55.86
-60.83
-67.28
-74.88
-82.55
-88.58
-91.02
-88.25
-79.53
-65.32
-47.22
-27.53
-8.66
7.53
19.96
28.38
33.2
35.15
35.05
33.66
31.61
29.34
27.2
25.36
23.97
23.07
22.65
22.72
23.21
24.09
25.33
26.93
28.88
31.03
33.06
34.51
34.91
33.97
31.71
28.48
24.84
21.3
18.18
15.53
13.16
10.74
7.92
4.46
0.32
-4.31
-9.09
-13.61
-17.55
-20.86
-23.73
-26.63
-30.16
-34.88
-41.11
-48.68
-56.72
-63.73
-67.85
-67.43
-61.55
-50.41
-35.28
-18.17
-1.21
13.87
26.04
34.94
40.7
43.73
44.53
43.67
41.69
39.13
36.44
33.97
31.97
30.56
29.73
29.41
29.47
29.77
30.22
30.76
31.38
31.99
32.32
32.0
30.55
27.7
23.51
18.44
13.21
8.5
4.69
1.68
-0.97
-3.86
-7.44
-11.81
-16.75
-21.88
-26.74
-31.03
-34.64
-37.75
-40.75
-44.29
-49.09
-55.63
-63.85
-72.82
-80.82
-85.7
-85.5
-79.18
-66.95
-50.27
-31.37
-12.64
3.89
17.0
26.27
32.06
35.16
36.57
37.13
37.4
37.59
37.58
37.22
36.42
35.32
34.16
33.23
32.67
32.52
32.75
33.29
34.07
34.97
35.79
36.21
35.94
34.7
32.47
29.35
25.65
21.72
17.83
14.15
10.69
7.4
4.11
0.65
-3.14
-7.32
-11.87
-16.66
-21.5
-26.2
-30.59
-34.64
-38.45
-42.35
-46.8
-52.31
-59.16
-67.15
-75.38
-82.28
-86.01
-84.92
-78.13
-65.88
-49.53
-31.16
-13.01
3.09
16.04
25.55
31.94
35.84
37.86
38.51
38.18
37.2
35.91
34.67
33.72
33.11
32.74
32.41
32.02
31.68
31.61
32.06
33.05
34.37
35.54
36.1
35.65
34.08
31.48
28.13
24.3
20.25
16.14
12.04
7.96
3.88
-0.19
-4.23
-8.21
-12.11
-15.89
-19.52
-23.07
-26.7
-30.83
-35.94
-42.37
-49.96
-57.75
-64.07
-66.88
-64.53
-56.44
-43.42
-27.4
-10.75
4.47
17.06
26.79
33.96
39.08
42.5
44.36
44.75
43.85
42.0
39.69
37.37
35.44
34.12
33.51
33.55
34.04
34.77
35.47
35.99
36.21
36.13
35.69
34.81
33.35
31.21
28.39
25.02
21.36
17.67
14.19
11.03
8.16
5.4
2.5
-0.79
-4.63
-9.0
-13.71
-18.47
-22.99
-27.11
-30.83
-34.37
-38.06
-42.35
-47.71
-54.42
-62.36
-70.74
-78.1
-82.58
-82.42
-76.67
-65.56
-50.49
-33.64
-17.21
-2.9
8.38
16.55
21.93
25.1
26.65
27.12
26.94
26.46
25.81
25.02
24.02
22.84
21.64
20.72
20.37
20.75
21.79
23.24
24.74
25.98
26.71
26.8
26.18
24.83
22.79
20.14
17.03
13.64
10.24
7.04
4.31
2.17
0.56
-0.78
-2.29
-4.38
-7.28
-10.9
-14.86
-18.65
-21.92
-24.61
-26.95
-29.37
-32.31
-36.19
-41.28
-47.62
-54.81
-61.8
-67.04
-68.72
-65.46
-56.8
-43.49
-27.26
-10.27
5.51
18.72
28.79
35.73
39.89
41.76
41.9
40.85
39.09
37.02
34.97
33.16
31.75
30.75
30.13
29.72
29.41
29.15
29.08
29.38
30.09
31.02
31.73
31.57
30.1
27.16
23.03
18.29
13.62
9.55
6.34
3.89
1.82
-0.37
-3.15
-6.71
-10.96
-15.5
-19.82
-23.54
-26.6
-29.23
-31.95
-35.33
-39.84
-45.71
-52.78
-60.41
-67.38
-72.1
-72.93
-68.72
-59.23
-45.29
-28.6
-11.28
4.66
17.8
27.47
33.75
37.2
38.62
38.76
38.18
37.22
36.03
34.7
33.34
32.09
31.05
30.25
29.66
29.24
29.01
29.0
29.25
29.71
30.23
30.59
30.59
30.06
28.94
27.24
25.0
22.23
18.97
15.27
11.26
7.14
3.17
-0.46
-3.73
-6.81
-9.98
-13.54
-17.66
-22.27
-27.09
-31.75
-35.9
-39.4
-42.3
-44.91
-47.71
-51.25
-55.97
-61.96
-68.73
-75.09
-79.39
-79.94
-75.55
-66.05
-52.32
-36.11
-19.48
-4.24
8.39
17.89
24.31
28.03
29.58
29.53
28.46
26.9
25.28
23.89
22.89
22.28
22.0
22.0
22.24
22.75
23.53
24.47
25.46
26.29
26.77
26.79
26.35
25.48
24.23
22.58
20.54
18.11
15.35
12.39
9.38
6.37
3.4
0.5
-2.25
-4.73
-6.87
-8.73
-10.59
-12.79
-15.62
-19.12
-23.0
-26.87
-30.33
-33.28
-35.99
-38.98
-42.84
-47.97
-54.3
-61.21
-67.49
-71.62
-72.06
-67.73
-58.39
-44.81
-28.66
-12.04
3.11
15.41
24.32
30.0
33.06
34.22
34.1
33.16
31.77
30.23
28.8
27.68
26.94
26.56
26.47
26.57
26.82
27.22
27.8
28.59
29.55
30.53
31.2
31.13
29.97
27.58
24.19
20.29
16.45
13.02
10.0
7.12
3.97
0.27
-4.07
-8.9
-14.0
-19.1
-23.91
-28.19
-31.8
-34.81
-37.61
-40.85
-45.17
-50.94
-57.96
-65.33
-71.61
-75.16
-74.56
-69.11
-58.99
-45.29
-29.72
-14.16
-0.19
11.24
19.81
25.77
29.62
31.86
32.87
32.88
32.11
30.83
29.43
28.29
27.66
27.63
28.13
29.02
30.18
31.56
33.07
34.57
35.76
36.32
35.98
34.67
32.56
30.0
27.33
24.77
22.35
19.87
17.1
13.87
10.17
6.19
2.17
-1.67
-5.28
-8.75
-12.28
-16.05
-20.13
-24.51
-29.1
-33.72
-38.27
-42.56
-46.52
-50.16
-53.69
-57.52
-62.14
-67.89
-74.59
-81.37
-86.71
-88.82
-86.21
-78.24
-65.37
-49.06
-31.32
-14.09
1.03
13.1
21.78
27.24
30.02
30.85
30.47
29.52
28.38
27.23
26.2
25.41
24.98
25.02
25.54
26.5
27.78
29.25
30.78
32.18
33.19
33.57
33.16
31.99
30.26
28.22
26.08
23.91
21.61
19.07
16.13
12.8
9.17
5.51
2.12
-0.78
-3.2
-5.45
-7.98
-11.28
-15.48
-20.39
-25.5
-30.3
-34.5
-38.15
-41.68
-45.61
-50.45
-56.47
-63.58
-71.19
-78.23
-83.23
-84.64
-81.3
-72.73
-59.44
-42.74
-24.4
-6.33
9.9
23.2
33.04
39.36
42.56
43.33
42.52
40.93
39.14
37.5
36.09
34.91
33.97
33.32
33.08
33.29
33.93
34.89
36.04
37.25
38.36
39.21
39.57
39.15
37.7
35.17
31.66
27.46
22.98
18.56
14.41
10.59
7.01
3.48
-0.23
-4.33
-8.91
-13.91
-19.14
-24.31
-29.16
-33.56
-37.62
-41.64
-46.07
-51.41
-58.01
-65.95
-74.79
-83.46
-90.31
-93.47
-91.32
-83.08
-69.16
-51.07
-31.09
-11.51
5.81
19.8
30.14
37.06
41.09
42.78
42.79
41.72
40.11
38.42
36.95
35.84
35.12
34.79
34.91
35.57
36.81
38.58
40.72
42.92
44.86
46.19
46.7
46.31
45.07
43.13
40.6
37.54
34.02
30.09
25.89
21.66
17.61
13.83
10.2
6.46
2.32
-2.43
-7.79
-13.59
-19.55
-25.38
-30.93
-36.12
-41.03
-45.95
-51.31
-57.64
-65.34
-74.41
-84.09
-92.91
-98.79
-99.73
-94.36
-82.53
-65.33
-44.89
-23.61
-3.63
13.62
27.44
37.73
44.67
48.7
50.32
50.18
48.93
47.19
45.38
43.78
42.49
41.61
41.28
41.59
42.57
44.05
45.74
47.23
48.21
48.48
48.01
46.84
45.01
42.49
39.18
35.07
30.28
25.14
20.07
15.45
11.39
7.73
4.15
0.27
-4.07
-8.85
-13.83
-18.76
-23.44
-27.78
-31.85
-35.79
-39.93
-44.71
-50.62
-57.97
-66.55
-75.41
-82.88
-86.92
-85.74
-78.37
-65.05
-47.17
-26.82
-6.3
12.44
28.06
39.85
47.71
51.99
53.32
52.48
50.33
47.63
44.96
42.68
40.93
39.75
39.13
39.05
39.52
40.5
41.89
43.51
45.09
46.28
46.73
46.11
44.18
40.9
36.48
31.43
26.33
21.73
17.83
14.41
10.85
6.47
0.85
-5.99
-13.46
-20.71
-26.98
-31.89
-35.74
-39.35
-43.8
-50.02
-58.29
-68.0
-77.59
-84.9
-87.69
-84.3
-74.18
-58.06
-37.88
-16.31
3.94
20.71
32.83
40.2
43.59
44.19
43.14
41.26
39.07
36.83
34.78
33.2
32.3
32.21
32.84
33.95
35.24
36.5
37.63
38.72
39.85
41.11
42.39
43.35
43.51
42.36
39.62
35.39
30.18
24.68
19.56
15.09
11.15
7.33
3.12
-1.78
-7.35
-13.37
-19.42
-25.15
-30.3
-34.8
-38.8
-42.62
-46.79
-51.9
-58.43
-66.48
-75.54
-84.33
-90.96
-93.37
-89.92
-79.99
-64.28
-44.65
-23.57
-3.46
13.91
27.57
37.36
43.56
46.68
47.29
46.08
43.79
41.2
38.94
37.37
36.58
36.4
36.64
37.11
37.74
38.52
39.39
40.31
41.18
41.86
42.13
41.71
40.25
37.5
33.47
28.52
23.28
18.39
14.26
10.83
7.7
4.3
0.23
-4.63
-10.06
-15.69
-21.09
-25.96
-30.23
-34.02
-37.72
-41.94
-47.38
-54.49
-63.14
-72.38
-80.4
-85.0
-84.14
-76.76
-63.06
-44.58
-23.7
-2.99
15.46
30.34
41.15
48.06
51.57
52.33
51.01
48.29
44.85
41.26
37.98
35.28
33.26
31.92
31.21
31.14
31.69
32.83
34.47
36.29
37.88
38.72
38.35
36.5
33.21
28.78
23.73
18.62
13.86
9.53
5.44
1.21
-3.5
-8.82
-14.58
-20.44
-25.98
-30.98
-35.48
-39.86
-44.66
-50.49
-57.75
-66.34
-75.49
-83.69
-88.92
-89.22
-83.27
-71.0
-53.6
-33.33
-12.77
5.83
21.07
32.43
40.14
44.72
46.76
46.84
45.51
43.34
40.94
38.79
37.2
36.29
35.96
36.0
36.24
36.56
36.95
37.47
38.18
39.05
39.91
40.44
40.29
39.2
37.04
33.91
30.05
25.79
21.45
17.22
13.19
9.28
5.33
1.13
-3.43
-8.4
-13.69
-19.17
-24.67
-30.05
-35.21
-40.07
-44.66
-49.18
-53.99
-59.64
-66.58
-74.74
-83.32
-90.68
-94.69
-93.41
-85.8
-72.1
-53.8
-33.21
-12.76
5.61
20.69
32.0
39.62
43.97
45.66
45.43
44.05
42.19
40.33
38.7
37.35
36.27
35.49
35.09
35.16
35.75
36.76
38.0
39.2
40.11
40.5
40.24
39.24
37.48
35.0
31.95
28.51
24.87
21.17
17.45
13.68
9.82
5.89
1.92
-2.06
-6.1
-10.33
-14.86
-19.69
-24.68
-29.57
-34.1
-38.13
-41.77
-45.41
-49.6
-54.98
-61.94
-70.31
-79.22
-86.99
-91.58
-91.11
-84.53
-71.99
-54.83
-35.18
-15.31
2.85
18.03
29.62
37.57
42.17
43.98
43.65
41.94
39.52
36.96
34.64
32.75
31.35
30.43
30.05
30.3
31.27
32.97
35.18
37.45
39.19
39.86
39.16
37.12
34.06
30.4
26.54
22.67
18.81
14.83
10.58
5.91
0.78
-4.78
-10.65
-16.61
-22.42
-27.88
-32.92
-37.77
-42.92
-48.96
-56.27
-64.62
-72.87
-79.16
-81.4
-78.0
-68.46
-53.68
-35.62
-16.66
0.95
15.71
26.91
34.58
39.16
41.28
41.61
40.76
39.29
37.66
36.21
35.17
34.61
34.51
34.66
34.86
34.98
34.99
34.99
35.12
35.45
35.81
35.91
35.35
33.82
31.21
27.6
23.29
18.64
14.0
9.63
5.68
2.15
-1.1
-4.4
-8.09
-12.47
-17.62
-23.33
-29.18
-34.63
-39.31
-43.17
-46.59
-50.26
-54.97
-61.25
-69.08
-77.63
-85.32
-90.12
-90.11
-84.07
-71.97
-55.0
-35.32
-15.4
2.58
17.18
27.85
34.73
38.43
39.74
39.49
38.41
37.09
35.97
35.24
34.93
34.98
35.28
35.78
36.46
37.27
38.15
38.93
39.48
39.66
39.41
38.64
37.32
35.38
32.79
29.55
25.78
21.65
17.38
13.17
9.18
5.46
1.97
-1.42
-4.96
-8.89
-13.34
-18.29
-23.47
-28.55
-33.19
-37.25
-40.88
-44.42
-48.42
-53.44
-59.86
-67.7
-76.38
-84.57
-90.42
-92.01
-87.88
-77.65
-62.13
-43.13
-22.9
-3.6
13.17
26.5
36.08
42.13
45.14
45.8
44.85
42.99
40.74
38.48
36.45
34.84
33.83
33.56
34.07
35.29
37.02
38.94
40.68
41.81
41.9
40.65
37.88
33.7
28.52
22.85
17.23
12.01
7.28
2.88
-1.46
-5.96
-10.72
-15.66
-20.63
-25.47
-30.1
-34.55
-39.01
-43.84
-49.48
-56.24
-63.98
-71.79
-78.1
-80.98
-78.74
-70.63
-57.11
-39.83
-20.99
-2.86
12.91
25.46
34.61
40.66
44.13
45.52
45.3
43.91
41.82
39.52
37.56
36.31
35.93
36.31
37.11
37.91
38.47
38.73
38.81
38.82
38.76
38.44
37.53
35.74
32.92
29.14
24.64
19.8
15.02
10.63
6.77
3.3
-0.15
-4.08
-8.83
-14.45
-20.59
-26.73
-32.37
-37.3
-41.67
-45.95
-50.74
-56.59
-63.87
-72.61
-82.27
-91.57
-98.63
-101.34
-98.0
-88.02
-72.19
-52.49
-31.48
-11.56
5.56
19.05
28.85
35.37
39.18
40.91
41.14
40.43
39.3
38.22
37.53
37.32
37.5
37.74
37.72
37.3
36.56
35.82
35.45
35.61
36.18
36.73
36.72
35.69
33.46
30.14
26.12
21.89
17.84
14.2
10.88
7.51
3.7
-0.9
-6.34
-12.38
-18.53
-24.24
-29.12
-33.0
-36.06
-38.82
-42.02
-46.5
-52.81
-60.89
-69.82
-77.85
-82.8
-82.74
-76.61
-64.65
-48.25
-29.52
-10.7
6.38
20.52
31.19
38.33
42.28
43.56
42.86
40.88
38.32
35.81
33.84
32.66
32.3
32.57
33.12
33.68
34.08
34.37
34.71
35.19
35.67
35.8
35.09
33.17
29.99
25.82
21.15
16.49
12.21
8.35
4.7
0.91
-3.35
-8.21
-13.53
-19.01
-24.19
-28.72
-32.48
-35.68
-38.84
-42.68
-47.85
-54.65
-62.75
-71.08
