0
-29.83
-28.68
-25.86
-21.48
-15.95
-9.82
-3.69
1.98
6.9
10.94
14.04
16.17
17.35
17.62
17.19
16.38
15.53
14.94
14.76
15.0
15.55
16.27
16.94
17.47
17.78
17.87
17.78
17.49
16.96
16.09
14.81
13.15
11.21
9.22
7.35
5.7
4.17
2.62
0.91
-1.04
-3.2
-5.45
-7.68
-9.82
-11.92
-14.1
-16.54
-19.36
-22.54
-25.89
-28.96
-31.18
-31.96
-30.88
-27.82
-23.06
-17.16
-10.81
-4.68
0.76
5.29
8.89
11.64
13.64
14.97
15.66
15.76
15.35
14.55
13.5
12.41
11.43
10.79
10.69
11.21
12.33
13.81
15.3
16.38
16.8
16.47
15.49
14.09
12.44
10.67
8.78
6.79
4.72
2.62
0.63
-1.23
-2.92
-4.54
-6.16
-7.88
-9.75
-11.82
-14.15
-16.8
-19.78
-22.97
-26.08
-28.57
-29.86
-29.43
-27.01
-22.72
-16.99
-10.47
-3.9
2.11
7.1
10.86
13.43
14.95
15.7
15.88
15.59
14.84
13.64
12.03
10.25
8.67
7.67
7.51
8.21
9.48
10.88
11.99
12.54
12.55
12.16
11.56
10.84
9.95
8.74
7.15
5.2
3.05
0.83
-1.35
-3.51
-5.68
-7.91
-10.17
-12.42
-14.7
-17.08
-19.65
-22.35
-24.95
-27.01
-28.1
-27.82
-26.01
-22.74
-18.25
-12.91
-7.19
-1.56
3.54
7.77
10.99
13.22
14.58
15.2
15.19
14.64
13.67
12.46
11.28
10.42
10.07
10.29
11.02
12.05
13.15
14.18
15.01
15.58
15.83
15.67
15.03
13.86
12.2
10.17
7.94
5.67
3.41
1.2
-1.04
-3.34
-5.66
-7.87
-9.86
-11.55
-13.06
-14.67
-16.7
-19.34
-22.54
-25.94
-28.95
-30.89
-31.2
-29.59
-26.12
-21.18
-15.33
-9.15
-3.17
2.26
6.93
10.7
13.52
15.41
16.43
16.71
16.47
15.89
15.15
14.37
13.61
12.93
12.38
12.04
11.95
12.18
12.7
13.42
14.11
14.5
14.35
13.53
12.07
10.19
8.14
6.16
4.4
2.84
1.44
0.15
-1.11
-2.35
-3.62
-4.95
-6.46
-8.25
-10.44
-13.11
-16.27
-19.78
-23.35
-26.6
-29.11
-30.51
-30.56
-29.2
-26.43
-22.45
-17.52
-12.0
-6.36
-1.05
3.58
7.35
10.2
12.17
13.23
13.39
12.66
11.2
9.32
7.5
6.2
5.74
6.24
7.58
9.47
11.54
13.44
14.9
15.76
15.97
15.59
14.77
13.64
12.28
10.75
9.09
7.35
5.61
3.98
2.51
1.19
-0.08
-1.4
-2.93
-4.81
-7.26
-10.47
-14.59
-19.54
-24.98
-30.25
-34.54
-37.11
-37.47
-35.51
-31.47
-25.81
-19.1
-11.95
-4.93
1.42
6.67
10.56
13.0
14.07
13.98
12.99
11.43
9.68
8.13
7.07
6.63
6.71
7.1
7.57
8.0
8.4
8.8
9.19
9.46
9.46
9.1
8.41
7.5
6.52
5.5
4.3
2.79
0.83
-1.56
-4.22
-6.88
-9.33
-11.53
-13.56
-15.64
-17.95
-20.59
-23.38
-25.94
-27.76
-28.37
-27.48
-25.02
-21.15
-16.19
-10.57
-4.72
0.87
5.78
9.68
12.42
14.02
14.63
14.46
13.73
12.65
11.41
10.26
9.39
8.99
9.03
9.39
9.88
10.32
10.62
10.8
10.95
11.07
11.18
11.2
11.04
10.61
9.86
8.77
7.36
5.67
3.78
1.73
-0.46
-2.75
-5.06
-7.26
-9.24
-10.98
-12.58
-14.32
-16.46
-19.17
-22.36
-25.67
-28.52
-30.3
-30.52
-28.9
-25.5
-20.68
-14.99
-9.04
-3.4
1.55
5.6
8.71
10.94
12.39
13.21
13.59
13.7
13.7
13.68
13.65
13.6
13.49
13.34
13.2
13.13
13.12
13.18
13.24
13.25
13.17
12.93
12.46
11.63
10.37
8.69
6.74
4.79
3.08
1.74
0.7
-0.28
-1.4
-2.74
-4.24
-5.7
-7.07
-8.43
-10.0
-12.04
-14.65
-17.72
-20.96
-23.97
-26.32
-27.64
-27.65
-26.14
-23.14
-18.89
-13.88
-8.66
-3.75
0.52
4.02
6.84
9.1
10.87
12.18
12.94
13.12
12.72
11.86
10.8
9.85
9.28
9.25
9.78
10.68
11.76
12.81
13.73
14.42
14.79
14.69
14.0
12.71
10.97
9.09
7.39
6.09
5.16
4.38
3.48
2.19
0.47
-1.56
-3.64
-5.53
-7.05
-8.25
-9.31
-10.56
-12.3
-14.7
-17.74
-21.15
-24.46
-27.12
-28.55
-28.37
-26.43
-22.87
-18.11
-12.75
-7.43
-2.66
1.25
4.23
6.36
7.86
8.87
9.51
9.81
9.77
9.41
8.84
8.23
7.75
7.57
7.76
8.25
8.87
9.41
9.73
9.81
9.77
9.73
9.79
9.8
9.57
8.83
7.52
5.72
3.66
1.6
-0.4
-2.39
-4.49
-6.75
-9.11
-11.46
-13.73
-16.01
-18.39
-20.95
-23.47
-25.55
-26.63
-26.26
-24.2
-20.58
-15.74
-10.17
-4.38
1.19
6.16
10.23
13.24
15.11
15.91
15.82
15.06
13.91
12.58
11.26
10.12
9.32
8.99
9.18
9.85
10.77
11.6
12.06
11.94
11.29
10.29
9.15
8.02
6.93
5.79
4.52
3.07
1.44
-0.35
-2.31
-4.46
-6.73
-9.01
-11.16
-13.13
-14.96
-16.84
-18.98
-21.51
-24.42
-27.51
-30.4
-32.53
-33.35
-32.38
-29.45
-24.73
-18.76
-12.31
-6.08
-0.57
4.02
7.74
10.76
13.19
15.09
16.4
17.06
17.08
16.53
15.6
14.55
13.6
12.9
12.49
12.34
12.37
12.53
12.79
13.1
13.33
13.28
12.81
11.85
10.52
8.99
7.41
5.84
4.2
2.39
0.43
-1.59
-3.56
-5.42
-7.25
-9.21
-11.41
-13.87
-16.52
-19.23
-21.93
-24.53
-26.91
-28.78
-29.73
-29.31
-27.23
-23.49
-18.47
-12.74
-6.94
-1.49
3.37
7.62
11.28
14.29
16.46
17.59
17.57
16.56
14.92
13.13
11.64
10.69
10.35
10.55
11.18
12.16
13.32
14.46
15.28
15.51
15.01
13.88
12.36
10.74
9.3
8.1
7.03
5.9
4.54
2.86
0.89
-1.26
-3.5
-5.69
-7.81
-9.83
-11.77
-13.75
-15.93
-18.48
-21.44
-24.75
-28.02
-30.71
-32.17
-31.9
-29.68
-25.66
-20.31
-14.26
-8.17
-2.57
2.14
5.81
8.46
10.28
11.5
12.32
12.83
13.02
12.85
12.31
11.54
10.79
10.34
10.42
11.13
12.36
13.92
15.49
16.75
17.47
17.51
16.88
15.67
14.06
12.2
10.2
8.13
6.08
4.09
2.22
0.49
-1.17
-2.84
-4.63
-6.62
-8.89
-11.49
-14.53
-18.03
-21.91
-25.83
-29.27
-31.64
-32.37
-31.19
-28.09
-23.42
-17.65
-11.41
-5.2
0.56
5.58
9.74
12.97
15.28
16.71
17.3
17.2
16.56
15.65
14.69
13.88
13.36
13.19
13.35
13.83
14.61
15.58
16.62
17.57
18.24
18.45
18.12
17.2
15.75
13.9
11.79
9.53
7.19
4.78
2.3
-0.18
-2.56
-4.81
-6.89
-8.89
-10.92
-13.1
-15.55
-18.31
-21.43
-24.85
-28.37
-31.57
-33.85
-34.57
-33.3
-29.98
-24.96
-18.9
-12.48
-6.27
-0.59
4.42
8.78
12.47
15.43
17.59
18.83
19.15
18.65
17.62
16.39
15.31
14.66
14.58
15.13
16.2
17.67
19.31
20.87
22.1
22.75
22.72
21.97
20.6
18.77
16.68
14.46
12.26
10.12
8.05
6.0
3.92
1.75
-0.55
-2.97
-5.48
-8.04
-10.62
-13.23
-15.91
-18.75
-21.84
-25.15
-28.46
-31.4
-33.39
-33.89
-32.57
-29.36
-24.56
-18.69
-12.36
-6.12
-0.34
4.75
9.05
12.49
15.08
16.79
17.66
17.8
17.4
16.74
16.13
15.85
16.07
16.82
17.96
19.26
20.45
21.34
21.83
21.93
21.73
21.28
20.65
19.78
18.59
17.09
15.3
13.38
11.46
9.61
7.74
5.75
3.55
1.16
-1.22
-3.41
-5.3
-6.93
-8.52
-10.3
-12.48
-15.2
-18.48
-22.22
-26.16
-29.88
-32.73
-34.12
-33.61
-31.1
-26.84
-21.4
-15.37
-9.31
-3.58
1.62
6.15
9.93
12.89
14.96
16.15
16.5
16.18
15.41
14.46
13.55
12.83
12.42
12.39
12.79
13.63
14.83
16.19
17.43
18.23
18.39
17.82
16.58
14.8
12.67
10.39
8.14
6.13
4.45
3.06
1.79
0.4
-1.28
-3.25
-5.37
-7.43
-9.33
-11.11
-12.92
-15.0
-17.55
-20.61
-24.1
-27.67
-30.83
-32.95
-33.43
-31.92
-28.38
-23.14
-16.8
-10.03
-3.48
2.42
7.38
11.25
13.99
15.66
16.41
16.46
16.02
15.28
14.33
13.29
12.25
11.42
10.98
11.12
11.87
13.09
14.47
15.59
16.11
15.9
15.03
13.74
12.31
10.92
9.66
8.43
7.15
5.73
4.11
2.31
0.36
-1.71
-3.8
-5.87
-7.89
-9.92
-12.05
-14.41
-17.04
-19.85
-22.6
-24.96
-26.6
-27.19
-26.5
-24.37
-20.75
-15.81
-9.99
-3.9
1.76
6.46
9.93
12.24
13.63
14.39
14.71
14.63
14.14
13.27
12.19
11.14
10.37
10.07
10.28
10.91
11.79
12.78
13.75
14.62
15.27
15.59
15.41
14.62
13.17
11.11
8.61
5.9
3.25
0.85
-1.13
-2.72
-4.05
-5.38
-6.94
-8.83
-11.01
-13.33
-15.64
-17.95
-20.39
-23.04
-25.81
-28.3
-29.85
-29.87
-28.0
-24.35
-19.42
-13.83
-8.23
-3.01
1.66
5.73
9.2
12.03
14.11
15.34
15.66
15.14
13.99
12.56
11.24
10.34
9.98
10.11
10.54
11.1
11.66
12.23
12.81
13.36
13.81
14.0
13.8
13.1
11.9
10.27
8.35
6.37
4.52
2.97
1.72
0.65
-0.46
-1.82
-3.51
-5.47
-7.52
-9.47
-11.19
-12.72
-14.19
-15.81
-17.8
-20.34
-23.39
-26.68
-29.75
-31.93
-32.63
-31.44
-28.31
-23.61
-17.91
-11.92
-6.18
-1.04
3.37
7.0
9.87
11.97
13.32
13.93
13.91
13.44
12.72
11.98
11.41
11.13
11.16
11.46
11.98
12.67
13.53
14.53
15.61
16.59
17.22
17.23
16.47
14.97
12.97
10.74
8.54
6.49
4.52
2.45
0.15
-2.4
-5.04
-7.57
-9.79
-11.65
-13.18
-14.55
-15.97
-17.61
-19.57
-21.81
-24.11
-26.1
-27.33
-27.4
-26.1
-23.46
-19.71
-15.23
-10.45
-5.73
-1.34
2.54
5.82
8.5
10.6
12.08
12.93
13.09
12.61
11.63
10.41
9.24
8.34
7.87
7.86
8.31
9.17
10.32
11.56
12.62
13.26
13.35
12.91
12.01
10.77
9.25
7.53
5.72
3.9
2.16
0.48
-1.21
-3.0
-4.9
-6.84
-8.66
-10.25
-11.61
-12.85
-14.14
-15.63
-17.43
-19.53
-21.84
-24.1
-25.89
-26.75
-26.27
-24.26
-20.86
-16.4
-11.36
-6.17
-1.18
3.34
7.12
9.88
11.48
11.96
11.55
10.6
9.46
8.35
7.36
6.53
5.91
5.59
5.69
6.18
6.99
7.92
8.76
9.38
9.67
9.64
9.26
8.62
7.7
6.6
5.44
4.25
3.01
1.63
-0.02
-1.98
-4.19
-6.48
-8.62
-10.51
-12.19
-13.9
-15.91
-18.42
-21.35
-24.27
-26.6
-27.69
-27.13
-24.88
-21.15
-16.42
-11.21
-5.95
-1.02
3.33
6.91
9.62
11.49
12.59
13.03
12.92
12.34
11.38
10.23
9.13
8.36
8.11
8.47
9.32
10.41
11.48
12.29
12.68
12.62
12.13
11.26
10.06
8.57
6.82
4.86
2.73
0.47
-1.89
-4.29
-6.6
-8.71
-10.52
-12.04
-13.48
-15.11
-17.2
-19.9
-23.08
-26.39
-29.28
-31.15
-31.45
-29.87
-26.39
-21.38
-15.46
-9.31
-3.53
1.5
5.67
9.01
11.65
13.67
15.11
15.97
16.2
15.78
14.78
13.33
11.74
10.38
9.55
9.35
9.68
10.34
11.06
11.68
12.13
12.41
12.44
12.13
11.4
10.22
8.65
6.81
4.77
2.58
0.26
-2.13
-4.5
-6.74
-8.78
-10.63
-12.42
-14.31
-16.47
-19.05
-22.05
-25.28
-28.29
-30.51
-31.37
-30.45
-27.66
-23.26
-17.76
-11.7
-5.6
0.09
5.07
9.09
12.03
13.87
14.74
14.89
14.6
14.11
13.6
13.2
12.95
12.88
13.0
13.28
13.67
14.12
14.52
14.8
14.89
14.71
14.23
13.44
12.35
10.93
9.2
7.16
4.9
2.54
0.22
-2.01
-4.15
-6.26
-8.38
-10.51
-12.63
-14.78
-17.08
-19.71
-22.77
-26.06
-29.14
-31.31
-31.95
-30.64
-27.43
-22.71
-17.1
-11.19
-5.46
-0.18
4.57
8.7
12.09
14.51
15.76
15.74
14.57
12.65
10.51
8.63
7.36
6.83
6.95
7.57
8.48
9.46
10.29
10.78
10.83
10.45
9.8
9.02
8.21
7.31
6.18
4.71
2.85
0.71
-1.58
-3.9
-6.28
-8.78
-11.55
-14.67
-18.12
-21.71
-25.13
-27.96
-29.75
-30.12
-28.82
-25.84
-21.4
-15.92
-9.93
-3.96
1.55
6.34
10.21
13.15
15.17
16.31
16.58
16.06
14.88
13.33
11.8
10.68
10.24
10.55
11.46
12.62
13.73
14.48
14.79
14.68
14.26
13.6
12.72
11.52
9.87
7.76
5.3
2.72
0.26
-2.01
-4.21
-6.57
-9.25
-12.3
-15.56
-18.87
-22.15
-25.42
-28.59
-31.36
-33.16
-33.32
-31.38
-27.32
-21.58
-14.87
-7.94
-1.37
4.46
9.39
13.29
16.1
17.82
18.52
18.38
17.66
16.66
15.62
14.7
14.0
13.53
13.32
13.33
13.56
13.95
14.41
14.8
14.99
14.91
14.52
13.84
12.87
11.56
9.83
7.7
5.26
2.68
0.18
-2.14
-4.27
-6.25
-8.23
-10.38
-12.87
-15.83
-19.26
-22.97
-26.53
-29.31
-30.68
-30.2
-27.76
-23.6
-18.23
-12.23
-6.12
-0.22
5.23
10.08
14.16
17.29
19.27
20.09
19.9
19.04
17.9
16.82
15.96
15.34
14.96
14.86
15.16
15.92
17.03
18.18
18.94
19.03
18.41
17.31
16.07
14.96
14.03
13.13
12.04
10.56
8.61
6.2
3.41
0.39
-2.67
-5.63
-8.45
-11.21
-14.1
-17.34
-20.96
-24.77
-28.36
-31.21
-32.79
-32.73
-30.82
-27.13
-21.96
-15.83
-9.34
-3.05
2.59
7.36
11.14
13.9
15.65
16.46
16.41
15.74
14.7
13.56
12.53
11.76
11.29
11.2
11.51
12.19
13.1
13.99
14.62
14.8
14.49
13.8
12.91
11.93
10.9
9.73
8.34
6.65
4.69
2.52
0.26
-2.06
-4.43
-6.9
-9.5
-12.24
-15.13
-18.17
-21.39
-24.69
-27.81
-30.28
-31.46
-30.8
-27.98
-23.12
-16.72
-9.57
-2.51
3.83
9.07
13.15
16.16
18.19
19.25
19.29
18.33
16.54
14.31
12.18
10.59
9.77
9.62
9.86
10.19
10.41
10.52
10.6
10.69
10.67
10.35
9.49
7.94
5.78
3.24
0.64
-1.75
-3.74
-5.42
-7.0
-8.76
-10.98
-13.71
-16.84
-20.13
-23.31
-26.14
-28.39
-29.76
-29.88
-28.35
-24.97
-19.86
-13.54
-6.7
-0.06
5.93
11.04
15.22
18.34
20.27
20.87
20.2
18.52
16.31
14.06
12.21
11.0
10.53
10.8
11.66
12.86
14.03
14.85
15.09
14.71
13.79
12.5
10.95
9.19
7.21
5.03
2.68
0.26
-2.2
-4.6
-6.95
-9.28
-11.67
-14.24
-17.15
-20.47
-24.16
-27.99
-31.53
-34.28
-35.66
-35.23
-32.81
-28.47
-22.62
-15.89
-8.91
-2.2
3.89
9.23
13.76
17.37
19.95
21.38
21.67
21.03
19.81
18.39
17.05
15.95
15.1
14.51
14.2
14.26
14.68
15.41
16.17
16.68
16.68
16.03
14.83
13.29
11.61
9.91
8.19
6.4
4.44
2.29
-0.03
-2.48
-5.09
-7.87
-10.88
-14.13
-17.61
-21.3
-25.11
-28.84
-32.04
-34.11
-34.4
-32.52
-28.46
-22.68
-15.94
-9.02
-2.49
3.37
8.45
12.66
15.88
17.98
18.93
18.86
18.09
16.96
15.83
14.94
14.47
14.51
15.07
16.05
17.21
18.29
19.02
19.31
19.15
18.69
18.06
17.3
16.33
15.0
13.16
10.75
7.88
4.78
1.73
-1.1
-3.61
-5.9
-8.11
-10.35
-12.73
-15.34
-18.32
-21.81
-25.78
-29.89
-33.42
-35.45
-35.16
-32.14
-26.64
-19.45
-11.68
-4.43
1.54
5.92
8.85
10.69
11.87
12.71
13.33
13.65
13.55
12.96
11.99
10.88
9.89
9.2
8.86
8.84
9.06
9.52
10.18
10.95
11.68
12.11
12.05
11.35
10.0
8.1
5.78
3.22
0.61
-1.86
-4.09
-6.08
-8.04
-10.24
-12.98
-16.36
-20.31
-24.49
-28.44
-31.67
-33.69
-34.09
-32.64
-29.28
-24.26
-18.04
-11.25
-4.51
1.67
6.97
11.2
14.28
16.19
16.97
16.72
15.67
14.08
12.31
10.67
9.46
8.84
8.82
9.24
9.87
10.45
10.83
10.99
10.95
10.73
10.27
9.43
8.07
6.15
3.75
1.07
-1.67
-4.3
-6.74
-9.05
-11.37
-13.94
-16.95
-20.49
-24.43
-28.4
-31.79
-33.97
-34.39
-32.76
-29.14
-23.89
-17.53
-10.68
-3.88
2.49
8.14
12.92
16.69
19.3
20.67
20.78
19.83
18.16
16.22
14.5
13.34
12.87
12.97
13.4
13.87
14.19
14.3
14.21
13.96
13.5
12.74
11.55
9.9
7.83
5.47
3.0
0.56
-1.85
-4.28
-6.81
-9.55
-12.56
-15.83
-19.4
-23.26
-27.27
-31.12
-34.31
-36.23
-36.34
-34.35
-30.32
-24.67
-17.96
-10.8
-3.7
2.94
8.87
13.88
17.8
20.54
22.07
22.47
21.91
20.68
19.15
17.73
16.74
16.34
16.51
17.05
17.71
18.27
18.62
18.76
18.7
18.41
17.82
16.8
15.22
13.05
10.37
7.38
4.28
1.26
-1.62
-4.42
-7.27
-10.28
-13.52
-17.01
-20.77
-24.81
-29.03
-33.18
-36.77
-39.11
-39.49
-37.47
-33.02
-26.56
-18.87
-10.78
-3.03
3.9
9.78
14.55
18.2
20.74
22.19
22.58
22.05
20.81
19.21
17.59
16.28
15.49
15.31
15.73
16.62
17.75
18.83
19.57
19.76
19.31
18.31
16.92
15.29
13.5
11.52
9.36
7.04
4.68
2.42
0.3
-1.75
-3.87
-6.21
-8.85
-11.81
-15.08
-18.68
-22.62
-26.77
-30.79
-34.1
-36.02
-35.99
-33.72
-29.35
-23.36
-16.5
-9.48
-2.92
2.87
7.76
11.78
14.98
17.34
18.79
19.29
18.93
17.95
16.69
15.46
14.54
14.04
14.01
14.4
15.12
16.09
17.13
18.04
18.62
18.69
18.22
17.21
15.76
13.96
11.87
9.5
6.87
4.01
1.03
-1.91
-4.73
-7.39
-10.06
-13.0
-16.47
-20.5
-24.9
-29.21
-32.8
-35.04
-35.44
-33.72
-29.88
-24.27
-17.42
-10.02
-2.75
3.86
9.48
13.95
17.25
19.4
20.38
20.28
19.24
17.6
15.75
14.1
12.95
12.43
12.53
13.18
14.26
15.57
16.91
18.03
18.68
18.74
18.13
16.92
15.17
13.0
10.47
7.71
4.79
1.85
-0.97
-3.59
-5.98
-8.22
-10.51
-13.06
-16.12
-19.76
-23.9
-28.22
-32.23
-35.39
-37.18
-37.21
-35.28
-31.39
-25.77
-18.86
-11.26
-3.65
3.34
9.26
13.88
17.17
19.25
20.32
20.56
20.12
19.13
17.75
16.19
14.79
13.9
13.81
14.57
16.01
17.74
19.33
20.44
20.89
20.63
19.7
18.15
16.03
13.49
10.77
8.12
5.75
3.72
1.92
0.11
-1.91
-4.24
-6.82
-9.52
-12.19
-14.75
-17.21
-19.69
-22.37
-25.41
-28.82
-32.39
-35.62
-37.92
-38.6
-37.23
-33.63
-28.04
-20.98
-13.18
-5.41
1.7
7.69
12.38
15.79
18.0
19.15
19.39
18.87
17.81
16.55
15.38
14.59
14.3
14.49
15.08
16.0
17.13
18.32
19.32
19.89
19.78
18.98
17.64
16.01
14.26
12.45
10.48
8.2
5.61
2.78
-0.08
-2.84
-5.4
-7.76
-9.93
-11.93
-13.81
-15.67
-17.75
-20.28
-23.37
-26.94
-30.61
-33.78
-35.76
-35.94
-33.97
-29.84
-23.9
-16.77
-9.22
-1.93
4.53
9.87
14.01
16.99
18.97
20.07
20.39
19.97
18.88
17.24
15.29
13.39
11.93
11.17
11.2
11.86
12.89
14.04
15.13
16.02
16.59
16.69
16.12
14.84
12.91
10.53
7.93
5.25
2.58
-0.04
-2.57
-4.88
-6.92
-8.72
-10.43
-12.26
-14.42
-17.02
-20.07
-23.45
-26.95
-30.21
-32.73
-33.95
-33.37
-30.73
-26.13
-20.01
-13.09
-6.18
0.04
5.14
8.97
11.67
13.47
14.61
15.19
15.19
14.6
13.48
12.03
10.64
9.66
9.35
9.73
10.59
11.6
12.44
12.91
13.0
12.77
12.34
11.7
10.74
9.27
7.17
4.5
1.52
-1.44
-4.12
-6.42
-8.45
-10.39
-12.38
-14.54
-16.97
-19.78
-23.01
-26.56
-30.06
-32.89
-34.32
-33.75
-30.96
-26.19
-20.03
-13.25
-6.61
-0.67
4.25
8.06
10.85
12.79
14.04
14.69
14.74
14.22
13.28
12.17
11.21
10.7
10.74
11.23
11.92
12.57
13.02
13.25
13.3
13.24
13.01
12.52
11.62
10.21
8.29
5.96
3.39
0.73
-1.91
-4.5
-7.09
-9.71
-12.35
-14.99
-17.64
-20.35
-23.27
-26.5
-30.0
-33.51
-36.56
-38.53
-38.89
-37.25
-33.51
-27.87
-20.81
-12.98
-5.11
2.15
8.36
13.28
16.96
19.51
21.1
21.83
21.78
21.05
19.8
18.3
16.89
15.84
15.33
15.35
15.78
16.41
17.05
17.55
17.78
17.63
17.02
15.87
14.22
12.19
9.92
7.58
5.23
2.85
0.45
-1.95
-4.24
-6.34
-8.23
-10.07
-12.05
-14.4
-17.2
-20.45
-23.99
-27.6
-30.97
-33.68
-35.29
-35.36
-33.67
-30.21
-25.23
-19.15
-12.4
-5.46
1.22
7.19
12.07
15.62
17.85
18.93
19.17
18.81
18.0
16.83
15.41
14.0
12.92
12.41
12.59
13.3
14.27
15.13
15.66
15.76
15.51
15.0
14.36
13.63
12.75
11.62
10.15
8.27
6.04
3.55
0.94
-1.68
-4.23
-6.68
-9.01
-11.29
-13.64
-16.22
-19.25
-22.8
-26.73
-30.59
-33.76
-35.5
-35.23
-32.72
-28.11
-21.94
-14.97
-7.98
-1.56
3.95
8.48
12.03
14.6
16.13
16.63
16.23
15.26
14.17
13.32
12.92
12.96
13.26
13.63
13.99
14.28
14.51
14.63
14.59
14.32
13.79
12.98
11.79
10.14
7.98
5.36
2.48
-0.4
-3.04
-5.36
-7.36
-9.16
-10.87
-12.62
-14.53
-16.77
-19.45
-22.54
-25.78
-28.65
-30.49
-30.71
-29.0
-25.39
-20.26
-14.19
-7.76
-1.49
4.23
9.15
12.99
15.53
16.68
16.5
15.3
13.55
11.76
10.26
9.22
8.62
8.4
8.51
8.9
9.45
9.99
10.37
10.44
10.24
9.81
9.19
8.37
7.23
5.71
3.81
1.64
-0.68
-3.02
-5.37
-7.75
-10.18
-12.7
-15.35
-18.2
-21.24
-24.34
-27.18
-29.29
-30.16
-29.41
-26.91
-22.79
-17.43
-11.36
-5.19
0.59
5.62
9.76
12.99
15.31
16.73
17.17
16.66
15.39
13.74
12.24
11.31
11.19
11.78
12.85
14.08
15.22
16.11
16.65
16.79
16.51
15.87
14.92
13.74
12.35
10.68
8.62
6.09
3.11
-0.22
-3.66
-7.02
-10.13
-13.02
-15.87
-18.89
-22.26
-25.93
-29.57
-32.62
-34.43
-34.45
-32.45
-28.52
-23.05
-16.62
-9.82
-3.19
2.82
7.89
11.87
14.71
16.48
17.28
17.26
16.53
15.29
13.81
12.47
11.61
11.41
11.82
12.56
13.27
13.68
13.71
13.43
13.02
12.57
12.05
11.36
10.36
8.94
7.05
4.72
2.04
-0.82
-3.67
-6.31
-8.64
-10.71
-12.71
-14.92
-17.63
-20.97
-24.74
-28.51
-31.59
-33.25
-32.91
-30.35
-25.75
-19.62
-12.64
-5.51
1.2
7.06
11.79
15.29
17.54
18.68
18.9
18.45
17.57
16.48
15.39
14.41
13.68
13.26
13.21
13.51
14.1
14.84
15.51
15.9
15.84
15.29
14.32
13.09
11.72
10.17
8.33
6.05
3.28
0.14
-3.13
-6.29
-9.18
-11.81
-14.29
-16.76
-19.32
-21.98
-24.67
-27.2
-29.27
-30.49
-30.44
-28.82
-25.55
-20.79
-14.94
-8.56
-2.22
3.53
8.28
11.85
14.2
15.43
15.69
15.13
13.88
12.12
10.12
8.26
6.96
6.47
6.85
7.89
9.24
10.54
11.57
12.23
12.56
12.54
12.13
11.26
9.92
8.14
6.08
3.88
1.68
-0.44
-2.48
-4.47
-6.53
-8.8
-11.35
-14.28
-17.58
-21.18
-24.84
-28.15
-30.5
-31.3
-30.11
-26.79
-21.66
-15.34
-8.58
-2.07
3.72
8.53
12.23
14.74
16.06
16.22
15.39
13.87
11.99
10.15
8.64
7.73
7.57
8.17
9.37
10.86
12.26
13.26
13.69
13.6
13.11
12.38
11.46
10.3
8.78
6.84
4.54
2.03
-0.49
-2.89
-5.22
-7.67
-10.45
-13.71
-17.38
-21.25
-24.99
-28.24
-30.64
-31.83
-31.43
-29.2
-25.08
-19.36
-12.64
-5.71
0.76
6.32
10.8
14.23
16.68
18.19
18.81
18.63
17.81
16.57
15.13
13.72
12.52
11.75
11.56
11.99
12.87
13.91
14.72
15.04
14.79
14.07
13.02
11.81
10.45
8.94
7.25
5.36
3.32
1.14
-1.1
-3.38
-5.64
-7.93
-10.3
-12.84
-15.63
-18.72
-22.01
-25.4
-28.64
-31.41
-33.25
-33.66
-32.2
-28.72
-23.41
-16.86
-9.84
-3.01
3.13
8.4
12.76
16.19
18.6
19.94
20.14
19.34
17.81
15.94
14.15
12.75
11.92
11.71
12.0
12.67
13.56
14.56
15.51
16.27
16.64
16.46
15.71
14.47
12.95
11.29
9.56
7.65
5.43
2.81
-0.17
-3.25
-6.2
-8.75
-10.84
-12.57
-14.23
-16.14
-18.63
-21.82
-25.58
-29.51
-33.01
-35.4
-36.1
-34.73
-31.19
-25.71
-18.8
-11.23
-3.84
2.7
7.97
11.88
14.55
16.18
16.93
16.9
16.21
15.06
13.75
12.61
11.83
11.51
11.53
11.76
12.08
12.43
12.78
13.09
13.26
13.19
12.75
11.91
10.66
9.08
7.26
5.29
3.24
1.19
-0.79
-2.6
-4.21
-5.62
-6.96
-8.38
-10.07
-12.2
-14.86
-18.04
-21.64
-25.38
-28.83
-31.43
-32.58
-31.83
-29.03
-24.42
-18.5
-11.91
-5.28
0.91
6.3
10.64
13.79
15.75
16.61
16.55
15.77
14.45
12.86
11.28
10.01
9.37
9.46
10.17
11.23
12.3
13.15
13.7
13.98
14.01
13.77
13.19
12.17
10.74
8.96
6.93
4.74
2.43
-0.01
-2.61
-5.34
-8.13
-10.94
-13.72
-16.54
-19.44
-22.53
-25.78
-29.04
-31.99
-34.1
-34.87
-33.83
-30.77
-25.76
-19.24
-11.9
-4.51
2.16
7.64
11.76
14.63
16.5
17.65
18.19
18.14
17.47
16.26
14.75
13.31
12.28
11.85
12.03
12.67
13.61
14.67
15.71
16.55
17.02
16.94
16.23
14.95
13.32
11.54
9.77
7.93
5.88
3.4
0.41
-3.0
-6.51
-9.8
-12.58
-14.82
-16.7
-18.55
-20.77
-23.58
-26.98
-30.61
-33.9
-36.18
-36.87
-35.62
-32.49
-27.76
-21.92
-15.44
-8.77
-2.27
3.7
8.81
12.78
15.46
16.92
17.44
17.33
16.92
16.41
15.88
15.38
15.01
14.88
15.11
15.75
16.68
17.72
18.62
19.16
19.2
18.7
17.67
16.23
14.51
12.66
10.77
8.9
7.01
5.04
2.9
0.49
-2.16
-4.94
-7.7
-10.28
-12.61
-14.72
-16.79
-19.07
-21.78
-24.98
-28.49
-31.87
-34.55
-35.88
-35.37
-32.81
-28.32
-22.35
-15.5
-8.46
-1.77
4.16
9.08
12.83
15.32
16.52
16.56
15.75
14.48
13.21
12.29
11.87
11.92
12.36
13.06
13.97
15.03
16.13
17.09
17.68
17.71
17.18
16.17
14.84
13.34
11.66
9.75
7.49
4.85
1.89
-1.2
-4.23
-7.04
-9.5
-11.63
-13.49
-15.24
-17.13
-19.46
-22.4
-25.85
-29.42
-32.38
-33.92
-33.4
-30.58
-25.69
-19.36
-12.41
-5.57
0.64
5.91
10.09
13.13
15.06
15.94
15.91
15.16
13.92
12.43
10.96
9.73
8.96
8.81
9.3
10.34
11.71
13.14
14.35
15.14
15.4
15.09
14.23
12.84
10.98
8.69
6.11
3.36
0.65
-1.82
-3.99
-5.86
-7.62
-9.46
-11.62
-14.28
-17.48
-21.17
-25.14
-28.98
-32.13
-33.94
-33.87
-31.62
-27.25
-21.17
-14.02
-6.57
0.47
6.54
11.33
14.76
16.96
18.21
18.74
18.72
18.28
17.51
16.57
15.66
14.97
14.61
14.54
14.66
14.88
15.16
15.5
15.87
16.17
16.25
15.94
15.18
13.98
12.41
10.57
8.5
6.23
3.82
1.37
-1.03
-3.34
-5.61
-7.93
-10.46
-13.27
-16.41
-19.86
-23.56
-27.38
-30.97
-33.88
-35.5
-35.24
-32.73
-27.98
-21.44
-13.83
-6.0
1.33
7.7
12.89
16.93
19.84
21.73
22.65
22.72
22.07
20.94
19.63
18.45
17.64
17.31
17.44
17.88
18.46
19.01
19.46
19.78
19.92
19.77
19.15
17.91
16.02
13.59
10.86
8.08
5.42
2.92
0.56
-1.71
-3.9
-6.04
-8.18
-10.49
-13.1
-16.13
-19.57
-23.31
-27.11
-30.66
-33.51
-35.12
-34.96
-32.74
-28.47
-22.62
-15.89
-9.08
-2.78
2.66
7.19
10.83
13.66
15.68
16.85
17.1
16.47
15.08
13.26
11.43
10.03
9.38
9.6
10.52
11.83
13.16
14.22
14.84
14.95
14.52
13.6
12.27
10.64
8.81
6.84
4.73
2.51
0.19
-2.11
-4.26
-6.24
-8.14
-10.2
-12.66
-15.68
-19.27
-23.15
-26.9
-29.94
-31.72
-31.8
-29.99
-26.36
-21.26
-15.19
-8.76
-2.48
3.31
8.35
12.55
15.81
18.08
19.28
19.43
18.6
16.97
14.87
12.69
10.88
9.78
9.56
10.2
11.44
12.94
14.39
15.52
16.17
16.27
15.78
14.68
12.95
10.63
7.87
4.9
1.97
-0.74
-3.19
-5.52
-7.91
-10.55
-13.45
-16.54
-19.71
-22.88
-26.08
-29.24
-32.14
-34.29
-35.04
-33.85
-30.49
-25.19
-18.55
-11.33
-4.19
2.38
8.08
12.75
16.23
18.51
19.62
19.76
19.17
18.16
16.96
15.79
14.78
14.04
13.65
13.66
14.15
15.09
16.39
17.77
18.86
19.28
18.85
17.65
15.96
14.11
12.28
10.45
8.4
5.98
3.21
0.29
-2.48
-4.89
-6.99
-8.99
-11.19
-13.82
-16.97
-20.54
-24.32
-27.96
-31.14
-33.49
-34.66
-34.36
-32.37
-28.64
-23.32
-16.82
-9.69
-2.5
4.18
9.91
14.37
17.43
19.08
19.47
18.88
17.67
16.16
14.62
13.22
12.09
11.39
11.26
11.75
12.8
14.21
15.66
16.84
17.51
17.55
16.94
15.76
14.2
12.48
10.8
9.19
7.52
5.59
3.18
0.32
-2.8
-5.85
-8.55
-10.84
-12.89
-14.99
-17.4
-20.28
-23.58
-27.08
-30.36
-32.84
-33.84
-32.78
-29.35
-23.75
-16.67
-9.0
-1.65
4.76
9.95
13.94
16.83
18.72
19.63
19.59
18.67
17.07
15.13
13.22
11.67
10.69
10.3
10.41
10.8
11.29
11.72
12.02
12.16
12.07
11.7
10.97
9.87
8.39
6.55
4.33
1.79
-0.97
-3.74
-6.27
-8.42
-10.15
-11.62
-13.04
-14.65
-16.62
-19.02
-21.83
-24.9
-27.9
-30.34
-31.65
-31.35
-29.18
-25.19
-19.74
-13.39
-6.78
-0.46
5.07
9.52
12.72
14.67
15.49
15.36
14.44
12.97
11.22
9.55
8.33
7.79
7.95
8.6
9.44
10.21
10.87
11.48
12.16
12.91
13.5
13.62
12.97
11.44
9.14
6.36
3.45
0.67
-1.85
-4.21
-6.6
-9.28
-12.37
-15.91
-19.75
-23.7
-27.5
-30.9
-33.54
-34.97
-34.77
-32.63
-28.48
-22.65
-15.76
-8.58
-1.82
4.01
8.67
12.12
14.49
15.93
16.58
16.58
16.02
15.03
13.79
12.58
11.67
11.29
11.49
12.13
13.01
13.87
14.56
15.03
15.27
15.28
14.97
14.23
13.02
11.35
9.31
6.98
4.46
1.8
-0.97
-3.72
-6.36
-8.78
-10.96
-13.02
-15.22
-17.84
-21.07
-24.87
-28.89
-32.51
-34.96
-35.48
-33.71
-29.65
-23.79
-16.9
-9.78
-3.09
2.79
7.71
11.63
14.6
16.61
17.63
17.7
16.92
15.54
13.91
12.4
11.34
10.87
10.97
11.46
12.12
12.77
13.31
13.68
13.88
13.82
13.48
12.8
11.78
10.42
8.76
6.82
4.68
2.45
0.26
-1.82
-3.77
-5.69
-7.69
-9.89
-12.35
-15.07
-18.1
-21.45
-25.05
-28.61
-31.56
-33.26
-33.08
-30.74
-26.39
-20.53
-13.87
-7.09
-0.76
4.76
9.26
12.65
14.99
16.4
17.07
17.19
16.99
16.64
16.26
15.94
15.68
15.51
15.45
15.57
15.92
16.51
17.18
17.71
17.81
17.31
16.21
14.64
12.8
10.85
8.86
6.83
4.72
2.51
0.2
-2.16
-4.52
-6.76
-8.79
-10.58
-12.21
-13.94
