0
20.37
23.44
24.96
25.35
25.02
24.36
23.72
23.34
23.4
23.99
25.07
26.44
27.89
29.21
30.31
31.14
31.65
31.7
31.06
29.53
27.01
23.7
19.96
16.23
12.79
9.68
6.73
3.73
0.53
-2.85
-6.29
-9.62
-12.75
-15.73
-18.69
-21.9
-25.67
-30.37
-36.12
-42.7
-49.37
-54.89
-57.87
-57.16
-52.35
-43.9
-33.08
-21.43
-10.37
-0.77
7.01
13.01
17.37
20.26
21.74
21.93
21.06
19.52
17.81
16.47
15.93
16.45
17.99
20.26
22.74
24.85
26.14
26.41
25.72
24.31
22.46
20.37
18.16
15.86
13.4
10.72
7.71
4.33
0.64
-3.13
-6.62
-9.46
-11.48
-12.9
-14.26
-16.27
-19.47
-23.99
-29.42
-34.91
-39.37
-41.76
-41.23
-37.42
-30.46
-21.04
-10.22
0.76
10.77
18.97
24.96
28.67
30.29
30.1
28.46
25.77
22.5
19.21
16.45
14.69
14.2
14.94
16.64
18.79
20.83
22.27
22.83
22.49
21.43
19.85
17.99
15.9
13.56
10.91
7.88
4.55
1.05
-2.35
-5.43
-8.02
-10.1
-11.84
-13.52
-15.47
-18.01
-21.39
-25.74
-31.08
-37.13
-43.26
-48.45
-51.49
-51.32
-47.42
-39.97
-29.88
-18.44
-6.97
3.5
12.34
19.29
24.31
27.49
28.94
28.87
27.61
25.63
23.49
21.76
20.9
21.11
22.29
24.16
26.29
28.33
30.09
31.5
32.51
33.03
32.87
31.9
30.02
27.34
24.09
20.61
17.22
14.11
11.3
8.58
5.59
2.06
-2.12
-6.73
-11.32
-15.42
-18.75
-21.4
-23.83
-26.68
-30.56
-35.77
-42.12
-48.82
-54.66
-58.14
-58.03
-53.69
-45.35
-34.07
-21.4
-8.86
2.4
11.77
19.11
24.51
28.09
30.01
30.42
29.65
28.17
26.52
25.21
24.58
24.74
25.6
26.99
28.6
30.23
31.72
32.95
33.87
34.37
34.33
33.56
31.94
29.43
26.18
22.52
18.87
15.61
12.97
10.94
9.28
7.58
5.46
2.69
-0.69
-4.4
-8.04
-11.28
-13.99
-16.37
-18.82
-21.8
-25.71
-30.75
-36.79
-43.34
-49.54
-54.26
-56.24
-54.55
-48.84
-39.58
-27.99
-15.62
-3.96
5.98
13.8
19.54
23.46
25.78
26.64
26.19
24.74
22.81
21.08
20.16
20.4
21.73
23.77
25.95
27.82
29.12
29.89
30.25
30.33
30.13
29.53
28.39
26.65
24.4
21.84
19.18
16.62
14.2
11.9
9.59
7.15
4.43
1.41
-1.84
-5.18
-8.42
-11.41
-14.12
-16.6
-19.0
-21.5
-24.29
-27.55
-31.37
-35.66
-40.03
-43.8
-46.06
-45.85
-42.53
-36.01
-26.78
-15.91
-4.71
5.55
13.92
19.96
23.66
25.32
25.36
24.13
21.98
19.24
16.4
13.98
12.48
12.14
12.87
14.27
15.83
17.21
18.26
19.04
19.62
19.9
19.62
18.52
16.48
13.65
10.46
7.4
4.9
3.04
1.63
0.27
-1.48
-3.87
-6.85
-10.08
-13.19
-15.89
-18.18
-20.32
-22.73
-25.86
-29.97
-35.02
-40.63
-46.08
-50.33
-52.23
-50.83
-45.7
-37.15
-26.21
-14.32
-2.9
7.01
14.93
20.79
24.71
26.8
27.15
25.94
23.57
20.71
18.12
16.49
16.09
16.78
18.08
19.37
20.18
20.34
20.01
19.51
19.14
18.99
18.85
18.38
17.26
15.4
13.03
10.55
8.34
6.64
5.36
4.22
2.89
1.1
-1.25
-4.07
-7.17
-10.33
-13.36
-16.22
-18.95
-21.72
-24.74
-28.31
-32.65
-37.88
-43.73
-49.48
-54.02
-56.04
-54.53
-49.11
-40.31
-29.32
-17.69
-6.78
2.57
10.0
15.55
19.41
21.79
22.84
22.78
21.93
20.64
19.31
18.27
17.75
17.88
18.65
19.93
21.53
23.17
24.63
25.75
26.41
26.58
26.19
25.17
23.51
21.29
18.7
16.01
13.47
11.21
9.21
7.34
5.38
3.19
0.67
-2.15
-5.15
-8.11
-10.81
-13.07
-14.9
-16.53
-18.42
-21.1
-24.97
-30.12
-36.24
-42.6
-48.07
-51.48
-51.8
-48.42
-41.46
-31.7
-20.43
-9.09
1.12
9.44
15.65
19.82
22.24
23.22
23.07
22.09
20.64
19.03
17.57
16.47
15.87
15.85
16.38
17.36
18.63
19.98
21.23
22.19
22.61
22.24
20.89
18.48
15.23
11.59
8.11
5.22
3.03
1.33
-0.33
-2.36
-4.91
-7.83
-10.77
-13.35
-15.4
-16.98
-18.43
-20.17
-22.59
-25.94
-30.18
-34.96
-39.59
-43.1
-44.44
-42.77
-37.73
-29.72
-19.77
-9.29
0.36
8.29
14.15
18.08
20.39
21.35
21.1
19.74
17.5
14.8
12.25
10.45
9.8
10.36
11.82
13.6
15.14
16.03
16.16
15.7
14.92
14.02
12.98
11.55
9.47
6.6
3.08
-0.69
-4.21
-7.12
-9.27
-10.86
-12.24
-13.82
-15.94
-18.79
-22.45
-26.84
-31.69
-36.49
-40.44
-42.53
-41.8
-37.75
-30.56
-21.15
-10.89
-1.2
6.92
13.08
17.42
20.3
22.01
22.64
22.12
20.51
18.05
15.26
12.69
10.86
10.03
10.28
11.46
13.32
15.48
17.5
18.94
19.48
18.96
17.48
15.22
12.47
9.4
6.2
2.96
-0.23
-3.3
-6.27
-9.18
-12.08
-14.96
-17.8
-20.48
-23.01
-25.45
-28.06
-31.12
-34.83
-39.15
-43.75
-47.92
-50.69
-51.15
-48.58
-42.87
-34.53
-24.59
-14.3
-4.82
3.14
9.35
13.87
16.96
18.83
19.61
19.43
18.46
17.01
15.47
14.27
13.74
14.09
15.33
17.25
19.44
21.42
22.76
23.24
22.81
21.67
20.02
18.11
16.07
14.01
12.0
10.02
7.97
5.69
3.02
-0.1
-3.52
-6.94
-9.99
-12.48
-14.49
-16.36
-18.61
-21.68
-25.83
-30.98
-36.68
-42.07
-46.06
-47.59
-45.91
-40.88
-33.06
-23.52
-13.54
-4.2
3.8
10.23
15.08
18.48
20.47
21.14
20.66
19.45
18.04
17.03
16.85
17.55
18.9
20.43
21.71
22.5
22.81
22.78
22.51
22.01
21.16
19.8
17.89
15.51
12.9
10.31
7.99
6.05
4.46
3.04
1.49
-0.45
-2.95
-5.94
-9.13
-12.17
-14.8
-16.99
-18.99
-21.19
-23.99
-27.6
-31.95
-36.58
-40.74
-43.47
-43.82
-41.13
-35.29
-26.85
-16.9
-6.73
2.52
10.14
15.93
19.99
22.48
23.58
23.36
22.03
19.95
17.68
15.85
14.94
15.18
16.4
18.2
20.08
21.61
22.6
23.06
23.1
22.82
22.15
20.93
18.98
16.27
13.05
9.76
6.88
4.71
3.28
2.28
1.28
-0.09
-1.99
-4.32
-6.78
-9.03
-10.9
-12.46
-14.04
-16.03
-18.78
-22.44
-26.88
-31.71
-36.27
-39.72
-41.15
-39.84
-35.5
-28.45
-19.65
-10.34
-1.69
5.52
11.04
15.0
17.64
19.13
19.51
18.8
17.19
15.08
13.06
11.71
11.4
12.17
13.71
15.55
17.22
18.42
19.09
19.29
19.1
18.51
17.4
15.68
13.41
10.85
8.35
6.23
4.58
3.23
1.84
0.09
-2.13
-4.69
-7.27
-9.51
-11.19
-12.36
-13.29
-14.41
-16.17
-18.91
-22.67
-27.2
-31.88
-35.81
-37.98
-37.57
-34.21
-28.16
-20.23
-11.53
-3.15
4.13
9.88
13.97
16.41
17.2
16.38
14.2
11.15
7.96
5.46
4.27
4.68
6.47
9.12
11.95
14.4
16.12
17.03
17.27
17.02
16.45
15.66
14.6
13.18
11.23
8.66
5.47
1.85
-1.86
-5.31
-8.23
-10.6
-12.61
-14.62
-17.02
-20.11
-23.95
-28.31
-32.65
-36.16
-37.94
-37.19
-33.53
-27.13
-18.7
-9.41
-0.46
7.19
13.03
17.03
19.46
20.61
20.71
19.88
18.2
15.92
13.49
11.47
10.35
10.34
11.29
12.76
14.23
15.28
15.75
15.63
14.98
13.92
12.52
10.88
9.13
7.37
5.59
3.68
1.44
-1.23
-4.24
-7.36
-10.31
-12.94
-15.36
-17.86
-20.83
-24.5
-28.9
-33.78
-38.61
-42.61
-44.9
-44.62
-41.26
-34.88
-26.11
-16.05
-5.93
3.19
10.68
16.29
20.1
22.3
23.1
22.74
21.49
19.69
17.72
15.95
14.62
13.89
13.77
14.19
15.03
16.17
17.48
18.82
20.02
20.88
21.2
20.84
19.73
17.99
15.78
13.32
10.79
8.24
5.65
3.01
0.29
-2.5
-5.27
-7.94
-10.42
-12.69
-14.89
-17.3
-20.3
-24.25
-29.25
-34.95
-40.49
-44.59
-45.96
-43.73
-37.85
-29.1
-18.89
-8.72
0.27
7.53
13.1
17.27
20.36
22.51
23.7
23.99
23.59
22.9
22.33
22.15
22.31
22.6
22.79
22.76
22.62
22.57
22.74
23.09
23.33
23.06
21.98
20.02
17.35
14.33
11.38
8.76
6.56
4.69
2.95
1.12
-0.95
-3.28
-5.81
-8.37
-10.8
-12.95
-14.8
-16.43
-18.14
-20.33
-23.35
-27.29
-31.8
-36.02
-38.75
-38.87
-35.75
-29.49
-20.96
-11.44
-2.24
5.71
11.92
16.36
19.16
20.5
20.48
19.24
16.95
13.92
10.66
7.77
5.8
5.17
5.94
7.85
10.27
12.54
14.09
14.68
14.35
13.4
12.16
10.89
9.67
8.51
7.31
6.03
4.61
3.04
1.28
-0.71
-2.96
-5.45
-8.1
-10.76
-13.33
-15.81
-18.33
-21.11
-24.23
-27.46
-30.14
-31.33
-30.19
-26.31
-19.97
-12.07
-3.83
3.68
9.76
14.21
17.14
18.74
19.17
18.55
17.05
14.97
12.73
10.78
9.5
9.09
9.49
10.49
11.75
12.89
13.59
13.66
13.03
11.8
10.2
8.45
6.71
5.04
3.35
1.48
-0.65
-3.07
-5.6
-8.04
-10.19
-12.0
-13.57
-15.12
-16.89
-19.05
-21.77
-25.1
-28.99
-33.15
-36.92
-39.39
-39.63
-36.95
-31.29
-23.31
-14.1
-4.93
3.2
9.72
14.53
17.82
19.86
20.86
20.92
20.14
18.7
16.91
15.17
13.82
13.12
13.11
13.68
14.63
15.68
16.59
17.14
17.16
16.58
15.42
13.82
12.03
10.25
8.64
7.19
5.75
4.12
2.12
-0.33
-3.17
-6.22
-9.22
-11.9
-14.11
-15.85
-17.29
-18.76
-20.66
-23.31
-26.8
-30.88
-34.88
-37.78
-38.58
-36.54
-31.45
-23.83
-14.68
-5.28
3.27
10.24
15.32
18.58
20.26
20.66
20.09
18.85
17.27
15.68
14.38
13.58
13.39
13.78
14.6
15.63
16.62
17.34
17.71
17.72
17.42
16.83
15.85
14.34
12.21
9.6
6.78
4.15
1.93
0.12
-1.5
-3.24
-5.22
-7.34
-9.32
-10.85
-11.84
-12.46
-13.17
-14.55
-17.08
-20.98
-26.01
-31.46
-36.21
-39.03
-38.98
-35.71
-29.57
-21.53
-12.8
-4.43
2.85
8.79
13.38
16.75
18.91
19.85
19.55
18.21
16.21
14.08
12.32
11.25
10.94
11.18
11.67
12.13
12.42
12.54
12.61
12.68
12.78
12.82
12.63
12.04
10.91
9.26
7.18
4.89
2.73
0.95
-0.3
-1.06
-1.6
-2.32
-3.66
-5.94
-9.31
-13.65
-18.59
-23.52
-27.63
-30.06
-30.13
-27.47
-22.28
-15.27
-7.45
0.13
6.67
11.76
15.33
17.47
18.35
18.12
16.95
15.09
12.87
10.69
8.9
7.77
7.43
7.86
8.93
10.38
11.91
13.25
14.21
14.71
14.77
14.41
13.62
12.4
10.8
9.0
7.18
5.5
4.04
2.7
1.3
-0.3
-2.12
-4.1
-6.19
-8.43
-10.97
-14.0
-17.63
-21.72
-25.81
-29.18
-30.95
-30.39
-27.18
-21.52
-14.16
-6.18
1.32
7.56
12.19
15.28
17.08
17.88
17.89
17.21
15.95
14.36
12.82
11.72
11.36
11.76
12.76
14.0
15.19
16.13
16.76
17.11
17.16
16.91
16.29
15.27
13.87
12.17
10.26
8.22
6.12
4.03
1.98
0.01
-1.9
-3.78
-5.68
-7.59
-9.5
-11.39
-13.3
-15.36
-17.72
-20.48
-23.57
-26.67
-29.17
-30.35
-29.56
-26.5
-21.29
-14.57
-7.3
-0.48
5.09
9.03
11.33
12.24
12.07
11.1
9.55
7.69
5.83
4.36
3.58
3.6
4.34
5.51
6.78
7.89
8.66
9.05
9.01
8.57
7.78
6.72
5.48
4.14
2.71
1.2
-0.38
-1.98
-3.42
-4.59
-5.46
-6.14
-6.89
-7.99
-9.68
-12.03
-14.91
-18.01
-20.86
-22.92
-23.61
-22.57
-19.63
-15.01
-9.27
-3.2
2.38
6.84
9.85
11.4
11.67
10.88
9.23
6.91
4.25
1.68
-0.25
-1.09
-0.69
0.74
2.77
4.88
6.65
7.86
8.48
8.57
8.22
7.49
6.35
4.83
2.9
0.66
-1.7
-3.94
-5.84
-7.29
-8.36
-9.32
-10.45
-12.04
-14.23
-17.01
-20.17
-23.25
-25.54
-26.25
-24.79
-20.99
-15.31
-8.68
-2.24
3.12
6.91
9.17
10.15
10.17
9.45
8.16
6.49
4.72
3.18
2.14
1.77
2.08
2.94
4.15
5.5
6.81
7.93
8.73
9.1
8.98
8.33
7.16
5.58
3.72
1.73
-0.25
-2.19
-4.12
-6.11
-8.09
-9.93
-11.48
-12.69
-13.71
-14.85
-16.51
-18.93
-22.08
-25.55
-28.71
-30.85
-31.38
-29.99
-26.62
-21.54
-15.23
-8.32
-1.46
4.73
9.77
13.35
15.35
15.91
15.27
13.85
12.04
10.13
8.3
6.7
5.46
4.72
4.56
4.94
5.73
6.77
7.88
8.99
10.08
11.04
11.67
11.76
11.15
9.86
8.13
6.26
4.45
2.76
1.12
-0.61
-2.5
-4.51
-6.51
-8.36
-9.96
-11.29
-12.45
-13.68
-15.31
-17.61
-20.71
-24.39
-28.07
-30.93
-32.12
-31.06
-27.65
-22.31
-15.78
-8.97
-2.65
2.59
6.49
9.03
10.37
10.79
10.61
10.17
9.72
9.44
9.43
9.72
10.27
10.97
11.68
12.25
12.57
12.58
12.27
11.68
10.88
9.91
8.82
7.58
6.2
4.72
3.2
1.74
0.42
-0.74
-1.86
-3.1
-4.56
-6.2
-7.83
-9.2
-10.18
-10.87
-11.62
-12.83
-14.83
-17.63
-20.97
-24.32
-27.06
-28.53
-28.23
-25.86
-21.44
-15.37
-8.39
-1.41
4.68
9.29
12.18
13.47
13.49
12.6
11.17
9.54
8.01
6.85
6.25
6.24
6.7
7.32
7.82
7.98
7.78
7.37
6.98
6.81
6.88
7.03
6.99
6.52
5.5
4.0
2.25
0.48
-1.12
-2.54
-3.88
-5.27
-6.82
-8.57
-10.55
-12.76
-15.23
-18.04
-21.22
-24.66
-28.02
-30.68
-31.89
-30.96
-27.6
-22.05
-15.05
-7.64
-0.76
4.98
9.4
12.59
14.66
15.68
15.69
14.78
13.21
11.39
9.78
8.73
8.43
8.82
9.74
10.89
11.97
12.72
12.99
12.75
12.07
11.04
9.73
8.21
6.55
4.9
3.47
2.48
1.94
1.67
1.28
0.4
-1.16
-3.32
-5.79
-8.18
-10.19
-11.72
-12.92
-14.05
-15.52
-17.68
-20.72
-24.51
-28.54
-31.93
-33.72
-33.14
-29.9
-24.31
-17.18
-9.55
-2.36
3.74
8.49
11.92
14.25
15.64
16.18
15.95
15.13
13.96
12.81
12.04
11.82
12.13
12.76
13.4
13.88
14.15
14.27
14.3
14.23
13.94
13.31
12.28
10.9
9.31
7.69
6.14
4.69
3.29
1.84
0.2
-1.75
-4.05
-6.61
-9.19
-11.51
-13.29
-14.47
-15.29
-16.15
-17.56
-19.9
-23.24
-27.25
-31.22
-34.23
-35.3
-33.75
-29.33
-22.44
-14.01
-5.3
2.48
8.48
12.41
14.5
15.27
15.26
14.81
14.01
12.78
11.11
9.19
7.43
6.32
6.23
7.19
8.91
10.9
12.66
13.87
14.46
14.47
14.02
13.17
11.96
10.43
8.64
6.72
4.78
2.9
1.12
-0.58
-2.25
-3.93
-5.65
-7.44
-9.31
-11.26
-13.37
-15.74
-18.53
-21.73
-25.1
-28.06
-29.81
-29.59
-26.99
-22.16
-15.77
-8.83
-2.29
3.19
7.36
10.3
12.21
13.25
13.51
13.08
12.15
10.99
9.95
9.34
9.4
10.12
11.4
13.07
14.9
16.67
18.1
18.9
18.8
17.73
15.81
13.31
10.59
7.89
5.31
2.76
0.12
-2.67
-5.5
-8.11
-10.27
-11.85
-12.99
-14.06
-15.5
-17.63
-20.54
-24.07
-27.87
-31.53
-34.58
-36.53
-36.87
-35.16
-31.18
-25.17
-17.78
-9.98
-2.71
3.38
8.1
11.58
14.05
15.71
16.51
16.42
15.46
13.87
12.05
10.45
9.44
9.21
9.76
10.92
12.53
14.36
16.22
17.9
19.13
19.69
19.39
18.23
16.45
14.44
12.63
11.32
10.43
9.62
8.37
6.28
3.29
-0.34
-4.11
-7.58
-10.48
-12.83
-14.9
-17.07
-19.73
-23.14
-27.28
-31.75
-35.77
-38.32
-38.43
-35.58
-29.87
-22.08
-13.38
-4.99
2.18
7.7
11.56
13.98
15.31
15.84
15.81
15.49
15.14
15.03
15.34
16.1
17.16
18.33
19.42
20.31
20.99
21.41
21.52
21.2
20.35
18.98
17.18
15.17
13.13
11.17
9.3
7.47
5.64
3.79
1.95
0.13
-1.74
-3.73
-5.88
-8.22
-10.72
-13.38
-16.3
-19.55
-23.15
-26.85
-30.08
-32.06
-32.0
-29.4
-24.33
-17.35
-9.4
-1.48
5.65
11.52
15.94
18.86
20.28
20.31
19.14
17.19
14.99
13.12
12.08
12.1
13.11
14.8
16.7
18.34
19.41
19.8
19.65
19.18
18.61
17.99
17.2
16.01
14.26
11.91
9.13
6.18
3.36
0.9
-1.1
-2.71
-4.2
-5.89
-8.16
-11.25
-15.19
-19.72
-24.35
-28.37
-31.04
-31.7
-29.94
-25.75
-19.54
-12.12
-4.46
2.55
8.34
12.75
15.93
18.13
19.49
20.04
19.74
18.65
17.03
15.32
14.0
13.42
13.73
14.82
16.46
18.3
20.01
21.28
21.93
21.85
21.11
19.85
18.24
16.4
14.41
12.27
10.0
7.61
5.16
2.7
0.29
-1.98
-4.04
-5.85
-7.44
-8.99
-10.77
-13.03
-15.96
-19.52
-23.39
-27.0
-29.58
-30.36
-28.77
-24.75
-18.71
-11.52
-4.19
2.45
7.92
12.14
15.18
17.15
18.02
17.77
16.51
14.61
12.64
11.16
10.52
10.78
11.76
13.18
14.8
16.52
18.26
19.91
21.28
22.11
22.18
21.46
20.02
18.05
15.73
13.15
10.37
7.39
4.27
1.11
-1.98
-4.88
-7.47
-9.72
-11.64
-13.34
-14.95
-16.65
-18.64
-21.05
-23.91
-27.03
-29.97
-32.05
-32.49
-30.66
-26.33
-19.79
-11.88
-3.77
3.49
9.2
13.22
15.81
17.32
17.94
17.64
16.3
13.99
11.13
8.38
6.5
5.97
6.83
8.66
10.85
12.81
14.17
14.81
14.8
14.32
13.55
12.65
11.68
10.58
9.24
7.54
5.46
3.12
0.75
-1.35
-3.04
-4.31
-5.38
-6.49
-7.91
-9.75
-12.11
-15.01
-18.41
-22.12
-25.67
-28.31
-29.14
-27.44
-23.04
-16.44
-8.7
-1.08
5.41
10.27
13.51
15.47
16.46
16.59
15.85
14.29
12.13
9.79
7.84
6.69
6.53
7.23
8.48
9.92
11.2
12.11
12.52
12.45
11.96
11.13
10.09
8.91
7.63
6.17
4.48
2.54
0.45
-1.64
-3.58
-5.26
-6.72
-8.03
-9.36
-10.92
-12.92
-15.55
-18.95
-23.04
-27.45
-31.47
-34.16
-34.66
-32.42
-27.5
-20.51
-12.44
-4.4
2.73
8.38
12.35
14.7
15.6
15.34
14.22
12.57
10.74
9.07
7.87
7.4
7.73
8.77
10.25
11.86
13.31
14.49
15.43
16.2
16.84
17.25
17.25
16.73
15.67
14.19
12.44
10.55
8.53
6.34
3.97
1.43
-1.19
-3.81
-6.38
-8.94
-11.53
-14.2
-17.01
-20.03
-23.23
-26.46
-29.28
-31.02
-30.98
-28.7
-24.21
-18.06
-11.15
-4.45
1.33
5.88
9.21
11.5
12.87
13.35
12.91
11.64
9.78
7.75
6.01
4.95
4.74
5.28
6.31
7.47
8.51
9.34
9.96
10.4
10.57
10.34
9.55
8.16
6.29
4.16
2.05
0.14
-1.52
-3.03
-4.47
-5.94
-7.48
-9.18
-11.11
-13.38
-16.04
-19.0
-21.93
-24.33
-25.56
-25.06
-22.57
-18.26
-12.71
-6.76
-1.18
3.54
7.25
10.07
12.13
13.46
13.94
13.44
12.02
10.01
8.0
6.56
6.05
6.47
7.48
8.58
9.31
9.47
9.1
8.46
7.81
7.25
6.63
5.69
4.19
2.06
-0.51
-3.17
-5.59
-7.59
-9.24
-10.83
-12.71
-15.2
-18.46
-22.34
-26.45
-30.07
-32.35
-32.52
-30.14
-25.27
-18.54
-10.96
-3.55
2.82
7.71
11.06
13.05
14.0
14.14
13.63
12.59
11.23
9.82
8.71
8.21
8.42
9.24
10.33
11.24
11.68
11.59
11.12
10.52
9.96
9.4
8.65
7.47
5.71
3.43
0.83
-1.82
-4.3
-6.48
-8.4
-10.14
-11.87
-13.76
-16.04
-18.91
-22.47
-26.58
-30.72
-34.08
-35.71
-34.89
-31.36
-25.5
-18.17
-10.41
-3.12
3.23
8.46
12.6
15.69
17.66
18.4
17.93
16.53
14.67
12.92
11.75
11.37
11.71
12.47
13.28
13.85
14.04
13.86
13.37
12.64
11.72
10.63
9.4
8.03
6.55
4.94
3.15
1.22
-0.79
-2.74
-4.5
-6.02
-7.4
-8.83
-10.52
-12.66
-15.29
-18.43
-21.98
-25.69
-29.11
-31.62
-32.56
-31.38
-27.95
-22.56
-15.87
-8.66
-1.68
4.55
9.71
13.54
15.87
16.64
15.9
13.96
11.32
8.59
6.34
5.01
4.76
5.52
7.0
8.8
10.53
11.87
12.65
12.81
12.4
11.54
10.33
8.85
7.15
5.3
3.39
1.55
-0.09
-1.51
-2.78
-4.04
-5.51
-7.38
-9.78
-12.71
-16.01
-19.33
-22.12
-23.7
-23.45
-21.0
-16.44
-10.36
-3.65
2.77
8.25
12.52
15.62
17.67
18.71
18.71
17.67
15.84
13.73
12.02
11.29
11.74
13.12
14.86
16.35
17.15
17.14
16.42
15.24
13.83
12.34
10.88
9.51
8.24
6.97
5.61
4.04
2.18
0.11
-2.01
-4.0
-5.77
-7.42
-9.23
-11.57
-14.8
-18.99
-23.85
-28.71
-32.6
-34.53
-33.78
-30.1
-23.83
-15.86
-7.37
0.51
6.94
11.56
14.5
16.18
17.1
17.63
17.92
18.0
17.85
17.53
17.19
17.05
17.33
18.14
19.44
21.12
22.95
24.65
25.96
26.69
26.73
26.09
24.93
23.45
21.94
20.63
19.7
19.21
19.15
19.41
19.83
20.29
20.69
21.0
21.24
21.45
21.58
21.64
21.56
21.37
21.13
21.03
21.31
22.23
24.09
27.1
31.45
37.18
44.17
52.1
60.5
68.84
76.73
83.94
90.39
95.93
100.23
102.85
103.28
101.34
97.23
91.62
85.32
79.17
73.73
69.27
65.75
62.92
60.37
57.56
53.94
49.07
42.73
35.08
26.56
17.73
9.11
1.05
-6.36
-13.18
-19.59
-25.75
-31.78
-37.76
-43.74
-49.71
-55.69
-61.67
-67.64
-73.58
-79.55
-85.59
-91.87
-98.53
-105.65
-113.12
-120.53
-127.22
-132.33
-135.18
-135.38
-132.98
-128.46
-122.45
-115.6
-108.4
-101.23
-94.59
-89.15
-85.61
-84.45
-85.56
-88.16
-91.06
-93.03
-93.28
-91.64
-88.33
-83.74
-78.03
-71.16
-62.97
-53.45
-42.87
-31.65
-20.22
-8.92
2.03
12.37
21.65
29.34
34.87
38.02
39.01
38.56
37.58
36.82
36.59
36.66
36.47
35.41
33.09
29.48
24.86
19.71
14.62
10.29
7.37
6.42
7.69
10.93
15.47
20.23
24.18
26.61
27.32
26.53
24.69
22.17
19.15
15.63
11.52
6.94
2.18
-2.27
-5.93
-8.47
-9.85
-10.25
-9.94
-9.16
-8.08
-6.83
-5.53
-4.35
-3.49
-3.08
-3.17
-3.67
-4.44
-5.34
-6.4
-7.67
-9.21
-11.02
-13.02
-15.06
-16.93
-18.48
-19.6
-20.31
-20.74
-21.18
-22.03
-23.73
-26.49
-30.16
-34.09
-37.25
-38.5
-37.04
-32.64
-25.79
-17.46
-8.85
-0.97
5.6
10.69
14.43
17.05
18.71
19.44
19.31
18.5
17.38
16.42
16.01
16.33
17.26
18.5
19.72
20.69
21.34
21.72
21.87
21.78
21.33
20.39
18.91
16.92
14.55
12.04
9.63
7.49
5.77
4.41
3.24
2.04
0.56
-1.28
-3.37
-5.49
-7.33
-8.73
-9.79
-10.83
-12.33
-14.64
-17.89
-21.83
-25.98
-29.65
-32.14
-32.77
-31.08
-26.9
-20.5
-12.64
-4.33
3.34
9.63
14.21
17.19
18.88
19.63
19.63
19.0
17.85
16.44
15.11
14.23
14.08
14.73
16.04
17.73
19.45
20.91
21.95
22.57
22.87
22.98
22.97
22.85
22.6
22.22
21.7
21.11
20.44
19.68
18.77
17.69
16.49
15.29
14.21
13.37
12.85
12.62
12.64
12.79
12.92
12.93
12.73
12.36
11.89
11.46
11.13
10.96
10.91
10.92
10.93
10.91
10.82
10.64
10.32
9.79
8.95
7.78
6.27
4.57
2.9
1.57
0.8
0.61
0.75
0.81
0.39
-0.71
-2.35
-4.2
-5.92
-7.36
-8.62
-10.02
-11.81
-14.09
-16.73
-19.48
-22.12
-24.53
-26.76
-28.93
-31.22
-33.83
-36.96
-40.81
-45.39
-50.36
-54.98
-58.16
-58.81
-56.12
-49.88
-40.64
-29.54
-18.01
-7.41
1.31
7.79
12.17
14.87
16.38
16.97
16.75
15.76
14.17
12.36
10.87
10.16
10.47
11.69
13.49
15.49
17.45
19.24
20.76
21.91
22.5
22.38
21.45
19.81
17.62
15.05
12.22
9.16
5.94
2.68
-0.44
-3.25
-5.7
-7.8
-9.74
-11.75
-14.07
-16.86
-20.25
-24.17
-28.32
-32.1
-34.69
-35.24
-33.16
-28.41
-21.55
-13.54
-5.49
1.69
7.48
11.71
14.45
15.85
16.1
15.43
14.18
12.75
11.6
11.09
11.39
12.48
14.13
16.01
17.73
19.0
19.68
19.79
19.42
18.7
17.66
16.22
14.24
11.61
8.34
4.63
0.8
-2.75
-5.75
-8.12
-9.95
-11.53
-13.24
-15.43
-18.31
-21.91
-26.03
-30.24
-33.94
-36.37
-36.85
-34.88
-30.39
-23.77
-15.89
-7.81
-0.47
5.53
10.1
13.4
15.66
16.95
17.14
16.05
13.74
10.61
7.35
4.77
3.43
3.52
4.77
6.64
8.52
9.99
10.85
11.12
10.92
10.35
9.43
8.13
6.4
4.25
1.85
-0.53
-2.67
-4.39
-5.74
-6.97
-8.51
-10.77
-14.05
-18.34
-23.29
-28.21
-32.18
-34.31
-33.94
-30.88
-25.48
-18.49
-10.88
-3.62
2.61
7.43
10.77
12.79
13.7
13.64
12.79
11.33
9.57
7.9
6.76
6.43
7.01
8.39
10.27
12.37
14.4
16.15
17.42
17.98
17.61
16.17
13.69
10.42
6.75
3.1
-0.18
-2.91
-5.15
-7.2
-9.49
-12.47
-16.44
-21.3
-26.59
-31.47
-34.98
-36.24
-34.76
-30.49
-23.93
-15.89
-7.39
0.62
7.45
12.69
16.27
18.25
18.81
18.14
16.49
14.25
11.95
10.18
9.41
9.82
11.21
13.15
15.08
16.59
17.5
17.88
17.94
17.87
17.68
17.17
16.03
14.05
11.24
7.87
4.44
1.39
-1.02
-2.87
-4.46
-6.19
-8.39
-11.28
-15.02
-19.63
-24.98
-30.64
-35.78
-39.37
-40.38
-38.23
-32.98
-25.34
-16.46
-7.56
0.4
6.95
12.05
15.92
18.89
21.16
22.75
23.57
23.55
22.8
21.64
20.54
19.96
20.18
21.17
22.71
24.49
26.18
27.55
28.42
28.66
28.17
27.01
25.37
23.54
21.76
20.21
18.9
17.68
16.27
14.37
11.74
8.24
3.95
-0.81
-5.62
-10.08
-14.0
-17.55
-21.18
-25.31
-30.08
-35.06
-39.3
-41.65
-41.19
-37.57
-31.21
-23.06
-14.24
-5.72
1.89
8.39
13.7
17.78
20.51
21.87
21.96
21.14
19.94
18.97
18.65
19.09
20.14
21.49
22.82
23.93
24.83
25.62
26.35
26.95
27.13
26.56
25.03
22.6
19.57
16.48
13.8
11.81
10.48
9.55
8.67
7.63
6.31
4.76
3.05
1.24
-0.68
-2.71
-4.9
-7.32
-10.14
-13.64
-18.01
-23.19
-28.74
-33.72
-37.02
-37.67
-35.24
-30.01
-22.83
-14.85
-7.08
-0.21
5.5
10.06
13.59
16.18
17.83
18.49
18.21
17.18
15.8
14.57
13.92
14.13
15.21
16.93
18.96
21.01
22.79
24.1
24.79
24.77
24.02
22.63
20.82
18.86
17.0
15.3
13.66
11.88
9.72
7.1
4.09
0.93
-2.03
-4.53
-6.47
-8.06
-9.64
-11.64
-14.38
-17.98
-22.3
-26.93
-31.28
-34.58
-36.05
-35.14
-31.69
-26.01
-18.84
-11.15
-3.77
2.74
8.13
12.36
15.45
17.39
18.23
18.09
17.27
16.21
15.33
14.94
15.13
15.82
16.84
18.01
19.18
20.22
21.07
21.65
21.93
21.84
21.33
20.38
19.03
17.33
15.41
13.44
11.56
9.83
8.21
6.56
4.67
2.36
-0.44
-3.6
-6.86
-9.86
-12.33
-14.18
-15.59
-16.92
-18.64
-21.11
-24.51
-28.72
-33.34
-37.7
-40.95
-42.27
-41.06
-37.16
-30.89
-23.06
-14.64
-6.58
0.45
6.16
10.56
13.78
16.0
17.31
17.76
17.43
16.55
15.48
14.68
14.57
15.3
16.7
18.39
19.95
21.08
21.78
22.24
22.63
23.0
23.2
22.99
22.22
20.87
19.03
16.87
14.52
12.09
9.71
7.53
5.7
4.27
3.12
2.03
0.75
-0.91
-2.95
-5.17
-7.29
-9.09
-10.55
-11.86
-13.39
-15.54
-18.55
-22.48
-27.07
-31.88
-36.28
-39.56
-41.01
-40.16
-36.86
-31.4
-24.47
-17.0
-9.89
-3.75
1.19
4.97
7.76
9.67
10.79
11.17
10.95
10.43
9.92
9.76
10.09
10.91
12.1
13.47
14.85
16.15
17.3
18.21
18.82
19.06
18.91
18.4
17.53
16.33
14.8
13.01
11.07
9.2
7.62
6.48
5.71
5.04
4.13
2.71
0.75
-1.58
-3.98
-6.26
-8.43
-10.67
-13.27
-16.38
-19.97
-23.89
-27.89
-31.62
-34.66
-36.47
-36.5
-34.34
-29.96
-23.78
-16.58
-9.22
-2.43
3.38
8.04
11.53
13.84
14.96
14.99
14.18
12.99
11.94
11.49
11.91
13.14
14.9
16.8
18.5
19.81
20.75
21.41
21.91
22.24
22.32
22.1
21.6
20.95
20.38
20.02
19.81
19.59
19.12
18.24
17.06
15.8
14.76
14.15
13.99
14.13
14.29
14.25
13.86
13.12
12.12
10.99
9.88
8.91
8.12
7.53
7.07
6.65
6.15
5.49
4.63
3.65
2.71
2.01
1.69
1.75
2.09
2.49
2.72
2.57
1.89
0.64
-1.09
-3.11
-5.1
-6.71
-7.73
-8.09
-7.99
-7.77
-7.8
-8.32
-9.38
-10.81
-12.34
-13.71
-14.83
-15.79
-16.91
-18.5
-20.75
-23.61
-26.72
-29.63
-32.0
-33.78
-35.25
-36.93
-39.36
-42.86
-47.38
-52.51
-57.45
-61.2
-62.71
-61.22
-56.38
-48.54
-38.59
-27.79
-17.4
-8.42
-1.38
3.68
7.0
9.02
10.15
10.71
10.88
10.77
10.42
9.9
9.35
8.9
8.65
8.67
8.97
9.53
10.38
11.55
12.98
14.47
15.72
16.31
15.92
14.47
12.17
9.5
7.01
5.07
3.73
2.7
1.56
-0.0
-2.05
-4.34
-6.55
-8.46
-10.08
-11.65
-13.49
-15.9
-18.97
-22.66
-26.75
-30.87
-34.46
-36.8
-37.16
-35.02
-30.31
-23.45
-15.31
-6.93
0.8
7.25
12.19
15.64
17.79
18.81
18.82
17.98
16.45
14.54
12.66
11.26
10.7
11.12
12.36
14.07
15.81
17.25
18.2
18.61
18.55
18.07
17.17
15.82
13.99
11.71
9.09
6.28
3.45
0.69
-1.96
-4.53
-7.11
-9.73
-12.43
-15.2
-18.09
-21.2
-24.67
-28.52
-32.56
-36.28
-38.88
-39.54
-37.73
-33.38
-27.0
-19.48
-11.79
-4.78
1.04
5.49
8.62
10.65
11.81
12.31
12.3
11.91
11.3
10.67
10.27
10.34
11.02
12.37
14.21
16.27
18.18
19.64
20.46
20.56
20.0
18.84
17.2
15.11
12.65
9.86
6.83
3.7
0.58
-2.4
-5.18
-7.68
-9.89
-11.85
-13.7
-15.67
-18.09
-21.2
-25.16
-29.88
-34.99
-39.88
-43.74
-45.71
-45.13
-41.71
-35.71
-27.88
-19.26
-10.84
-3.33
2.96
8.03
12.03
15.07
17.18
18.41
18.79
18.48
17.71
16.77
15.99
15.62
15.82
16.56
17.61
18.59
19.16
19.11
18.43
17.28
15.86
14.24
12.42
10.38
8.17
5.91
3.74
1.7
-0.32
-2.48
-4.91
-7.58
-10.29
-12.77
-14.8
-16.34
-17.61
-18.99
-20.89
-23.58
-26.93
-30.41
-33.18
-34.31
-33.14
-29.5
-23.79
-16.83
-9.57
-2.83
2.93
7.55
11.11
13.72
15.36
15.96
15.52
14.2
12.46
10.91
10.1
10.35
11.58
13.42
15.33
16.82
17.55
17.44
16.57
15.16
13.44
11.61
9.78
7.99
6.17
4.28
2.33
0.36
-1.62
-3.6
-5.59
-7.61
-9.65
-11.71
-13.86
-16.29
-19.22
-22.82
-26.91
-30.98
-34.17
-35.54
-34.39
-30.5
-24.27
-16.53
-8.3
-0.48
6.38
12.03
16.42
19.56
21.41
21.99
21.42
20.04
18.36
16.91
16.1
16.12
16.89
18.22
19.86
21.57
23.09
24.21
24.71
24.45
