0
7.98
8.95
9.5
9.58
9.2
8.53
7.71
6.89
6.15
5.49
4.91
4.35
3.73
2.98
2.07
0.96
-0.31
-1.66
-3.02
-4.35
-5.67
-7.05
-8.58
-10.27
-12.03
-13.62
-14.77
-15.16
-14.6
-13.06
-10.71
-7.87
-4.91
-2.1
0.41
2.6
4.43
5.86
6.76
7.07
6.89
6.48
6.19
6.21
6.63
7.34
8.18
9.07
10.0
10.95
11.8
12.34
12.35
11.8
10.78
9.55
8.33
7.25
6.26
5.29
4.24
3.12
1.95
0.77
-0.38
-1.53
-2.63
-3.68
-4.59
-5.33
-5.89
-6.37
-6.92
-7.74
-9.0
-10.76
-12.9
-15.03
-16.6
-17.03
-15.95
-13.36
-9.65
-5.52
-1.7
1.3
3.25
4.23
4.52
4.41
4.1
3.73
3.4
3.21
3.24
3.55
4.21
5.2
6.5
8.0
9.5
10.72
11.4
11.39
10.71
9.58
8.27
7.08
6.15
5.51
5.08
4.76
4.45
4.05
3.54
2.89
2.14
1.31
0.39
-0.62
-1.74
-2.96
-4.21
-5.4
-6.49
-7.5
-8.54
-9.7
-10.96
-12.13
-12.9
-12.9
-11.87
-9.76
-6.76
-3.31
0.08
2.93
4.94
6.04
6.38
6.25
5.92
5.61
5.45
5.46
5.71
6.22
7.03
8.09
9.29
10.41
11.22
11.56
11.4
10.77
9.79
8.55
7.1
5.48
3.78
2.15
0.79
-0.1
-0.47
-0.42
-0.15
0.11
0.24
0.19
-0.02
-0.44
-1.16
-2.29
-3.9
-5.96
-8.37
-10.97
-13.58
-15.98
-17.82
-18.75
-18.42
-16.68
-13.68
-9.89
-5.86
-2.15
0.9
3.14
4.6
5.42
5.79
5.92
6.04
6.39
7.09
8.18
9.52
10.91
12.1
12.87
13.14
12.92
12.34
11.5
10.5
9.36
8.09
6.72
5.38
4.2
3.32
2.83
2.73
2.86
3.08
3.17
2.97
2.41
1.54
0.44
-0.7
-1.74
-2.61
-3.36
-4.21
-5.43
-7.26
-9.72
-12.54
-15.14
-16.79
-16.89
-15.22
-12.07
-8.17
-4.36
-1.31
0.72
1.9
2.61
3.25
3.94
4.62
5.07
5.16
4.95
4.77
4.98
5.83
7.29
9.0
10.46
11.27
11.3
10.71
9.86
9.0
8.27
7.58
6.81
5.91
4.98
4.11
3.4
2.74
2.0
1.07
-0.01
-1.01
-1.67
-1.85
-1.6
-1.2
-0.99
-1.28
-2.19
-3.7
-5.6
-7.6
-9.35
-10.51
-10.82
-10.14
-8.52
-6.19
-3.55
-0.97
1.24
2.95
4.21
5.1
5.71
6.02
6.01
5.73
5.31
4.97
4.91
5.24
5.9
6.75
7.53
8.05
8.14
7.76
6.94
5.82
4.53
3.24
2.08
1.12
0.42
-0.01
-0.12
0.05
0.44
0.87
1.17
1.2
0.92
0.41
-0.18
-0.72
-1.14
-1.49
-1.92
-2.63
-3.82
-5.5
-7.51
-9.5
-11.0
-11.61
-11.12
-9.63
-7.46
-5.08
-2.93
-1.31
-0.32
0.17
0.39
0.55
0.78
1.07
1.33
1.48
1.51
1.49
1.57
1.86
2.38
3.12
4.02
4.99
5.94
6.76
7.36
7.65
7.63
7.31
6.74
5.97
5.02
3.97
2.93
2.07
1.55
1.39
1.47
1.49
1.21
0.46
-0.68
-1.98
-3.15
-3.94
-4.28
-4.29
-4.16
-4.13
-4.37
-4.98
-5.93
-7.07
-8.15
-8.87
-8.99
-8.37
-7.09
-5.36
-3.46
-1.62
0.01
1.4
2.53
3.39
3.91
4.01
3.72
3.13
2.43
1.87
1.64
1.81
2.3
2.98
3.67
4.24
4.64
4.88
4.93
4.75
4.3
3.6
2.79
2.05
1.53
1.3
1.24
1.18
0.99
0.64
0.15
-0.4
-0.99
-1.65
-2.41
-3.28
-4.17
-5.01
-5.78
-6.48
-7.23
-8.09
-9.05
-9.95
-10.54
-10.53
-9.69
-7.95
-5.49
-2.74
-0.18
1.79
3.01
3.62
3.96
4.33
4.82
5.38
5.84
6.1
6.2
6.28
6.45
6.77
7.06
7.15
6.94
6.45
5.9
5.5
5.34
5.34
5.25
4.83
3.95
2.73
1.41
0.24
-0.67
-1.34
-1.91
-2.51
-3.16
-3.81
-4.35
-4.73
-4.94
-5.06
-5.15
-5.26
-5.46
-5.84
-6.47
-7.34
-8.39
-9.46
-10.32
-10.76
-10.62
-9.85
-8.48
-6.66
-4.65
-2.76
-1.26
-0.25
0.3
0.56
0.73
0.97
1.31
1.69
2.03
2.28
2.48
2.72
3.05
3.5
4.03
4.55
4.98
5.27
5.38
5.31
5.04
4.59
4.0
3.34
2.68
2.1
1.62
1.21
0.83
0.42
-0.05
-0.55
-1.08
-1.62
-2.2
-2.79
-3.35
-3.79
-4.03
-4.09
-4.13
-4.31
-4.79
-5.52
-6.32
-6.93
-7.07
-6.61
-5.59
-4.19
-2.66
-1.26
-0.15
0.62
1.06
1.25
1.21
0.99
0.62
0.17
-0.16
-0.15
0.4
1.5
2.97
4.41
5.42
5.78
5.52
4.89
4.19
3.6
3.12
2.63
2.05
1.4
0.8
0.38
0.16
0.05
-0.12
-0.47
-1.03
-1.7
-2.38
-3.02
-3.67
-4.39
-5.25
-6.21
-7.23
-8.24
-9.28
-10.34
-11.37
-12.13
-12.3
-11.58
-9.85
-7.25
-4.16
-1.09
1.49
3.3
4.28
4.54
4.28
3.78
3.28
3.01
3.07
3.49
4.22
5.11
6.0
6.64
6.87
6.59
5.82
4.73
3.58
2.58
1.92
1.62
1.56
1.59
1.56
1.41
1.17
0.95
0.83
0.82
0.81
0.74
0.49
0.06
-0.5
-1.13
-1.77
-2.47
-3.24
-4.1
-5.03
-5.98
-6.97
-8.01
-9.11
-10.15
-10.95
-11.16
-10.54
-9.06
-6.96
-4.65
-2.58
-1.02
-0.01
0.59
0.94
1.19
1.33
1.32
1.13
0.83
0.6
0.6
0.97
1.69
2.62
3.61
4.46
5.06
5.35
5.36
5.11
4.63
3.94
3.05
2.0
0.89
-0.09
-0.75
-0.97
-0.81
-0.47
-0.27
-0.42
-0.92
-1.58
-2.08
-2.21
-1.99
-1.66
-1.55
-1.87
-2.59
-3.49
-4.26
-4.69
-4.72
-4.42
-3.96
-3.41
-2.8
-2.1
-1.27
-0.32
0.67
1.59
2.33
2.78
2.83
2.5
1.81
0.91
0.07
-0.37
-0.15
0.84
2.49
4.41
6.14
7.23
7.47
6.9
5.77
4.4
3.1
2.04
1.31
0.85
0.54
0.17
-0.44
-1.41
-2.71
-4.14
-5.46
-6.43
-6.96
-7.13
-7.13
-7.21
-7.54
-8.22
-9.15
-10.2
-11.11
-11.63
-11.55
-10.79
-9.38
-7.48
-5.35
-3.23
-1.36
0.11
1.14
1.77
2.09
2.21
2.23
2.2
2.21
2.29
2.53
2.94
3.51
4.17
4.87
5.49
5.94
6.14
6.0
5.51
4.76
3.85
2.96
2.17
1.51
0.92
0.37
-0.17
-0.69
-1.13
-1.54
-2.0
-2.59
-3.3
-4.03
-4.6
-4.95
-5.13
-5.33
-5.73
-6.39
-7.21
-7.96
-8.39
-8.35
-7.85
-6.94
-5.77
-4.47
-3.15
-1.93
-0.9
-0.11
0.48
0.95
1.38
1.84
2.32
2.79
3.23
3.65
4.13
4.71
5.39
6.09
6.63
6.89
6.78
6.33
5.6
4.73
3.81
2.92
2.12
1.4
0.76
0.19
-0.33
-0.78
-1.13
-1.39
-1.57
-1.71
-1.84
-2.02
-2.29
-2.7
-3.27
-3.96
-4.68
-5.26
-5.55
-5.44
-4.88
-3.84
-2.37
-0.58
1.35
3.15
4.5
5.15
5.04
4.34
3.35
2.38
1.63
1.15
0.91
0.88
1.06
1.47
2.09
2.85
3.6
4.16
4.43
4.32
3.92
3.33
2.77
2.4
2.32
2.5
2.77
2.92
2.74
2.12
1.11
-0.13
-1.41
-2.52
-3.32
-3.78
-3.97
-4.06
-4.26
-4.78
-5.71
-6.99
-8.36
-9.43
-9.86
-9.45
-8.23
-6.48
-4.59
-2.93
-1.74
-1.04
-0.74
-0.68
-0.76
-0.93
-1.18
-1.42
-1.49
-1.17
-0.36
0.92
2.42
3.83
4.92
5.63
6.05
6.34
6.6
6.77
6.75
6.45
5.89
5.22
4.64
4.27
4.09
3.96
3.66
3.07
2.16
1.04
-0.13
-1.2
-2.1
-2.85
-3.55
-4.23
-4.9
-5.54
-6.18
-6.87
-7.71
-8.63
-9.42
-9.73
-9.25
-7.85
-5.74
-3.41
-1.38
-0.07
0.43
0.28
-0.17
-0.57
-0.62
-0.24
0.49
1.41
2.24
2.89
3.33
3.67
4.03
4.45
4.84
5.09
5.14
4.99
4.71
4.33
3.85
3.2
2.37
1.41
0.5
-0.17
-0.56
-0.69
-0.68
-0.66
-0.66
-0.64
-0.57
-0.47
-0.41
-0.52
-0.88
-1.5
-2.32
-3.13
-3.72
-3.87
-3.44
-2.45
-1.04
0.54
1.97
2.98
3.46
3.42
3.03
2.55
2.17
1.98
1.97
2.0
1.95
1.8
1.58
1.34
1.14
0.93
0.65
0.29
-0.06
-0.27
-0.23
0.08
0.51
0.86
0.94
0.68
0.17
-0.41
-0.83
-0.9
-0.6
-0.03
0.63
1.15
1.4
1.31
0.93
0.35
-0.33
-1.02
-1.65
-2.13
-2.46
-2.68
-2.94
-3.37
-4.04
-4.88
-5.61
-5.98
-5.77
-4.92
-3.61
-2.09
-0.65
0.52
1.26
1.53
1.36
0.84
0.19
-0.34
-0.56
-0.37
0.14
0.8
1.42
1.93
2.36
2.79
3.25
3.66
3.89
3.84
3.53
3.04
2.49
1.98
1.49
1.01
0.48
-0.09
-0.67
-1.24
-1.75
-2.22
-2.66
-3.04
-3.37
-3.6
-3.66
-3.49
-3.05
-2.42
-1.79
-1.47
-1.67
-2.42
-3.54
-4.66
-5.37
-5.38
-4.63
-3.33
-1.77
-0.29
0.83
1.48
1.69
1.59
1.31
1.0
0.67
0.32
-0.03
-0.37
-0.56
-0.47
-0.02
0.76
1.73
2.64
3.3
3.56
3.4
2.98
2.5
2.1
1.81
1.57
1.25
0.84
0.41
0.14
0.15
0.41
0.72
0.85
0.65
0.1
-0.64
-1.44
-2.21
-2.99
-3.89
-4.99
-6.27
-7.6
-8.83
-9.74
-10.19
-10.06
-9.32
-8.02
-6.3
-4.32
-2.32
-0.48
1.03
2.12
2.81
3.18
3.33
3.35
3.3
3.24
3.23
3.37
3.73
4.32
5.09
5.89
6.53
6.85
6.81
6.42
5.82
5.11
4.38
3.67
3.0
2.41
1.96
1.7
1.65
1.78
1.95
1.96
1.66
1.0
0.1
-0.84
-1.64
-2.26
-2.79
-3.44
-4.37
-5.58
-6.98
-8.38
-9.55
-10.34
-10.61
-10.27
-9.28
-7.66
-5.53
-3.16
-0.86
1.09
2.55
3.5
4.06
4.39
4.55
4.61
4.54
4.38
4.2
4.14
4.25
4.55
4.9
5.14
5.15
4.96
4.66
4.41
4.24
4.07
3.73
3.01
1.85
0.41
-1.02
-2.08
-2.56
-2.45
-1.98
-1.42
-1.03
-0.87
-0.85
-0.85
-0.7
-0.42
-0.13
-0.03
-0.34
-1.2
-2.6
-4.41
-6.32
-7.93
-8.91
-9.01
-8.2
-6.61
-4.56
-2.37
-0.38
1.21
2.28
2.89
3.19
3.37
3.6
3.92
4.26
4.51
4.59
4.52
4.4
4.35
4.44
4.65
4.93
5.19
5.34
5.33
5.07
4.55
3.8
2.94
2.13
1.55
1.27
1.23
1.27
1.28
1.13
0.86
0.5
0.13
-0.27
-0.74
-1.35
-2.12
-3.01
-3.95
-4.93
-6.01
-7.29
-8.83
-10.54
-12.14
-13.2
-13.38
-12.52
-10.71
-8.32
-5.76
-3.4
-1.41
0.19
1.46
2.44
3.08
3.31
3.12
2.61
2.03
1.62
1.59
1.97
2.59
3.23
3.7
3.9
3.91
3.85
3.85
3.91
4.0
3.99
3.79
3.32
2.61
1.71
0.84
0.21
0.02
0.4
1.27
2.33
3.22
3.58
3.23
2.21
0.77
-0.8
-2.22
-3.36
-4.15
-4.64
-4.95
-5.2
-5.53
-6.0
-6.57
-7.06
-7.2
-6.72
-5.46
-3.56
-1.33
0.73
2.21
2.93
2.99
2.68
2.29
2.03
1.95
2.0
2.13
2.33
2.69
3.28
4.11
5.06
5.93
6.56
6.87
6.94
6.88
6.83
6.78
6.65
6.34
5.75
4.94
4.07
3.31
2.74
2.32
1.9
1.34
0.53
-0.52
-1.78
-3.11
-4.4
-5.55
-6.52
-7.32
-8.04
-8.78
-9.64
-10.62
-11.59
-12.31
-12.52
-12.03
-10.83
-9.1
-7.12
-5.2
-3.54
-2.2
-1.12
-0.12
0.88
1.85
2.69
3.28
3.6
3.8
4.03
4.45
5.04
5.66
6.13
6.32
6.22
5.91
5.51
5.08
4.64
4.13
3.46
2.58
1.45
0.1
-1.36
-2.74
-3.87
-4.56
-4.77
-4.52
-3.91
-3.03
-2.01
-0.97
-0.01
0.73
1.16
1.23
0.94
0.31
-0.65
-1.94
-3.45
-5.05
-6.51
-7.5
-7.81
-7.31
-6.06
-4.33
-2.43
-0.66
0.78
1.88
2.72
3.39
3.92
4.16
3.93
3.15
1.91
0.52
-0.64
-1.27
-1.32
-0.95
-0.41
0.1
0.5
0.9
1.38
2.01
2.64
3.11
3.26
3.06
2.63
2.25
2.14
2.39
2.93
3.49
3.79
3.66
3.06
2.14
1.07
0.01
-0.98
-1.85
-2.62
-3.34
-4.06
-4.94
-6.04
-7.34
-8.63
-9.58
-9.86
-9.3
-7.95
-6.02
-3.84
-1.72
0.11
1.51
2.4
2.82
2.9
2.82
2.76
2.85
3.14
3.6
4.2
4.97
5.89
6.88
7.78
8.42
8.58
8.23
7.42
6.31
5.06
3.84
2.74
1.82
1.18
0.81
0.7
0.74
0.79
0.67
0.26
-0.47
-1.44
-2.45
-3.36
-4.02
-4.42
-4.65
-4.87
-5.28
-6.01
-7.08
-8.45
-9.96
-11.4
-12.45
-12.76
-12.11
-10.48
-8.08
-5.39
-2.92
-1.12
-0.14
0.16
0.15
0.21
0.56
1.23
2.07
2.97
3.87
4.86
6.0
7.29
8.51
9.36
9.58
9.08
8.09
6.98
6.17
5.82
5.88
6.08
6.11
5.8
5.11
4.23
3.34
2.61
2.09
1.77
1.56
1.35
1.05
0.6
0.01
-0.65
-1.24
-1.74
-2.17
-2.73
-3.6
-4.91
-6.6
-8.41
-10.06
-11.32
-12.1
-12.36
-12.06
-11.14
-9.49
-7.17
-4.35
-1.38
1.33
3.5
4.97
5.75
5.91
5.6
4.95
4.22
3.68
3.59
4.07
5.05
6.3
7.53
8.55
9.24
9.61
9.78
9.85
9.91
9.98
9.99
9.82
9.41
8.7
7.79
6.83
5.96
5.24
4.63
3.98
3.16
2.15
1.02
-0.11
-1.16
-2.14
-3.07
-4.05
-5.19
-6.56
-8.22
-10.13
-12.09
-13.73
-14.61
-14.39
-12.99
-10.68
-7.95
-5.39
-3.41
-2.15
-1.43
-0.92
-0.37
0.34
1.15
1.93
2.58
3.09
3.53
4.01
4.6
5.3
6.05
6.79
7.5
8.13
8.68
9.09
9.26
9.11
8.62
7.85
6.9
5.88
4.95
4.2
3.75
3.64
3.76
3.85
3.55
2.55
0.7
-1.76
-4.4
-6.67
-8.2
-8.95
-9.14
-9.21
-9.48
-10.18
-11.28
-12.59
-13.8
-14.5
-14.33
-13.06
-10.71
-7.57
-4.13
-0.93
1.62
3.38
4.39
4.85
5.0
5.05
5.13
5.31
5.61
5.99
6.42
6.89
7.39
7.92
8.39
8.69
8.7
8.4
7.88
7.28
6.7
6.16
5.55
4.75
3.71
2.5
1.29
0.25
-0.48
-0.83
-0.86
-0.67
-0.39
-0.18
-0.14
-0.33
-0.71
-1.24
-1.91
-2.72
-3.7
-4.88
-6.27
-7.81
-9.41
-10.94
-12.2
-12.94
-12.89
-11.89
-9.95
-7.33
-4.45
-1.72
0.53
2.16
3.24
3.89
4.24
4.38
4.36
4.23
4.07
4.0
4.16
4.63
5.42
6.37
7.3
8.02
8.43
8.56
8.51
8.41
8.24
7.86
7.07
5.8
4.15
2.39
0.87
-0.18
-0.75
-1.03
-1.32
-1.84
-2.65
-3.66
-4.68
-5.57
-6.24
-6.73
-7.14
-7.58
-8.17
-9.03
-10.18
-11.53
-12.8
-13.57
-13.43
-12.15
-9.79
-6.76
-3.68
-1.12
0.61
1.53
1.95
2.23
2.61
3.09
3.56
3.86
3.97
3.99
4.14
4.56
5.32
6.33
7.41
8.36
9.02
9.28
9.09
8.5
7.58
6.43
5.16
3.88
2.76
1.93
1.52
1.56
1.94
2.5
2.99
3.21
3.03
2.44
1.49
0.29
-1.02
-2.33
-3.6
-4.87
-6.23
-7.78
-9.54
-11.43
-13.26
-14.75
-15.63
-15.67
-14.74
-12.85
-10.16
-7.02
-3.85
-1.06
1.07
2.44
3.14
3.36
3.3
3.05
2.67
2.21
1.78
1.59
1.87
2.84
4.45
6.44
8.37
9.78
10.42
10.31
9.71
8.94
8.21
7.6
7.03
6.41
5.69
4.9
4.08
3.27
2.42
1.49
0.44
-0.77
-2.06
-3.35
-4.53
-5.57
-6.48
-7.43
-8.59
-10.06
-11.77
-13.43
-14.65
-15.05
-14.42
-12.8
-10.37
-7.45
-4.37
-1.43
1.16
3.25
4.81
5.88
6.58
7.04
7.33
7.49
7.51
7.44
7.38
7.47
7.81
8.43
9.22
9.94
10.38
10.35
9.82
8.88
7.71
6.45
5.2
4.02
2.92
1.95
1.16
0.61
0.23
-0.08
-0.49
-1.13
-1.99
-2.96
-3.8
-4.34
-4.49
-4.43
-4.48
-4.99
-6.21
-8.13
-10.46
-12.68
-14.26
-14.76
-14.02
-12.14
-9.49
-6.53
-3.71
-1.37
0.35
1.42
1.98
2.19
2.2
2.1
1.94
1.81
1.8
2.06
2.7
3.68
4.85
5.95
6.74
7.13
7.19
7.02
6.74
6.35
5.77
4.96
3.97
3.01
2.34
2.17
2.5
3.12
3.68
3.84
3.42
2.43
1.13
-0.17
-1.19
-1.82
-2.13
-2.38
-2.88
-3.89
-5.56
-7.86
-10.59
-13.43
-15.93
-17.58
-17.97
-16.87
-14.32
-10.69
-6.52
-2.45
1.0
3.57
5.25
6.19
6.62
6.72
6.61
6.36
6.07
5.89
5.94
6.27
6.78
7.32
7.72
7.94
8.04
8.13
8.24
8.27
8.05
7.45
6.44
5.13
3.76
2.52
1.56
0.94
0.58
0.41
0.33
0.3
0.27
0.25
0.16
-0.07
-0.6
-1.52
-2.84
-4.49
-6.32
-8.19
-9.97
-11.5
-12.55
-12.82
-12.01
-10.06
-7.16
-3.81
-0.62
1.94
3.63
4.55
4.98
5.22
5.5
5.84
6.2
6.43
6.43
6.23
5.99
5.97
6.42
7.4
8.72
9.99
10.8
10.88
10.23
9.07
7.67
6.3
5.06
4.0
3.1
2.37
1.85
1.57
1.54
1.67
1.85
1.91
1.7
1.11
0.2
-0.86
-1.86
-2.64
-3.23
-3.8
-4.69
-6.16
-8.28
-10.84
-13.4
-15.36
-16.22
-15.71
-13.86
-11.04
-7.82
-4.83
-2.5
-0.98
-0.16
0.27
0.57
0.9
1.26
1.65
2.06
2.58
3.31
4.31
5.55
6.83
7.92
8.67
9.03
9.09
9.0
8.85
8.63
8.29
7.81
7.24
6.68
6.23
5.9
5.6
5.19
4.56
3.69
2.62
1.5
0.42
-0.54
-1.33
-1.96
-2.44
-2.8
-3.16
-3.62
-4.28
-5.25
-6.56
-8.21
-10.06
-11.83
-13.14
-13.56
-12.8
-10.79
-7.83
-4.42
-1.18
1.44
3.24
4.22
4.62
4.61
4.37
3.98
3.49
3.03
2.7
2.68
3.02
3.72
4.62
5.6
6.49
7.23
7.79
8.16
8.3
8.16
7.69
6.85
5.7
4.34
3.01
1.98
1.44
1.48
2.02
2.83
3.55
3.86
3.56
2.58
1.08
-0.7
-2.5
-4.11
-5.51
-6.78
-8.06
-9.54
-11.25
-13.12
-14.92
-16.32
-16.97
-16.58
-15.07
-12.53
-9.3
-5.85
-2.64
0.02
2.04
3.51
4.6
5.43
6.04
6.4
6.52
6.53
6.63
7.04
7.85
8.96
10.13
11.07
11.56
11.57
11.26
10.87
10.56
10.38
10.18
9.69
8.71
7.22
5.41
3.62
2.18
1.25
0.79
0.56
0.27
-0.27
-1.08
-2.06
-3.03
-3.81
-4.31
-4.58
-4.78
-5.11
-5.8
-6.96
-8.6
-10.59
-12.69
-14.53
-15.72
-15.88
-14.8
-12.52
-9.4
-6.0
-2.93
-0.64
0.73
1.33
1.48
1.45
1.41
1.38
1.38
1.43
1.67
2.25
3.29
4.73
6.35
7.86
8.96
9.51
9.53
9.21
8.75
8.26
7.77
7.26
6.67
5.99
5.25
4.53
3.86
3.3
2.82
2.35
1.77
0.92
-0.29
-1.76
-3.27
-4.44
-5.07
-5.12
-4.89
-4.71
-4.89
-5.54
-6.6
-7.96
-9.51
-11.16
-12.73
-13.87
-14.18
-13.34
-11.27
-8.28
-4.89
-1.72
0.84
2.61
3.65
4.14
4.33
4.41
4.49
4.61
4.76
4.94
5.12
5.4
5.8
6.33
6.88
7.3
7.45
7.32
7.02
6.65
6.27
5.81
5.14
4.18
2.99
1.76
0.74
0.12
-0.11
-0.06
0.11
0.25
0.31
0.29
0.2
0.04
-0.25
-0.75
-1.52
-2.59
-3.94
-5.55
-7.38
-9.34
-11.31
-13.09
-14.43
-15.09
-14.88
-13.74
-11.78
-9.22
-6.41
-3.75
-1.54
0.06
1.12
1.86
2.52
3.3
4.23
5.23
6.2
7.05
7.8
8.49
9.11
9.63
9.97
10.1
10.06
9.9
9.65
9.29
8.78
8.09
7.25
6.36
5.48
4.65
3.8
2.83
1.72
0.54
-0.54
-1.31
-1.65
-1.62
-1.43
-1.37
-1.65
-2.33
-3.25
-4.15
-4.85
-5.3
-5.63
-6.08
-6.85
-8.03
-9.51
-11.08
-12.45
-13.37
-13.61
-13.05
-11.68
-9.59
-6.99
-4.2
-1.57
0.62
2.18
3.06
3.37
3.24
2.9
2.54
2.3
2.24
2.37
2.68
3.13
3.7
4.34
4.99
5.55
5.94
6.09
6.06
5.91
5.71
5.47
5.11
4.52
3.65
2.56
1.47
0.66
0.39
0.76
1.66
2.81
3.89
4.6
4.79
4.44
3.64
2.51
1.14
-0.38
-1.94
-3.41
-4.64
-5.59
-6.34
-7.11
-8.07
-9.29
-10.57
-11.53
-11.71
-10.8
-8.79
-5.97
-2.89
-0.04
2.2
3.71
4.57
4.94
4.97
4.72
4.27
3.69
3.13
2.8
2.86
3.41
4.39
5.65
6.95
8.06
8.8
9.05
8.82
8.2
7.36
6.38
5.36
4.29
3.16
2.0
0.92
0.04
-0.55
-0.85
-0.96
-1.03
-1.22
-1.55
-1.98
-2.4
-2.71
-2.92
-3.09
-3.33
-3.72
-4.26
-4.91
-5.64
-6.51
-7.66
-9.18
-10.93
-12.52
-13.37
-13.0
-11.31
-8.56
-5.4
-2.48
-0.25
1.12
1.74
1.82
1.54
1.05
0.47
-0.06
-0.43
-0.54
-0.34
0.18
1.03
2.19
3.57
4.92
5.97
6.43
6.23
5.49
4.46
3.48
2.72
2.23
1.92
1.66
1.4
1.17
1.03
1.04
1.22
1.51
1.81
1.96
1.85
1.4
0.63
-0.37
-1.48
-2.53
-3.44
-4.15
-4.68
-5.05
-5.33
-5.64
-6.13
-6.97
-8.25
-9.9
-11.61
-12.91
-13.4
-12.85
-11.38
-9.35
-7.2
-5.27
-3.71
-2.42
-1.3
-0.27
0.68
1.48
2.09
2.54
2.9
3.25
3.65
4.09
4.51
4.85
5.01
4.95
4.67
4.23
3.76
3.39
3.16
3.08
3.05
2.98
2.83
2.6
2.35
2.14
2.04
2.06
2.25
2.59
3.04
3.47
3.76
3.78
3.47
2.85
2.02
1.12
0.29
-0.4
-0.96
-1.51
-2.22
-3.23
-4.57
-6.19
-7.9
-9.46
-10.65
-11.25
-11.1
-10.14
-8.44
-6.17
-3.7
-1.4
0.35
1.34
1.65
1.47
1.12
0.81
0.6
0.49
0.39
0.35
0.53
1.12
2.24
3.79
5.47
6.85
7.59
7.58
7.0
6.2
5.51
5.11
4.97
4.88
4.66
4.2
3.51
2.69
1.88
1.18
0.67
0.31
0.0
-0.39
-0.97
-1.73
-2.55
-3.28
-3.86
-4.32
-4.81
-5.46
-6.29
-7.25
-8.26
-9.36
-10.7
-12.39
-14.34
-16.16
-17.31
-17.23
-15.68
-12.82
-9.08
-5.1
-1.42
1.59
3.75
5.07
5.67
5.71
5.39
4.88
4.34
3.88
3.61
3.56
3.77
4.27
5.0
5.93
6.95
7.89
8.57
8.81
8.63
8.17
7.74
7.6
7.85
8.38
8.87
9.08
8.91
8.42
7.8
7.13
6.36
5.37
4.06
2.5
0.87
-0.6
-1.81
-2.84
-3.82
-4.89
-6.03
-7.13
-8.09
-8.85
-9.5
-10.21
-11.08
-12.1
-13.04
-13.61
-13.54
-12.72
-11.21
-9.18
-6.9
-4.57
-2.43
-0.65
0.69
1.55
2.0
2.18
2.23
2.28
2.41
2.69
3.13
3.8
4.7
5.82
7.05
8.22
9.12
9.58
9.53
9.04
8.31
7.54
6.87
6.3
5.72
4.99
4.06
3.05
2.13
1.49
1.16
1.05
0.92
0.55
-0.15
-1.11
-2.15
-3.03
-3.63
-3.92
-4.0
-4.07
-4.32
-4.88
-5.78
-6.94
-8.23
-9.48
-10.49
-11.07
-11.03
-10.29
-8.83
-6.8
-4.43
-2.06
-0.01
1.52
2.49
2.93
2.95
2.69
2.23
1.68
1.13
0.77
0.77
1.28
2.34
3.76
5.24
6.41
7.03
7.1
6.75
6.24
5.71
5.23
4.73
4.22
3.71
3.33
3.16
3.2
3.33
3.35
3.11
2.57
1.79
0.88
-0.08
-1.05
-2.02
-3.02
-4.0
-4.9
-5.67
-6.35
-7.06
-8.02
-9.39
-11.22
-13.35
-15.4
-16.89
-17.4
-16.71
-14.84
-12.08
-8.87
-5.6
-2.63
-0.17
1.74
3.08
3.92
4.34
4.41
4.23
3.97
3.77
3.82
4.18
4.82
5.6
6.36
6.92
7.15
7.07
6.74
6.29
5.81
5.34
4.89
4.42
3.88
3.3
2.76
2.33
2.07
1.97
1.92
1.83
1.67
1.51
1.43
1.51
1.69
1.86
1.86
1.55
0.9
-0.07
-1.21
-2.4
-3.5
-4.46
-5.3
-6.14
-7.14
-8.39
-9.89
-11.4
-12.59
-13.14
-12.86
-11.78
-10.07
-8.01
-5.86
-3.86
-2.17
-0.93
-0.21
0.01
-0.17
-0.52
-0.74
-0.58
0.14
1.42
3.07
4.86
6.56
8.03
9.24
10.21
11.0
11.57
11.89
11.95
11.81
11.54
11.18
10.66
9.88
8.72
7.2
5.5
3.87
2.53
1.53
0.78
0.15
-0.46
-1.02
-1.45
-1.64
-1.58
-1.37
-1.21
-1.31
-1.81
-2.72
-3.91
-5.19
-6.33
-7.14
-7.48
-7.33
-6.65
-5.46
-3.78
-1.75
0.43
2.46
4.05
5.03
5.46
5.52
5.4
5.22
4.92
4.42
3.69
2.91
2.36
2.34
2.94
4.05
5.27
6.22
6.66
6.56
6.08
5.48
4.93
4.5
4.15
3.76
3.25
2.59
1.83
1.07
0.4
-0.11
-0.5
-0.83
-1.19
-1.6
-2.04
-2.43
-2.7
-2.76
-2.62
-2.32
-1.97
-1.69
-1.67
-2.03
-2.88
-4.23
-5.98
-8.0
-10.0
-11.67
-12.72
-12.91
-12.17
-10.61
-8.52
-6.24
-4.13
-2.38
-1.09
-0.24
0.22
0.4
0.41
0.42
0.6
1.06
1.81
2.73
3.6
4.24
4.62
4.8
4.9
5.02
5.19
5.3
5.24
4.98
4.54
3.99
3.39
2.73
1.97
1.1
0.19
-0.6
-1.06
-1.07
-0.7
-0.11
0.4
0.57
0.3
-0.34
-1.1
-1.71
-1.94
-1.7
-1.12
-0.51
-0.2
-0.46
-1.4
-2.93
-4.79
-6.67
-8.27
-9.37
-9.83
-9.59
-8.68
-7.21
-5.36
-3.4
-1.57
-0.03
1.19
2.11
2.79
3.22
3.45
3.54
3.67
4.05
4.86
6.12
7.61
9.01
9.94
10.18
9.73
8.74
7.51
6.28
5.26
4.51
4.07
3.86
3.78
3.69
3.49
3.14
2.67
2.14
1.59
1.02
0.39
-0.37
-1.25
-2.18
-3.06
-3.79
-4.38
-4.91
-5.45
-6.1
-6.86
-7.73
-8.72
-9.84
-11.05
-12.23
-13.15
-13.51
-13.06
-11.71
-9.59
-6.99
-4.34
-2.02
-0.27
0.82
1.35
1.49
1.46
1.38
1.3
1.2
1.07
1.0
1.14
1.66
2.64
4.02
5.53
6.88
7.78
8.12
7.91
7.3
6.47
5.57
4.72
3.96
3.33
2.87
2.54
2.34
2.21
2.11
1.98
1.79
1.54
1.22
0.83
0.37
-0.15
-0.69
-1.23
-1.72
-2.17
-2.66
-3.25
-4.04
-5.1
-6.47
-8.1
-9.84
-11.45
-12.55
-12.84
-12.15
-10.56
-8.35
-5.9
-3.58
-1.62
-0.12
0.9
1.47
1.68
1.64
1.48
1.39
1.5
1.9
2.6
3.52
4.56
5.57
6.41
7.03
7.45
7.71
7.89
8.0
8.01
7.83
7.45
6.93
6.34
5.75
5.15
4.52
3.81
3.02
2.18
1.29
0.31
-0.77
-1.9
-2.9
-3.59
-3.88
-3.79
-3.57
-3.49
-3.78
-4.52
-5.66
-7.03
-8.35
-9.37
-9.85
-9.59
-8.52
-6.72
-4.42
-1.95
0.32
2.11
3.29
3.94
4.27
4.5
4.78
5.06
5.23
5.12
4.72
4.19
3.8
3.72
4.01
4.57
5.22
5.8
6.25
6.52
6.57
6.37
5.83
4.94
3.74
2.35
0.99
-0.19
-1.02
-1.44
-1.52
-1.42
-1.41
-1.69
-2.36
-3.36
-4.51
-5.61
-6.6
-7.49
-8.35
-9.22
-10.08
-10.87
-11.55
-12.1
-12.52
-12.72
-12.57
-11.94
-10.73
-9.01
-6.98
-4.95
-3.21
-1.96
-1.26
-1.01
-1.03
-1.08
-0.96
-0.57
0.08
0.89
1.77
2.6
3.4
4.23
5.12
6.1
7.14
8.16
9.09
9.83
10.29
10.41
10.16
9.54
8.62
7.46
6.21
5.01
3.98
3.27
2.91
2.81
2.82
2.72
2.34
1.66
0.79
-0.13
-0.97
-1.69
-2.31
-2.9
-3.5
-4.18
-5.03
-6.17
-7.68
-9.52
-11.41
-12.88
-13.44
-12.76
-10.9
-8.26
-5.44
-3.05
-1.4
-0.55
-0.25
-0.14
0.06
0.47
1.06
1.71
2.25
2.68
3.04
3.46
4.0
4.65
5.29
5.82
6.16
6.4
6.66
7.01
7.41
7.7
7.64
7.14
6.24
5.18
4.28
3.71
3.5
3.49
3.39
2.99
2.2
1.08
-0.21
-1.5
-2.65
-3.62
-4.43
-5.15
-5.86
-6.66
-7.62
-8.74
-9.96
-11.05
-11.73
-11.72
-10.84
-9.1
-6.72
-4.07
-1.53
0.57
2.11
3.15
3.85
4.37
4.75
4.98
4.93
4.62
4.12
3.65
3.43
3.57
4.03
4.61
5.1
5.34
5.38
5.36
5.39
5.5
5.6
5.55
5.27
4.79
4.22
3.72
3.37
3.12
2.92
2.62
2.19
1.63
0.95
0.19
-0.62
-1.5
-2.46
-3.46
-4.46
-5.37
-6.17
-6.88
-7.58
-8.37
-9.28
-10.22
-10.89
-10.96
-10.12
-8.27
-5.62
-2.66
0.06
2.08
3.23
3.64
3.55
3.26
2.93
2.61
2.33
2.15
2.2
2.6
3.38
4.47
5.7
6.83
7.69
8.15
8.21
7.92
7.37
6.7
6.0
5.33
4.68
4.0
3.23
2.32
1.32
0.36
-0.4
-0.85
-0.96
-0.88
-0.8
-0.91
-1.32
-2.0
-2.87
-3.74
-4.5
-5.08
-5.45
-5.69
-5.88
-6.17
-6.68
-7.49
-8.52
-9.56
-10.26
-10.23
-9.23
-7.3
-4.75
-2.08
0.22
1.8
2.65
2.96
3.09
3.31
3.72
4.2
4.56
4.65
4.5
4.36
4.51
5.12
6.09
7.11
7.85
8.11
7.9
7.4
6.83
6.29
5.72
5.0
4.06
2.95
1.82
0.92
0.4
0.29
0.44
0.59
0.51
0.04
-0.82
-1.91
-2.98
-3.81
-4.28
-4.4
-4.29
-4.13
-4.12
-4.49
-5.37
-6.79
-8.57
-10.35
-11.64
-11.99
-11.15
-9.15
-6.35
-3.29
-0.52
1.56
2.82
3.37
3.47
3.37
3.25
3.15
3.06
3.01
3.05
3.29
3.75
4.4
5.08
5.68
6.08
6.29
6.32
6.18
5.91
5.52
5.1
4.72
4.41
4.1
3.75
3.28
2.82
2.49
2.41
2.53
2.66
2.58
2.11
1.22
0.04
-1.25
-2.51
-3.66
-4.72
-5.68
-6.5
-7.22
-7.86
-8.5
-9.23
-10.13
-11.16
-12.18
-12.93
-13.07
-12.28
-10.45
-7.72
-4.46
-1.25
1.43
3.28
4.25
4.53
4.41
4.12
3.83
3.64
3.55
3.6
3.82
4.17
4.6
5.03
5.36
5.49
5.38
5.04
4.54
3.98
3.43
2.96
2.57
2.3
2.17
2.23
2.52
3.05
3.74
4.41
4.9
5.02
4.69
3.95
2.97
1.9
0.86
-0.13
-1.1
-2.09
-3.09
-4.09
-5.06
-6.02
-7.04
-8.21
-9.58
-11.05
-12.41
-13.35
-13.58
-12.87
-11.18
-8.69
-5.8
-2.98
-0.66
0.94
1.85
2.28
2.47
2.59
2.63
2.56
2.39
2.22
2.28
2.7
3.48
4.44
5.31
5.82
5.85
5.5
5.0
4.58
4.43
4.53
4.73
4.79
4.6
4.16
3.62
3.15
2.83
2.66
2.53
2.35
2.07
1.74
1.39
1.03
0.63
0.08
-0.67
-1.66
-2.91
-4.42
-6.13
-7.96
-9.76
-11.35
-12.58
-13.35
-13.56
-13.12
-11.95
-10.03
-7.45
-4.51
-1.58
0.92
2.73
3.75
4.1
3.96
3.57
3.14
2.86
2.88
3.25
3.97
4.94
6.03
7.05
7.86
8.3
8.28
7.8
6.97
