0
-49.19
-34.17
-17.81
-1.49
13.71
27.04
38.0
46.17
51.27
53.21
52.29
49.2
45.04
40.95
37.88
36.27
36.0
36.46
36.93
36.83
35.89
34.17
31.86
29.13
26.0
22.37
18.09
13.12
7.55
1.63
-4.37
-10.14
-15.46
-20.22
-24.46
-28.34
-32.21
-36.44
-41.41
-47.28
-53.87
-60.48
-65.95
-68.86
-67.93
-62.42
-52.4
-38.76
-22.96
-6.61
8.85
22.38
33.31
41.29
46.21
48.21
47.7
45.35
42.02
38.58
35.73
33.87
33.06
33.03
33.33
33.52
33.3
32.54
31.28
29.5
27.2
24.24
20.5
15.99
10.85
5.34
-0.23
-5.65
-10.79
-15.59
-20.01
-24.04
-27.65
-30.89
-33.94
-37.13
-40.82
-45.35
-50.76
-56.68
-62.22
-66.12
-67.1
-64.18
-57.09
-46.27
-32.8
-18.02
-3.22
10.51
22.34
31.61
37.86
40.87
40.86
38.47
34.76
30.83
27.63
25.62
24.82
24.88
25.38
25.91
26.2
26.13
25.64
24.69
23.27
21.34
18.85
15.75
12.05
7.87
3.46
-0.84
-4.72
-8.02
-10.82
-13.36
-16.02
-19.17
-23.11
-27.93
-33.43
-39.0
-43.65
-46.15
-45.38
-40.75
-32.37
-21.13
-8.31
4.75
16.95
27.54
35.99
41.95
45.15
45.6
43.61
39.91
35.45
31.11
27.49
24.82
22.96
21.6
20.46
19.35
18.19
16.91
15.42
13.55
11.1
7.94
4.1
-0.26
-4.83
-9.31
-13.51
-17.48
-21.49
-25.87
-30.94
-36.73
-43.0
-49.17
-54.45
-57.92
-58.72
-56.22
-50.19
-40.9
-29.09
-15.84
-2.34
10.37
21.47
30.4
36.83
40.54
41.52
40.08
36.88
32.84
28.94
25.86
23.82
22.63
21.85
21.11
20.25
19.29
18.27
17.09
15.52
13.26
10.15
6.3
1.99
-2.4
-6.63
-10.6
-14.41
-18.22
-22.21
-26.6
-31.54
-37.12
-43.16
-49.12
-54.1
-56.99
-56.81
-53.03
-45.65
-35.26
-22.79
-9.35
4.0
16.26
26.59
34.39
39.33
41.49
41.26
39.29
36.32
33.12
30.23
28.06
26.68
25.96
25.57
25.18
24.55
23.61
22.38
20.85
18.95
16.52
13.44
9.7
5.45
0.93
-3.63
-8.1
-12.42
-16.61
-20.74
-24.92
-29.36
-34.27
-39.72
-45.44
-50.67
-54.34
-55.32
-52.94
-47.17
-38.63
-28.35
-17.37
-6.51
3.7
12.82
20.38
25.85
28.84
29.31
27.73
24.97
21.99
19.5
17.79
16.73
16.0
15.28
14.43
13.47
12.46
11.39
10.15
8.56
6.5
3.92
0.85
-2.59
-6.28
-10.09
-13.88
-17.57
-21.12
-24.63
-28.29
-32.28
-36.62
-41.05
-44.98
-47.58
-48.05
-45.9
-41.11
-34.1
-25.64
-16.53
-7.47
1.06
8.69
15.14
20.14
23.49
25.12
25.23
24.19
22.51
20.65
18.94
17.5
16.36
15.51
14.93
14.63
14.6
14.69
14.7
14.37
13.53
12.14
10.28
8.1
5.71
3.11
0.21
-3.12
-6.97
-11.3
-15.92
-20.48
-24.42
-27.11
-27.94
-26.45
-22.54
-16.53
-9.04
-0.92
7.04
14.23
20.22
24.74
27.55
28.47
27.41
24.56
20.45
15.86
11.64
8.41
6.34
5.18
4.44
3.63
2.51
1.05
-0.66
-2.58
-4.78
-7.36
-10.4
-13.78
-17.33
-20.95
-24.72
-28.92
-33.77
-39.24
-44.76
-49.35
-51.88
-51.48
-47.82
-41.23
-32.48
-22.53
-12.29
-2.48
6.32
13.65
19.11
22.41
23.51
22.63
20.26
17.07
13.73
10.77
8.46
6.83
5.65
4.61
3.41
1.85
-0.1
-2.41
-5.0
-7.85
-10.97
-14.4
-18.23
-22.51
-27.33
-32.8
-38.96
-45.71
-52.58
-58.76
-63.24
-64.99
-63.33
-58.06
-49.57
-38.64
-26.26
-13.43
-1.07
10.03
19.22
26.04
30.26
32.0
31.68
29.94
27.44
24.81
22.45
20.61
19.38
18.72
18.52
18.56
18.55
18.14
17.01
14.96
11.94
8.06
3.55
-1.34
-6.34
-11.28
-16.12
-21.05
-26.43
-32.63
-39.79
-47.56
-54.96
-60.63
-63.11
-61.34
-54.96
-44.39
-30.72
-15.33
0.32
15.05
27.94
38.37
46.0
50.69
52.5
51.76
49.11
45.42
41.61
38.44
36.29
35.13
34.65
34.51
34.41
34.14
33.52
32.27
30.04
26.56
21.83
16.12
9.91
3.67
-2.27
-7.83
-13.1
-18.24
-23.5
-29.1
-35.32
-42.28
-49.78
-57.12
-63.09
-66.18
-65.05
-59.03
-48.32
-34.0
-17.67
-1.05
14.43
27.76
38.31
45.75
49.94
51.0
49.39
45.93
41.66
37.6
34.5
32.68
32.1
32.38
33.09
33.79
34.14
33.85
32.73
30.67
27.65
23.75
19.08
13.88
8.45
3.11
-1.9
-6.58
-11.21
-16.33
-22.41
-29.57
-37.23
-44.15
-48.69
-49.34
-45.27
-36.55
-24.2
-9.76
5.14
19.14
31.29
41.05
48.12
52.34
53.66
52.2
48.4
42.97
36.91
31.22
26.69
23.73
22.19
21.55
21.09
20.23
18.69
16.5
13.85
10.89
7.59
3.76
-0.72
-5.86
-11.52
-17.58
-24.05
-31.09
-38.74
-46.59
-53.61
-58.3
-59.13
-55.11
-46.21
-33.36
-18.17
-2.35
12.63
25.76
36.43
44.26
49.01
50.59
49.2
45.39
40.05
34.32
29.28
25.7
23.82
23.33
23.54
23.64
22.99
21.33
18.78
15.65
12.23
8.64
4.73
0.22
-5.19
-11.65
-19.12
-27.27
-35.46
-42.74
-47.93
-49.81
-47.43
-40.47
-29.48
-15.76
-1.13
12.59
24.08
32.62
38.08
40.69
40.78
38.71
34.97
30.2
25.21
20.76
17.31
14.93
13.28
11.89
10.42
8.74
6.9
5.03
3.11
1.01
-1.54
-4.84
-9.18
-14.76
-21.57
-29.27
-37.01
-43.59
-47.64
-48.06
-44.35
-36.73
-25.98
-13.26
0.3
13.57
25.59
35.41
42.26
45.68
45.65
42.73
37.9
32.33
27.08
22.81
19.71
17.58
15.98
14.5
12.88
11.07
9.16
7.22
5.16
2.76
-0.31
-4.35
-9.6
-16.03
-23.4
-31.1
-38.27
-43.8
-46.57
-45.71
-40.88
-32.41
-21.28
-8.81
3.6
14.8
23.99
30.7
34.69
35.86
34.34
30.58
25.41
19.92
15.11
11.62
9.46
8.17
7.07
5.69
3.91
1.92
-0.05
-1.95
-4.02
-6.62
-10.1
-14.55
-19.87
-25.87
-32.25
-38.64
-44.37
-48.6
-50.32
-48.79
-43.72
-35.48
-24.96
-13.29
-1.55
9.35
18.62
25.59
29.69
30.69
28.83
24.95
20.23
15.89
12.72
10.96
10.29
10.11
9.88
9.25
8.13
6.61
4.79
2.71
0.34
-2.42
-5.77
-9.9
-14.98
-20.99
-27.64
-34.24
-39.82
-43.35
-43.97
-41.26
-35.29
-26.61
-16.09
-4.74
6.41
16.48
24.69
30.56
33.83
34.6
33.28
30.52
27.19
24.06
21.73
20.39
19.9
19.85
19.72
19.17
18.06
16.48
14.62
12.62
10.45
7.91
4.63
0.31
-5.2
-11.73
-18.69
-25.11
-29.87
-31.92
-30.58
-25.79
-18.02
-8.2
2.62
13.41
23.36
31.8
38.18
42.06
43.18
41.65
38.0
33.07
27.89
23.31
19.74
17.17
15.24
13.46
11.51
9.22
6.62
3.79
0.79
-2.38
-5.78
-9.56
-13.92
-19.08
-25.14
-31.89
-38.61
-44.18
-47.35
-47.09
-43.04
-35.59
-25.68
-14.48
-3.04
7.82
17.49
25.39
31.05
34.08
34.44
32.54
29.14
25.15
21.38
18.28
15.94
14.17
12.65
11.11
9.35
7.3
4.97
2.41
-0.37
-3.4
-6.76
-10.51
-14.76
-19.55
-24.88
-30.68
-36.67
-42.36
-47.01
-49.73
-49.72
-46.43
-39.81
-30.34
-18.9
-6.59
5.48
16.39
25.49
32.37
36.8
38.79
38.57
36.63
33.68
30.47
27.65
25.58
24.21
23.28
22.41
21.32
19.91
18.19
16.22
13.95
11.27
8.05
4.23
-0.13
-4.87
-9.72
-14.46
-18.89
-22.96
-26.83
-30.8
-35.22
-40.25
-45.64
-50.65
-54.2
-55.18
-52.86
-47.14
-38.56
-28.1
-16.79
-5.5
5.15
14.63
22.42
27.97
30.95
31.38
29.79
27.08
24.22
21.92
20.51
19.89
19.8
19.94
20.14
20.29
20.26
19.86
18.87
17.11
14.53
11.18
7.28
3.05
-1.26
-5.43
-9.31
-12.85
-16.08
-19.13
-22.12
-25.22
-28.5
-32.08
-36.03
-40.31
-44.73
-48.8
-51.77
-52.82
-51.31
-47.02
-40.18
-31.45
-21.63
-11.56
-1.99
6.42
13.1
17.6
19.78
19.84
18.33
16.05
13.76
12.03
11.12
11.0
11.47
12.3
13.26
14.2
15.0
15.45
15.35
14.49
12.73
10.07
6.66
2.8
-1.12
-4.68
-7.54
-9.56
-10.88
-11.98
-13.48
-15.88
-19.38
-23.68
-28.08
-31.72
-33.81
-33.82
-31.55
-27.05
-20.58
-12.65
-3.9
4.91
12.99
19.68
24.55
27.39
28.24
27.37
25.22
22.36
19.39
16.79
14.76
13.27
12.1
11.0
9.83
8.51
7.06
5.44
3.62
1.49
-1.03
-4.05
-7.58
-11.57
-15.86
-20.23
-24.46
-28.42
-32.19
-35.93
-39.77
-43.56
-46.82
-48.77
-48.66
-45.96
-40.61
-33.02
-23.89
-14.04
-4.24
4.85
12.63
18.63
22.51
24.13
23.67
21.59
18.59
15.41
12.71
10.84
9.88
9.62
9.71
9.77
9.48
8.57
6.89
4.38
1.11
-2.71
-6.84
-11.02
-15.09
-19.04
-22.94
-26.92
-31.16
-35.84
-41.14
-47.09
-53.36
-59.16
-63.3
-64.53
-61.94
-55.37
-45.43
-33.33
-20.43
-7.95
3.26
12.64
19.85
24.75
27.42
28.2
27.67
26.52
25.37
24.58
24.27
24.3
24.49
24.65
24.67
24.52
24.17
23.56
22.56
20.99
18.67
15.46
11.33
6.38
0.85
-4.92
-10.55
-15.81
-20.66
-25.29
-30.08
-35.41
-41.44
-48.01
-54.44
-59.76
-62.81
-62.57
-58.42
-50.3
-38.79
-24.95
-10.1
4.46
17.64
28.62
36.91
42.18
44.43
44.0
41.62
38.32
35.23
33.17
32.44
32.81
33.67
34.36
34.5
33.99
32.96
31.55
29.78
27.51
24.61
21.01
16.81
12.25
7.53
2.76
-2.08
-7.08
-12.31
-17.76
-23.41
-29.21
-35.13
-41.06
-46.6
-50.97
-53.16
-52.11
-47.21
-38.51
-26.79
-13.33
0.5
13.49
24.8
33.87
40.42
44.31
45.59
44.57
41.84
38.1
34.15
30.62
27.93
26.29
25.65
25.82
26.48
27.23
27.7
27.57
26.63
24.76
21.98
18.37
14.16
9.63
5.08
0.73
-3.44
-7.71
-12.57
-18.38
-25.14
-32.24
-38.5
-42.51
-42.98
-39.23
-31.32
-20.04
-6.66
7.37
20.7
32.25
41.22
47.13
49.82
49.43
46.48
41.76
36.29
31.05
26.79
23.89
22.31
21.67
21.46
21.16
20.44
19.07
16.98
14.17
10.75
6.89
2.86
-1.12
-4.93
-8.71
-12.77
-17.62
-23.64
-30.84
-38.7
-46.15
-51.74
-54.01
-51.89
-45.08
-34.08
-20.13
-4.82
10.16
23.47
34.21
41.98
46.73
48.74
48.35
46.03
42.31
37.8
33.15
28.98
25.76
23.64
22.48
21.91
21.48
20.79
19.58
17.74
15.23
12.09
8.41
4.32
-0.03
-4.52
-9.04
-13.62
-18.37
-23.47
-29.05
-35.05
-41.11
-46.47
-50.1
-50.91
-48.14
-41.56
-31.72
-19.7
-6.87
5.48
16.4
25.31
31.9
36.08
37.83
37.34
35.02
31.54
27.67
24.11
21.31
19.4
18.29
17.75
17.53
17.4
17.13
16.54
15.46
13.83
11.71
9.24
6.48
3.44
0.04
-3.87
-8.34
-13.38
-18.93
-24.85
-30.89
-36.51
-40.95
-43.24
-42.6
-38.65
-31.68
-22.55
-12.47
-2.58
6.25
13.51
18.95
22.37
23.68
22.89
20.25
16.36
12.03
8.09
5.21
3.68
3.42
4.08
5.16
6.17
6.76
6.77
6.2
5.13
3.66
1.83
-0.37
-2.97
-5.92
-9.16
-12.65
-16.42
-20.58
-25.14
-29.84
-34.03
-36.78
-37.16
-34.58
-29.08
-21.3
-12.28
-3.11
5.33
12.48
18.04
21.84
23.83
23.99
22.52
19.8
16.4
12.91
9.82
7.34
5.42
3.86
2.43
1.02
-0.4
-1.8
-3.16
-4.54
-6.05
-7.85
-10.07
-12.83
-16.23
-20.33
-25.06
-30.12
-35.0
-39.0
-41.34
-41.39
-38.78
-33.52
-26.02
-17.02
-7.43
1.81
9.92
16.37
20.85
23.23
23.59
22.19
19.45
15.96
12.37
9.21
6.76
5.01
3.71
2.6
1.5
0.34
-0.88
-2.21
-3.75
-5.66
-8.05
-10.99
-14.53
-18.74
-23.69
-29.32
-35.25
-40.76
-44.84
-46.56
-45.28
-40.98
-34.17
-25.7
-16.47
-7.24
1.48
9.33
15.99
21.15
24.47
25.73
24.93
22.35
18.57
14.38
10.58
7.74
6.03
5.19
4.7
4.02
2.87
1.27
-0.59
-2.48
-4.38
-6.49
-9.13
-12.54
-16.81
-21.89
-27.6
-33.7
-39.8
-45.31
-49.39
-51.1
-49.61
-44.58
-36.27
-25.49
-13.45
-1.33
9.83
19.28
26.52
31.31
33.64
33.74
32.13
29.46
26.42
23.56
21.25
19.6
18.61
18.11
17.86
17.5
16.71
15.19
12.86
9.83
6.32
2.59
-1.23
-5.15
-9.29
-13.79
-18.76
-24.29
-30.36
-36.82
-43.19
-48.65
-52.15
-52.66
-49.5
-42.65
-32.73
-20.83
-8.17
4.14
15.19
24.3
30.95
34.84
36.02
34.94
32.36
29.15
26.03
23.42
21.46
20.15
19.45
19.31
19.61
20.08
20.29
19.77
18.18
15.44
11.74
7.41
2.82
-1.75
-6.1
-10.16
-13.97
-17.73
-21.79
-26.54
-32.16
-38.34
-44.17
-48.29
-49.31
-46.33
-39.21
-28.67
-15.98
-2.55
10.32
21.68
30.87
37.46
41.24
42.33
41.14
38.35
34.83
31.38
28.64
26.94
26.34
26.59
27.26
27.84
27.92
27.29
25.96
24.01
21.55
18.57
15.01
10.89
6.31
1.45
-3.59
-8.88
-14.6
-20.89
-27.58
-34.05
-39.22
-41.88
-41.05
-36.34
-28.04
-17.07
-4.64
7.97
19.7
29.76
37.54
42.66
44.91
44.39
41.54
37.13
32.12
27.41
23.65
21.12
19.75
19.24
19.15
18.98
18.33
16.9
14.59
11.5
7.79
3.61
-0.97
-5.91
-11.15
-16.59
-22.13
-27.77
-33.63
-39.8
-46.11
-51.9
-56.04
-57.18
-54.24
-46.81
-35.36
-21.04
-5.42
9.95
23.78
35.15
43.48
48.56
50.5
49.75
47.03
43.16
38.95
35.05
31.87
29.59
28.16
27.43
27.15
26.95
26.48
25.33
23.21
20.0
15.76
10.74
5.32
-0.14
-5.36
-10.23
-14.79
-19.21
-23.75
-28.67
-34.18
-40.31
-46.81
-52.93
-57.52
-59.24
-56.9
-50.0
-38.91
-24.86
-9.54
5.37
18.67
29.74
38.38
44.56
48.19
49.24
47.88
44.69
40.61
36.7
33.74
32.01
31.28
31.0
30.65
29.92
28.77
27.31
25.59
23.5
20.87
17.51
13.35
8.48
3.17
-2.25
-7.48
-12.31
-16.67
-20.66
-24.5
-28.53
-33.04
-38.22
-43.97
-49.8
-54.83
-57.88
-57.83
-53.96
-46.19
-35.18
-22.18
-8.61
4.22
15.39
24.37
30.96
35.1
36.84
36.42
34.3
31.21
28.01
25.46
23.97
23.49
23.65
23.92
23.89
23.42
22.56
21.49
20.27
18.83
16.93
14.34
10.92
6.73
2.03
-2.86
-7.58
-11.89
-15.68
-18.98
-21.98
-24.94
-28.16
-31.9
-36.25
-40.99
-45.55
-49.05
-50.52
-49.13
-44.45
-36.62
-26.27
-14.39
-2.03
9.79
20.29
28.8
34.83
38.09
38.56
36.69
33.29
29.44
26.13
24.0
23.13
23.15
23.49
23.66
23.4
22.69
21.58
20.05
18.02
15.43
12.28
8.69
4.82
0.81
-3.24
-7.25
-11.17
-14.99
-18.76
-22.66
-26.94
-31.71
-36.83
-41.75
-45.62
-47.53
-46.76
-42.98
-36.4
-27.56
-17.3
-6.51
3.97
13.41
21.27
27.15
30.85
32.39
32.0
30.16
27.55
24.82
22.53
20.9
19.86
19.13
18.37
17.39
16.22
14.97
13.73
12.42
10.8
8.58
5.55
1.77
-2.5
-6.9
-11.13
-15.06
-18.73
-22.29
-25.93
-29.76
-33.92
-38.48
-43.39
-48.41
-52.95
-56.16
-57.12
-55.1
-49.85
-41.72
-31.54
-20.32
-9.03
1.63
11.17
19.24
25.5
29.71
31.75
31.81
30.4
28.19
25.9
24.03
22.82
22.19
21.93
21.69
21.2
20.32
19.03
17.48
15.82
14.09
12.14
9.68
6.44
2.37
-2.32
-7.21
-11.89
-16.12
-19.91
-23.43
-26.84
-30.31
-33.97
-37.95
-42.36
-47.06
-51.57
-55.05
-56.51
-55.15
-50.67
-43.34
-33.89
-23.2
-12.1
-1.31
8.54
16.81
22.96
26.63
27.84
27.03
24.93
22.32
19.87
17.98
16.77
16.17
15.96
15.91
15.77
15.37
14.62
13.53
12.11
10.37
8.25
5.66
2.56
-1.03
-4.97
-9.08
-13.2
-17.21
-21.03
-24.63
-28.03
-31.33
-34.68
-38.27
-42.18
-46.24
-49.95
-52.56
-53.22
-51.27
-46.39
-38.72
-28.79
-17.45
-5.7
5.48
15.17
22.68
27.62
30.0
30.18
28.79
26.57
24.2
22.17
20.75
20.0
19.84
20.1
20.6
21.08
21.27
20.97
20.04
18.49
16.4
13.97
11.3
8.4
5.23
1.68
-2.27
-6.59
-11.24
-16.17
-21.44
-26.99
-32.56
-37.47
-40.78
-41.46
-38.83
-32.8
-23.93
-13.3
-2.08
8.69
18.32
26.41
32.75
37.15
39.45
39.58
37.72
34.39
30.34
26.37
23.07
20.7
19.13
18.03
17.05
16.0
14.83
13.5
11.9
9.83
7.09
3.65
-0.29
-4.44
-8.5
-12.45
-16.46
-20.88
-26.05
-32.05
-38.56
-44.81
-49.67
-51.91
-50.58
-45.3
-36.41
-24.87
-11.94
1.14
13.44
24.26
33.13
39.65
43.5
44.63
43.32
40.26
36.35
32.52
29.41
27.31
26.19
25.78
25.79
25.93
25.95
25.6
24.65
22.87
20.18
16.65
12.55
8.21
3.93
-0.15
-4.1
-8.1
-12.42
-17.31
-22.92
-29.22
-35.9
-42.27
-47.27
-49.73
-48.71
-43.9
-35.72
-25.22
-13.67
-2.17
8.47
17.8
25.46
31.09
34.42
35.37
34.24
31.64
28.37
25.14
22.42
20.41
19.09
18.32
17.96
17.82
17.73
17.53
17.08
16.26
14.94
12.98
10.27
6.8
2.7
-1.73
-6.15
-10.33
-14.21
-17.95
-21.84
-26.16
-30.99
-36.12
-41.01
-44.85
-46.77
-46.05
-42.36
-35.87
-27.19
-17.24
-6.99
2.69
11.16
17.96
22.79
25.49
26.09
24.89
22.48
19.63
17.05
15.23
14.3
14.01
14.03
14.06
13.96
13.73
13.38
12.79
11.75
10.07
7.74
4.96
2.05
-0.68
-3.12
-5.39
-7.76
-10.51
-13.85
-17.78
-22.1
-26.36
-29.87
-31.9
-31.78
-29.18
-24.15
-17.19
-8.99
-0.36
8.04
15.64
22.01
26.75
29.59
30.41
29.33
26.76
23.27
19.51
16.0
13.08
10.86
9.33
8.37
7.81
7.47
7.07
6.35
5.04
3.03
0.35
-2.77
-6.03
-9.24
-12.33
-15.49
-19.03
-23.21
-28.07
-33.21
-37.9
-41.19
-42.2
-40.41
-35.84
-28.99
-20.65
-11.68
-2.81
5.41
12.55
18.2
22.0
23.73
23.45
21.55
18.68
15.51
12.55
10.03
7.92
6.15
4.66
3.48
2.61
1.93
1.19
0.12
-1.48
-3.61
-6.15
-8.92
-11.85
-15.01
-18.59
-22.77
-27.58
-32.87
-38.19
-42.86
-46.01
-46.81
-44.66
-39.41
-31.47
-21.71
-11.24
-1.1
7.87
15.2
20.63
24.11
25.67
25.46
23.79
21.13
18.08
15.2
12.92
11.46
10.75
10.58
10.62
10.53
10.04
8.93
7.14
4.67
1.67
-1.67
-5.11
-8.56
-12.03
-15.72
-19.91
-24.87
-30.67
-37.09
-43.52
-49.09
-52.8
-53.76
-51.45
-45.89
-37.59
-27.4
-16.33
-5.34
4.77
13.4
20.08
24.56
26.73
26.8
25.21
22.62
19.7
17.04
14.99
13.74
13.26
13.42
13.98
14.64
15.01
14.77
13.66
11.6
8.69
5.14
1.2
-2.91
-7.07
-11.29
-15.7
-20.51
-25.91
-31.92
-38.19
-43.95
-48.08
-49.44
-47.24
-41.34
-32.33
-21.29
-9.48
2.02
12.4
21.12
27.74
31.9
33.38
32.3
29.16
24.85
20.35
16.52
13.81
12.31
11.82
12.01
12.58
13.2
13.54
13.28
12.13
9.99
6.98
3.39
-0.47
-4.43
-8.49
-12.83
-17.72
-23.28
-29.36
-35.4
-40.48
-43.44
-43.2
-39.09
-31.14
-20.12
-7.3
5.95
18.5
29.55
38.55
45.02
48.49
48.72
45.89
40.83
34.83
29.27
25.14
22.76
21.84
21.67
21.52
20.88
19.54
17.49
14.89
11.87
8.49
4.73
0.52
-4.19
-9.47
-15.37
-21.96
-29.15
-36.57
-43.38
-48.38
-50.18
-47.68
-40.53
-29.27
-15.3
-0.31
14.07
26.73
37.03
44.7
49.57
51.56
50.72
47.43
42.47
36.92
31.9
28.28
26.37
25.99
26.51
27.18
27.32
26.52
24.66
21.88
18.41
14.5
10.31
5.93
1.3
-3.68
-9.17
-15.35
-22.31
-30.0
-37.97
-45.36
-50.93
-53.32
-51.51
-45.11
-34.57
-21.05
-6.05
8.91
22.6
34.18
43.17
49.33
52.62
53.19
51.42
47.95
43.6
39.25
35.58
32.94
31.3
30.33
29.65
28.95
28.09
27.04
25.75
24.08
21.78
18.62
14.55
9.73
4.53
-0.71
-5.71
-10.43
-14.99
-19.64
-24.68
-30.35
-36.67
-43.32
-49.53
-54.16
-55.96
-53.97
-47.86
-38.11
-25.85
-12.48
0.66
12.54
22.51
30.17
35.27
37.73
37.68
35.6
32.28
28.62
25.41
23.11
21.8
21.24
21.14
21.23
21.33
21.35
21.14
20.49
19.12
16.85
13.63
9.69
5.36
1.06
-2.93
-6.56
-9.94
-13.38
-17.16
-21.5
-26.37
-31.45
-36.14
-39.61
-40.97
-39.49
-34.86
-27.28
-17.48
-6.56
4.37
14.36
22.77
29.24
33.56
35.66
35.61
33.7
30.47
26.61
22.82
19.55
17.02
15.22
14.01
13.22
12.65
12.1
11.3
9.95
7.89
5.12
1.83
-1.77
-5.48
-9.25
-13.1
-17.08
-21.24
-25.66
-30.39
-35.46
-40.65
-45.39
-48.74
-49.68
-47.41
-41.72
-33.08
-22.5
-11.14
-0.03
10.09
18.79
25.73
30.63
33.28
33.69
32.2
29.5
26.4
23.6
21.48
20.04
19.05
18.28
17.58
16.97
16.46
15.97
15.27
14.06
12.14
9.45
6.1
2.31
-1.74
-5.86
-9.92
-13.84
-17.62
-21.38
-25.38
-29.83
-34.7
-39.64
-43.86
-46.47
-46.68
-44.11
-38.81
-31.24
-22.05
-11.99
-1.82
7.69
15.82
21.99
25.92
27.67
27.63
26.37
24.46
22.36
20.39
18.73
17.45
16.57
16.07
15.82
15.7
15.55
15.21
14.55
13.41
11.65
9.21
6.1
2.44
-1.56
-5.69
-9.8
-13.76
-17.53
-21.05
-24.37
-27.59
-30.94
-34.61
-38.65
-42.83
-46.53
-48.98
-49.41
-47.35
-42.75
-35.92
-27.46
-18.06
-8.49
0.52
8.23
14.07
17.68
19.1
18.67
17.01
14.8
12.62
10.87
9.72
9.16
9.05
9.23
9.55
9.86
10.04
9.95
9.41
8.27
6.43
3.93
0.94
-2.25
-5.38
-8.33
-11.14
-13.97
-17.0
-20.34
-23.97
-27.79
-31.6
-35.16
-38.13
-40.01
-40.28
-38.46
-34.35
-28.12
-20.34
-11.73
-3.06
5.05
12.14
17.84
21.87
24.02
24.31
22.97
20.51
17.5
14.48
11.81
9.66
8.07
7.0
6.34
5.91
5.49
4.8
3.66
1.98
-0.21
-2.78
-5.66
-8.77
-12.1
-15.65
-19.41
-23.49
-28.03
-33.14
-38.7
-44.22
-48.77
-51.26
-50.82
-47.1
-40.44
-31.68
-21.87
-11.9
-2.4
6.2
13.58
19.38
23.3
25.17
25.1
23.47
20.85
17.8
14.79
12.17
10.18
8.98
8.6
8.92
9.62
10.24
10.34
9.56
7.78
5.05
1.53
-2.57
-7.05
-11.74
-16.49
-21.26
-26.12
-31.23
-36.67
-42.21
-47.19
-50.62
-51.46
-48.94
-42.9
-33.75
-22.37
-9.86
2.73
14.42
24.39
32.01
36.93
39.15
39.04
37.25
34.49
31.41
28.45
25.9
23.94
22.72
22.27
22.49
23.11
23.7
23.85
23.17
21.48
18.81
15.29
11.17
6.72
2.11
-2.56
-7.32
-12.36
-17.87
-24.01
-30.7
-37.53
-43.72
-48.28
-50.21
-48.81
-43.86
-35.7
-25.16
-13.32
-1.26
10.09
20.07
28.15
33.97
37.29
38.09
36.66
33.62
29.84
26.18
23.28
21.4
20.43
20.07
20.04
20.17
20.39
20.61
20.65
20.15
18.78
16.36
12.95
8.87
4.54
0.3
-3.73
-7.64
-11.69
-16.17
-21.31
-27.17
-33.53
-39.78
-44.98
-47.97
-47.68
-43.55
-35.72
-25.05
-12.84
-0.44
11.07
20.98
28.88
34.52
37.75
38.55
37.16
34.12
30.2
26.21
22.81
20.37
19.0
18.53
18.68
19.07
19.29
18.95
17.77
15.68
12.81
9.44
5.93
2.48
-0.9
-4.35
-8.18
-12.65
-17.93
-24.01
-30.54
-36.82
-41.79
-44.29
-43.35
-38.56
-30.23
-19.31
-7.06
5.28
16.75
26.61
34.33
39.52
41.95
41.73
39.31
35.44
30.98
26.66
22.95
20.12
18.23
17.21
16.84
16.74
16.49
15.74
14.34
12.36
9.92
7.16
4.08
0.6
-3.35
-7.79
-12.73
-18.16
-24.13
-30.55
-37.03
-42.73
-46.47
-47.07
-43.82
-36.72
-26.53
-14.47
-1.82
10.3
21.1
29.95
36.42
40.25
41.47
40.46
37.9
34.54
31.02
27.73
24.85
22.44
20.56
19.19
18.29
17.64
16.91
15.77
14.01
11.6
8.66
5.35
1.84
-1.8
-5.56
-9.49
-13.68
-18.22
-23.29
-28.98
-35.23
-41.63
-47.38
-51.44
-52.77
-50.69
-45.07
-36.46
-25.81
-14.29
-3.02
7.13
15.57
21.97
26.21
28.3
28.39
26.78
23.91
20.41
17.0
14.35
12.86
12.63
13.34
14.48
15.47
15.92
15.6
14.47
12.58
10.04
7.0
3.65
0.2
-3.18
-6.49
-9.89
-13.61
-17.91
-22.81
-28.07
-33.11
-37.12
-39.26
-38.82
-35.46
-29.27
-20.75
-10.73
-0.23
9.73
18.32
24.97
29.44
31.71
32.0
30.64
28.08
24.85
21.51
18.58
16.37
14.93
14.02
13.23
12.19
10.69
8.77
6.58
4.25
1.88
-0.55
-3.1
-5.84
-8.87
-12.34
-16.44
-21.29
-26.79
-32.53
-37.79
-41.7
-43.41
-42.33
-38.24
-31.32
-22.2
-11.77
-1.08
8.91
17.45
24.1
28.71
31.28
31.93
30.85
28.34
24.92
21.24
17.98
15.6
14.28
13.82
13.83
13.85
13.52
12.64
11.15
9.05
6.4
3.3
-0.17
-3.86
-7.7
-11.64
-15.72
-20.1
-24.92
-30.25
-35.81
-41.04
-45.04
-46.89
-45.86
-41.69
-34.67
-25.5
-15.12
-4.4
5.84
14.97
22.44
27.81
30.83
31.49
30.12
27.32
23.88
20.52
17.86
16.19
15.46
15.42
15.67
15.87
15.81
15.38
14.55
13.27
11.41
8.85
5.49
1.41
-3.2
-8.02
-12.74
-17.15
-21.26
-25.33
-29.76
-34.92
-40.85
-47.05
-52.5
-55.93
-56.28
-53.08
-46.62
-37.74
-27.54
-17.06
-7.08
1.87
9.43
15.29
19.29
21.42
21.91
21.17
19.7
17.96
16.33
15.02
14.14
13.65
13.45
13.4
13.37
13.31
13.12
12.74
11.92
10.39
7.91
4.42
0.15
-4.44
-8.82
-12.63
-15.79
-18.55
-21.29
-24.43
-28.24
-32.73
-37.61
-42.29
-45.91
-47.5
-46.2
-41.58
-33.78
-23.56
-12.01
-0.31
10.54
19.85
27.17
32.12
34.52
34.45
32.37
29.13
25.76
23.15
21.75
21.48
21.92
22.56
23.04
23.14
22.77
21.82
20.13
17.61
14.34
10.55
6.55
2.53
-1.45
-5.45
-9.61
-14.05
-18.92
-24.33
-30.21
-36.23
-41.64
-45.34
-46.27
-43.69
-37.52
-28.38
-17.31
-5.48
6.1
16.65
25.6
32.49
37.02
39.05
38.79
36.74
33.58
30.02
26.63
23.74
21.45
19.77
18.61
17.91
17.58
17.5
17.4
16.95
15.75
13.5
10.1
5.69
0.67
-4.46
-9.31
-13.7
-17.7
-21.62
-25.86
-30.77
-36.44
-42.6
-48.52
-53.09
-55.02
-53.27
-47.34
-37.59
-25.08
-11.31
2.28
14.64
25.18
33.64
39.87
43.67
44.9
43.7
40.68
36.8
33.16
30.56
29.24
28.89
28.94
28.9
28.6
28.1
27.56
26.93
25.97
24.35
21.81
18.38
14.27
9.8
5.21
0.65
-3.81
-8.22
-12.65
-17.24
-22.22
-27.78
-33.94
-40.35
-46.28
-50.66
-52.43
-50.84
-45.63
-37.21
-26.42
-14.35
-2.11
9.4
19.46
27.56
33.3
36.46
37.02
35.3
31.92
27.75
23.66
20.35
18.18
17.12
16.89
17.08
17.36
17.54
17.55
17.32
16.68
15.37
13.11
9.82
5.68
1.06
-3.54
-7.77
-11.54
-15.0
-18.4
-22.0
-25.95
-30.32
-35.04
-39.84
-44.16
-47.2
-48.03
-45.99
-40.84
-32.98
-23.24
-12.61
-2.0
7.9
16.54
23.47
28.28
30.73
30.95
29.41
26.86
24.05
21.51
19.48
18.0
16.99
16.45
16.36
16.64
17.08
17.35
17.13
16.28
14.85
13.0
10.92
8.68
6.19
3.29
-0.16
-4.16
-8.61
-13.27
-17.92
-22.26
-25.88
-28.25
-28.73
-26.79
-22.17
-15.1
-6.24
3.39
12.75
20.94
27.4
31.8
34.05
34.18
32.39
29.06
24.74
20.12
15.84
12.41
10.05
8.68
8.01
7.64
7.18
6.37
5.07
3.29
1.07
-1.58
-4.7
-8.33
-12.46
-17.0
-21.75
-26.57
-31.37
-36.05
-40.38
-43.87
-45.8
-45.39
-42.14
-36.04
-27.57
-17.61
-7.11
3.06
12.24
19.93
25.72
29.34
30.68
29.96
27.61
24.34
20.88
17.83
15.59
14.23
13.59
13.4
13.32
13.11
12.57
11.6
10.13
8.16
5.71
2.88
-0.19
-3.4
-6.72
-10.24
-14.16
-18.66
-23.75
-29.14
-34.18
-38.0
-39.67
-38.52
-34.34
-27.45
-18.61
-8.84
0.85
9.62
16.86
22.22
25.55
26.93
26.64
25.11
22.85
20.36
17.95
15.84
14.06
12.61
11.48
10.68
10.18
9.85
9.43
8.63
7.17
4.94
2.02
-1.35
-4.9
-8.42
-11.89
-15.44
-19.25
-23.52
-28.32
-33.47
-38.55
-42.97
-46.04
-47.17
-46.02
-42.55
-37.03
-29.96
-21.95
-13.6
-5.47
1.95
8.24
13.04
16.09
17.31
16.79
14.88
12.07
8.94
6.04
3.77
2.29
1.53
1.27
1.24
1.16
0.88
0.28
-0.67
-2.03
-3.85
-6.12
-8.76
-11.66
-14.72
-17.92
-21.37
-25.21
-29.47
-33.86
-37.8
-40.45
-40.99
-38.85
-33.92
-26.53
-17.42
-7.46
2.46
11.57
19.25
25.05
28.7
30.09
29.35
26.87
23.27
19.25
15.46
12.39
10.21
8.84
7.98
7.23
6.24
4.8
2.85
0.46
-2.23
-5.08
-8.02
-11.04
-14.25
-17.87
-22.17
-27.35
-33.35
-39.69
-45.4
-49.32
-50.32
-47.76
-41.65
-32.64
-21.77
-10.11
1.35
11.9
20.97
28.12
33.01
35.49
35.66
33.91
30.87
27.29
23.86
21.15
19.43
18.69
18.64
18.81
18.71
18.0
16.54
14.36
11.67
8.65
5.44
2.02
-1.68
-5.73
-10.21
-15.15
-20.63
-26.68
-33.2
-39.8
-45.66
-49.7
-50.81
-48.25
-41.92
-32.4
-20.78
-8.32
3.86
14.9
24.13
31.12
35.57
37.4
36.81
34.33
30.7
26.72
23.13
20.42
18.81
18.23
18.36
18.81
19.17
19.14
18.56
17.34
15.48
12.9
9.58
5.55
0.99
-3.84
-8.64
-13.25
-17.66
-22.11
-26.9
-32.22
-37.93
-43.46
-47.84
-49.98
-48.93
-44.3
-36.32
-25.83
-13.98
-1.93
9.35
19.18
27.05
32.64
35.68
36.16
34.35
30.87
26.62
22.55
19.42
17.66
17.26
17.87
18.95
19.95
20.47
20.24
19.14
17.17
14.38
10.9
6.94
2.75
-1.49
-5.83
-10.5
-15.85
-22.09
-29.02
-35.9
-41.5
-44.46
-43.74
-38.9
-30.31
-18.99
-6.34
6.31
17.91
27.81
35.63
41.11
44.01
44.21
41.85
37.5
32.14
26.89
22.69
20.01
18.73
18.36
18.27
17.96
17.14
15.71
13.61
10.83
7.4
3.39
-1.06
-5.76
-10.64
-15.71
-21.14
-27.12
-33.7
-40.63
-47.24
-52.46
-55.09
-54.06
-48.83
-39.59
-27.23
-13.09
1.38
14.88
26.49
35.59
41.85
45.19
45.79
44.11
40.9
37.05
33.37
30.41
28.36
27.06
26.21
25.49
24.7
23.79
22.72
21.37
19.56
17.06
13.76
9.73
5.16
0.29
-4.73
-9.83
-15.05
-20.49
-26.29
-32.5
-39.02
-45.49
-51.11
-54.75
-55.27
-51.83
-44.24
-33.11
-19.64
-5.26
8.74
21.35
31.9
39.9
45.06
47.28
46.75
43.99
39.82
35.22
31.03
27.9
26.07
25.42
25.56
25.98
26.2
25.93
25.08
23.69
21.86
19.61
16.86
13.46
9.33
4.51
-0.76
