0
108.11
102.43
95.39
87.46
79.07
70.58
62.18
53.97
46.04
38.55
31.74
25.86
21.06
17.29
14.26
11.49
8.45
4.69
-0.08
-5.97
-12.96
-20.89
-29.51
-38.49
-47.46
-56.12
-64.3
-72.0
-79.36
-86.59
-93.95
-101.71
-110.33
-120.27
-131.81
-144.61
-157.37
-167.81
-173.14
-170.96
-160.1
-141.1
-116.02
-87.75
-59.19
-32.59
-9.32
10.03
25.44
37.13
45.47
50.83
53.5
53.83
52.31
49.67
46.85
44.85
44.34
45.49
47.88
50.85
53.78
56.44
58.85
61.09
63.0
64.07
63.64
61.22
56.83
50.99
44.54
38.24
32.49
27.25
22.12
16.62
10.51
3.89
-2.9
-9.37
-15.15
-20.13
-24.53
-28.77
-33.35
-38.59
-44.59
-51.14
-57.86
-64.39
-70.51
-76.24
-81.8
-87.66
-94.41
-102.7
-113.07
-125.52
-139.14
-151.98
-161.25
-164.09
-158.4
-143.61
-120.82
-92.54
-61.81
-31.59
-4.13
19.14
37.61
51.35
60.9
67.15
71.08
73.5
74.91
75.5
75.35
74.61
73.61
72.8
72.6
73.25
74.74
76.92
79.5
82.16
84.51
86.06
86.34
84.99
81.95
77.43
71.78
65.41
58.61
51.56
44.43
37.39
30.66
24.39
18.62
13.2
7.92
2.58
-2.94
-8.64
-14.45
-20.22
-25.77
-30.96
-35.81
-40.56
-45.67
-51.71
-59.02
-67.58
-76.97
-86.57
-95.86
-104.68
-113.36
-122.61
-133.25
-145.78
-159.98
-174.56
-187.23
-195.09
-195.4
-186.36
-167.79
-141.14
-109.08
-74.74
-40.99
-10.05
16.75
38.75
55.85
68.44
77.22
83.08
86.92
89.47
91.22
92.42
93.26
93.86
94.4
95.1
96.16
97.71
99.82
102.47
105.43
108.34
110.64
111.76
111.19
108.67
104.31
98.62
92.34
86.17
80.56
75.55
70.78
65.74
60.06
53.61
46.65
39.61
32.92
26.82
21.28
16.09
10.91
5.51
-0.15
-5.98
-11.75
-17.31
-22.74
-28.33
-34.56
-41.8
-50.15
-59.38
-68.99
-78.43
-87.33
-95.67
-103.82
-112.39
-122.26
-134.21
-148.64
-165.07
-181.7
-195.52
-202.84
-200.4
-186.46
-161.46
-127.9
-89.54
-50.33
-13.58
18.49
44.76
65.01
79.62
89.43
95.54
99.02
100.7
101.08
100.35
98.7
96.44
94.08
92.16
91.09
90.99
91.75
93.17
95.05
97.13
99.09
100.35
100.28
98.34
94.33
88.53
81.54
74.05
66.63
59.52
52.65
45.85
38.89
31.63
24.02
16.12
8.12
0.3
-7.07
-13.87
-20.25
-26.62
-33.53
-41.33
-50.09
-59.46
-68.88
-77.88
-86.2
-93.94
-101.47
-109.42
-118.57
-129.74
-143.36
-159.07
-175.3
-189.22
-197.28
-196.24
-184.11
-160.96
-128.79
-90.97
-51.3
-13.23
20.7
48.95
71.01
87.13
98.14
105.14
109.17
111.0
111.06
109.59
106.81
103.14
99.22
95.72
93.26
92.18
92.57
94.25
96.86
99.9
102.79
104.84
105.46
104.26
101.17
96.38
90.32
83.49
76.27
68.95
61.7
54.67
47.96
41.66
35.78
30.27
25.0
19.87
14.82
9.89
5.18
0.81
-3.09
-6.49
-9.47
-12.25
-15.21
-18.77
-23.26
-28.82
-35.26
-42.23
-49.33
-56.44
-63.87
-72.42
-83.18
-97.08
-114.33
-133.83
-153.14
-168.79
-177.21
-175.77
-163.55
-141.57
-112.51
-79.89
-47.23
-17.44
7.53
26.81
40.47
49.3
54.57
57.7
59.86
61.84
63.95
66.17
68.36
70.43
72.39
74.4
76.71
79.57
83.15
87.57
92.72
98.29
103.7
108.25
111.27
112.37
111.57
109.32
106.27
103.02
99.81
96.54
92.91
88.64
83.69
78.31
72.84
67.56
62.45
57.21
51.31
44.18
35.43
24.93
12.92
-0.06
-13.3
-26.17
-38.34
-49.96
-61.57
-73.9
-87.45
-102.21
-117.7
-133.11
-147.72
-161.12
-173.34
-184.78
-196.16
-208.41
-222.52
-239.11
-257.87
-277.08
-293.62
-303.53
-303.14
-290.34
-265.23
-230.07
-188.51
-144.53
-101.68
-62.53
-28.66
-0.79
21.13
37.68
49.79
58.45
64.5
68.53
71.04
72.5
73.44
74.37
75.65
77.47
79.92
83.13
87.28
92.52
98.61
104.81
109.87
112.48
111.77
107.66
100.83
92.38
83.37
74.43
65.73
57.13
48.45
39.6
30.68
21.9
13.55
5.79
-1.34
-8.12
-15.08
-22.81
-31.73
-41.76
-52.34
-62.65
-71.97
-80.1
-87.47
-95.07
-104.13
-115.76
-130.47
-147.84
-166.15
-182.43
-192.95
-194.15
-183.76
-161.64
-129.98
-92.6
-53.91
-17.6
14.05
40.35
61.69
78.88
92.55
102.97
110.23
114.46
116.11
115.95
114.94
114.03
113.84
114.64
116.33
118.53
120.73
122.47
123.39
123.25
121.89
119.17
114.88
108.85
101.06
91.83
81.77
71.67
62.22
53.82
46.43
39.74
33.31
26.79
20.03
13.07
6.16
-0.36
-6.08
-10.8
-14.65
-18.17
-22.2
-27.55
-34.69
-43.46
-53.23
-63.12
-72.42
-80.84
-88.57
-96.2
-104.62
-114.8
-127.54
-143.02
-160.31
-177.13
-190.01
-195.09
-189.3
-171.3
-142.04
-104.51
-62.93
-21.59
15.98
47.59
72.37
90.62
103.37
111.97
117.68
121.41
123.64
124.49
123.99
122.29
119.77
116.97
114.4
112.46
111.31
111.04
111.62
112.95
114.73
116.34
116.89
115.54
111.81
105.94
98.76
91.38
84.63
78.7
73.09
67.05
60.0
51.91
43.31
34.99
27.57
21.22
15.61
10.16
4.25
-2.51
-10.23
-18.75
-27.66
-36.53
-44.98
-52.92
-60.58
-68.63
-78.01
-89.65
-103.97
-120.38
-137.09
-151.16
-159.21
-158.27
-146.78
-125.1
-95.5
-61.54
-27.1
4.55
31.39
52.72
68.9
80.84
89.46
95.43
99.11
100.69
100.37
98.54
95.73
92.51
89.34
86.52
84.22
82.67
82.05
82.48
83.82
85.6
87.0
87.15
85.4
81.58
76.0
69.32
62.28
55.4
48.84
42.45
35.83
28.68
20.95
12.93
5.14
-1.88
-7.89
-13.06
-17.93
-23.07
-28.86
-35.29
-42.02
-48.6
-54.75
-60.47
-66.14
-72.37
-79.78
-88.83
-99.39
-110.57
-120.71
-127.56
-128.96
-123.45
-110.84
-92.3
-69.98
-46.37
-23.62
-3.21
14.12
28.19
39.12
47.19
52.78
56.25
57.99
58.37
57.74
56.42
54.72
52.92
51.23
49.87
48.96
48.64
49.03
50.13
51.78
53.6
55.0
55.39
54.31
51.68
47.75
43.02
38.06
33.25
28.75
24.43
20.09
15.59
10.97
6.38
2.01
-2.0
-5.65
-9.01
-12.2
-15.29
-18.4
-21.6
-24.93
-28.38
-31.89
-35.44
-39.13
-43.19
-47.9
-53.35
-59.3
-65.21
-70.46
-74.73
-78.22
-81.62
-85.88
-91.82
-99.71
-109.13
-118.88
-127.22
-132.16
-131.97
-125.63
-113.17
-95.73
-75.26
-54.04
-34.14
-16.96
-3.18
7.2
14.59
19.61
22.88
24.95
26.1
26.45
26.01
24.86
23.25
21.59
20.42
20.11
20.84
22.53
25.0
27.94
31.06
34.0
36.41
37.93
38.3
37.44
35.5
32.74
29.52
26.1
22.71
19.41
16.23
13.07
9.85
6.49
3.0
-0.51
-3.84
-6.8
-9.3
-11.45
-13.57
-16.08
-19.35
-23.63
-28.93
-35.09
-41.8
-48.76
-55.62
-62.14
-68.19
-73.96
-79.92
-86.84
-95.4
-105.83
-117.42
-128.51
-136.81
-140.03
-136.59
-126.12
-109.48
-88.55
-65.64
-43.05
-22.59
-5.39
8.2
18.42
25.85
31.1
34.61
36.64
37.39
37.13
36.31
35.43
34.89
34.84
35.22
35.91
36.77
37.83
39.12
40.6
41.98
42.81
42.56
40.79
37.37
32.4
26.22
19.26
11.92
4.52
-2.71
-9.54
-15.73
-21.04
-25.39
-28.8
-31.46
-33.63
-35.49
-37.19
-38.72
-40.1
-41.34
-42.59
-44.01
-45.88
-48.48
-52.06
-56.71
-62.34
-68.67
-75.35
-82.03
-88.53
-94.9
-101.44
-108.67
-117.12
-127.09
-138.27
-149.47
-158.65
-163.18
-160.62
-149.44
-129.62
-102.7
-71.38
-38.73
-7.53
20.3
43.74
62.61
77.21
88.2
96.3
102.21
106.44
109.25
110.76
111.01
110.2
108.81
107.56
107.17
108.14
110.52
113.99
117.98
121.89
125.22
127.52
128.4
127.56
124.86
120.54
115.14
109.45
104.13
99.48
95.38
91.44
87.3
82.82
78.11
73.36
68.68
64.06
59.37
54.55
49.59
44.57
39.51
34.39
29.08
23.5
17.58
11.43
5.21
-0.94
-6.9
-12.71
-18.45
-24.33
-30.64
-37.61
-45.32
-53.62
-62.09
-70.17
-77.39
-83.55
-88.87
-93.92
-99.54
-106.59
-115.8
-127.46
-141.0
-154.79
-166.14
-171.79
-168.81
-155.55
-132.28
-101.2
-65.8
-29.83
3.54
32.31
55.64
73.55
86.63
95.68
101.52
104.93
106.57
106.98
106.59
105.77
104.85
104.01
103.43
103.13
103.18
103.74
104.91
106.72
108.95
111.05
112.29
112.0
109.7
105.4
99.45
92.43
84.97
77.54
70.34
63.41
56.68
50.04
43.55
37.25
31.27
25.67
20.47
15.66
11.26
7.3
3.81
0.71
-2.21
-5.3
-8.86
-13.01
-17.64
-22.48
-27.26
-31.9
-36.54
-41.47
-47.03
-53.39
-60.49
-68.04
-75.62
-82.85
-89.56
-95.79
-101.87
-108.31
-115.68
-124.51
-135.02
-146.82
-158.57
-167.98
-172.12
-168.25
-154.67
-131.47
-100.6
-65.32
-29.28
4.3
33.21
56.3
73.29
84.56
90.9
93.43
93.3
91.55
88.94
85.93
82.8
79.77
77.14
75.22
74.24
74.25
75.16
76.69
78.52
80.32
81.72
82.31
81.68
79.47
75.5
69.82
62.78
54.92
46.86
39.13
31.97
25.36
19.04
12.72
6.26
-0.33
-6.82
-12.93
-18.46
-23.3
-27.56
-31.49
-35.53
-40.15
-45.7
-52.3
-59.65
-67.27
-74.61
-81.31
-87.46
-93.57
-100.48
-109.12
-120.15
-133.47
-147.93
-161.18
-170.06
-171.4
-162.91
-144.05
-116.23
-82.39
-46.2
-11.16
20.07
45.91
65.77
79.83
88.8
93.65
95.45
95.09
93.28
90.47
87.04
83.34
79.75
76.71
74.59
73.72
74.3
76.36
79.67
83.66
87.43
90.01
90.64
88.99
85.26
80.0
73.84
67.25
60.54
53.87
47.34
41.09
35.23
29.72
24.48
19.42
14.5
9.84
5.61
1.92
-1.28
-4.22
-7.21
-10.5
-14.24
-18.45
-23.09
-28.05
-33.28
-38.74
-44.42
-50.37
-56.71
-63.61
-71.2
-79.49
-88.27
-97.13
-105.52
-113.05
-119.67
-125.87
-132.67
-141.17
-152.11
-165.2
-178.81
-190.1
-195.64
-192.34
-178.39
-153.84
-120.69
-82.37
-42.92
-6.16
25.13
49.54
67.02
78.46
85.2
88.59
89.7
89.3
87.95
86.12
84.28
82.74
81.76
81.41
81.67
82.49
83.83
85.63
87.73
89.8
91.43
92.13
91.44
89.04
84.8
78.92
71.88
64.42
57.24
50.81
45.14
39.8
34.16
27.7
20.32
12.42
4.68
-2.16
-7.71
-12.03
-15.59
-19.13
-23.38
-28.81
-35.55
-43.31
-51.53
-59.52
-66.87
-73.54
-80.06
-87.41
-96.68
-108.59
-122.93
-138.25
-151.84
-160.29
-160.36
-150.0
-129.09
-99.55
-64.89
-29.17
4.03
32.32
54.76
71.49
83.28
90.98
95.36
97.04
96.67
94.9
92.4
89.72
87.22
85.09
83.46
82.5
82.41
83.33
85.24
87.82
90.51
92.6
93.38
92.3
89.02
83.54
76.16
67.54
58.48
49.76
41.83
34.69
27.94
21.08
13.74
5.91
-2.05
-9.63
-16.4
-22.25
-27.39
-32.33
-37.62
-43.76
-50.97
-59.14
-67.86
-76.53
-84.54
-91.59
-97.89
-104.22
-111.68
-121.21
-133.04
-146.22
-158.61
-167.09
-168.49
-160.35
-141.8
-113.89
-79.39
-42.15
-6.08
25.63
51.13
69.98
82.86
91.06
95.97
98.66
99.78
99.67
98.55
96.68
94.41
92.12
90.07
88.46
87.41
87.03
87.38
88.43
89.89
91.2
91.68
90.72
88.0
83.59
77.8
71.11
63.95
56.68
49.6
42.91
36.71
30.95
25.44
19.9
14.15
8.18
2.15
-3.65
-8.95
-13.64
-17.85
-21.91
-26.27
-31.38
-37.56
-44.87
-53.08
-61.72
-70.22
-78.09
-85.1
-91.38
-97.4
-103.9
-111.7
-121.38
-133.02
-145.79
-157.89
-166.69
-169.26
-163.22
-147.53
-122.87
-91.65
-57.35
-23.6
6.62
31.54
50.62
64.28
73.51
79.44
83.08
85.21
86.29
86.47
85.79
84.33
82.3
80.09
78.18
76.99
76.68
77.23
78.43
80.0
81.59
82.8
83.07
81.85
78.73
73.66
66.98
59.35
51.5
43.95
37.0
30.66
24.84
19.41
14.19
9.01
3.69
-1.83
-7.44
-12.86
-17.77
-22.0
-25.69
-29.23
-33.15
-37.88
-43.63
-50.28
-57.48
-64.76
-71.64
-77.83
-83.33
-88.48
-93.96
-100.62
-109.09
-119.43
-130.73
-141.13
-148.05
-148.87
-141.63
-125.72
-102.15
-73.33
-42.58
-13.22
12.11
31.94
46.09
55.34
60.97
64.19
65.86
66.41
66.0
64.78
63.09
61.43
60.31
59.99
60.44
61.39
62.53
63.64
64.68
65.64
66.42
66.76
66.32
64.77
61.93
57.76
52.33
45.78
38.35
30.42
22.51
15.16
8.82
3.62
-0.52
-3.88
-6.75
-9.4
-12.02
-14.77
-17.75
-21.04
-24.63
-28.53
-32.8
-37.56
-42.92
-48.81
-54.87
-60.59
-65.48
-69.39
-72.67
-76.08
-80.5
-86.69
-95.01
-105.23
-116.49
-127.14
-134.89
-137.18
-131.83
-117.74
-95.46
-67.14
-36.01
-5.47
21.7
43.86
60.65
72.63
80.91
86.66
90.83
93.96
96.21
97.5
97.75
97.05
95.71
94.18
92.81
91.78
90.99
90.19
89.13
87.69
85.82
83.45
80.46
76.57
71.51
65.17
57.71
49.61
41.47
33.94
27.37
21.9
17.44
13.82
10.94
8.74
7.17
6.15
5.51
5.05
4.56
3.88
2.87
1.44
-0.46
-2.81
-5.54
-8.61
-12.02
-15.83
-20.04
-24.61
-29.38
-34.18
-38.97
-43.93
-49.37
-55.61
-62.75
-70.54
-78.56
-86.27
-93.3
-99.49
-104.9
-109.85
-114.95
-120.97
-128.62
-138.06
-148.4
-157.61
-162.83
-161.24
-151.04
-132.12
-106.12
-75.97
-44.98
-16.02
8.9
28.8
43.59
53.78
60.19
63.79
65.44
65.88
65.64
65.07
64.51
64.17
64.25
64.8
65.78
67.11
68.72
70.65
72.9
75.37
77.69
79.31
79.65
78.39
75.59
71.68
67.23
62.66
58.17
53.76
49.39
45.14
41.07
37.2
33.38
29.35
24.99
20.42
16.02
12.18
8.99
6.13
2.96
-1.07
-6.17
-12.07
-18.17
-23.94
-29.19
-34.1
-39.16
-44.81
-51.25
-58.35
-65.74
-72.98
-79.73
-85.9
-91.65
-97.39
-103.72
-111.3
-120.61
-131.65
-143.64
-154.89
-162.97
-165.21
-159.37
-144.46
-121.09
-91.46
-58.83
-26.61
2.28
26.12
44.31
57.24
65.82
71.1
74.0
75.25
75.43
75.09
74.69
74.6
75.03
76.04
77.56
79.5
81.77
84.28
86.88
89.37
91.44
92.67
92.73
91.4
88.63
84.58
79.56
73.96
68.19
62.55
57.13
51.84
46.45
40.78
34.88
29.04
23.63
18.93
14.94
11.37
7.77
3.81
-0.58
-5.26
-10.02
-14.75
-19.58
-24.77
-30.6
-37.24
-44.66
-52.71
-61.11
-69.46
-77.39
-84.53
-90.73
-96.23
-101.7
-108.11
-116.35
-126.72
-138.39
-149.33
-156.66
-157.4
-149.37
-131.89
-106.06
-74.45
-40.46
-7.46
21.79
45.62
63.4
75.44
82.67
86.3
87.61
87.66
87.19
86.6
85.99
85.32
84.5
83.59
82.79
82.35
82.5
83.25
84.45
85.73
86.74
87.11
86.61
85.05
82.31
78.39
73.45
67.85
62.03
56.42
51.16
46.2
41.35
36.4
31.39
26.47
21.92
17.95
14.66
11.99
9.76
7.71
5.5
2.85
-0.45
-4.36
-8.61
-12.79
-16.58
-19.89
-22.98
-26.32
-30.45
-35.77
-42.35
-49.96
-58.12
-66.23
-73.76
-80.46
-86.5
-92.5
-99.36
-107.94
-118.54
-130.55
-142.3
-151.27
-154.7
-150.38
-137.35
-116.19
-88.92
-58.45
-27.91
0.04
23.55
41.69
54.38
62.18
66.09
67.35
67.11
66.27
65.31
64.41
63.57
62.79
62.14
61.77
61.78
62.24
63.15
64.48
66.16
67.98
69.59
70.55
70.39
68.85
65.91
61.76
56.74
51.11
45.12
38.97
32.9
27.15
21.92
17.24
12.94
8.75
4.47
0.03
-4.49
-8.87
-12.98
-16.86
-20.67
-24.65
-28.94
-33.55
-38.35
-43.16
-47.85
-52.41
-56.93
-61.57
-66.57
-72.24
-78.95
-86.94
-96.12
-105.78
-114.42
-120.02
-120.53
-114.49
-101.5
-82.41
-59.0
-33.63
-8.72
13.63
31.94
45.45
54.26
59.11
61.18
61.64
61.35
60.76
60.0
59.12
58.23
57.49
57.05
56.92
57.06
57.44
58.12
59.21
60.67
62.24
63.42
63.66
62.66
60.4
57.21
53.44
49.38
45.13
40.69
36.05
31.38
26.91
22.9
19.49
16.66
14.32
12.22
10.17
7.97
5.54
2.88
0.08
-2.74
-5.42
-7.84
-9.99
-11.94
-13.85
-15.93
-18.29
-20.98
-23.96
-27.12
-30.43
-33.95
-37.81
-42.16
-47.08
-52.5
-58.23
-63.91
-69.26
-74.08
-78.43
-82.67
-87.46
-93.51
-101.2
-110.25
-119.44
-126.8
-130.1
-127.56
-118.37
-102.99
-82.87
-60.12
-36.98
-15.39
3.13
17.66
27.93
34.26
37.41
38.4
38.17
37.36
36.36
35.36
34.44
33.67
33.16
32.98
33.17
33.86
35.19
37.31
40.16
43.48
46.77
49.45
50.99
51.16
49.97
47.63
44.47
40.8
36.91
32.95
29.06
25.24
21.44
17.58
13.64
9.64
5.68
1.82
-1.9
-5.47
-8.91
-12.23
-15.48
-18.75
-22.25
-26.2
-30.84
-36.29
-42.49
-49.16
-55.95
-62.49
-68.6
-74.28
-79.78
-85.54
-92.08
-99.8
-108.74
-118.26
-126.88
-132.45
-132.7
-125.88
-111.56
-90.78
-65.89
-39.86
-15.35
5.82
22.85
35.76
45.0
51.17
54.88
56.74
57.36
57.32
57.08
56.9
56.87
57.03
57.4
58.12
59.34
61.23
63.82
66.99
70.44
73.74
76.41
78.03
78.28
76.97
74.13
69.9
64.59
58.61
52.38
46.24
40.42
35.04
30.08
25.42
20.88
16.24
11.24
5.73
-0.23
-6.33
-12.17
-17.4
-22.05
-26.48
-31.3
-36.97
-43.62
-50.98
-58.6
-66.09
-73.32
-80.45
-87.77
-95.63
-104.39
-114.35
-125.55
-137.54
-149.04
-157.95
-161.8
-158.41
-146.54
-126.44
-99.69
-68.82
-36.69
-5.96
21.28
43.67
60.67
72.47
79.82
83.77
85.43
85.68
85.17
84.28
83.23
82.18
81.26
80.63
80.49
81.03
82.39
84.55
87.32
90.3
93.0
94.88
95.55
94.76
92.46
88.74
83.85
78.12
71.89
65.44
58.98
52.65
46.52
40.69
35.25
30.25
25.66
21.3
16.94
12.32
7.22
1.57
-4.53
-10.86
-17.22
-23.54
-30.01
-36.99
-44.77
-53.43
-62.68
-71.97
-80.81
-89.0
-96.8
-104.85
-113.93
-124.71
-137.29
-151.05
-164.32
-174.59
-178.91
-174.64
-160.34
-136.33
-104.69
-68.73
-32.12
1.97
31.37
54.98
72.64
84.81
92.36
96.39
97.95
97.91
96.86
95.1
92.81
90.22
87.68
85.65
84.51
84.49
85.6
87.59
90.05
92.47
94.35
95.23
94.8
92.87
89.39
84.44
78.22
71.08
63.44
55.74
48.3
41.21
34.35
27.48
20.38
13.06
5.74
-1.16
-7.17
-12.01
-15.73
-18.76
-21.89
-25.95
-31.56
-38.78
-47.18
-56.02
-64.58
-72.47
-79.73
-86.8
-94.37
-103.2
-113.98
-126.95
-141.44
-155.61
-166.52
-170.68
-165.1
-148.34
-121.08
-85.99
-46.97
-8.1
27.1
56.3
78.35
93.24
101.82
105.49
105.82
104.16
101.41
98.03
94.24
90.3
86.58
83.5
81.46
80.62
80.95
82.33
84.56
87.33
90.19
92.42
93.19
91.87
88.18
82.34
74.96
66.82
58.6
50.73
43.4
36.61
30.26
24.24
18.44
12.79
7.21
1.67
-3.82
-9.21
-14.4
-19.32
-23.93
-28.25
-32.46
-36.83
-41.77
-47.67
-54.79
-63.09
-72.17
-81.39
-90.05
-97.7
-104.36
-110.59
-117.33
-125.64
-136.26
-149.11
-163.09
-175.9
-184.41
-185.31
-176.06
-155.71
-125.32
-87.81
-47.21
-7.69
27.37
55.89
77.11
91.42
99.85
103.76
104.51
103.3
101.08
98.53
96.07
93.91
92.14
90.78
89.81
89.23
89.08
89.38
90.16
91.35
92.69
93.77
93.99
92.73
89.57
84.38
77.43
69.27
60.55
51.86
43.56
35.81
28.62
21.99
15.91
10.4
5.49
1.13
-2.88
-6.73
-10.7
-14.98
-19.67
-24.71
-29.92
-35.08
-40.08
-45.05
-50.35
-56.45
-63.74
-72.27
-81.65
-91.15
-99.96
-107.56
-114.03
-120.12
-127.08
-136.08
-147.72
-161.41
-175.21
-186.1
-190.59
-185.68
-169.66
-142.8
-107.24
-66.62
-25.17
13.15
45.42
70.13
87.09
97.14
101.66
102.22
100.19
96.72
92.67
88.6
84.89
81.72
79.21
77.45
76.59
76.77
78.07
80.35
83.22
86.12
88.44
89.59
89.14
86.81
82.53
76.43
68.89
60.48
51.83
43.41
35.36
27.55
19.64
11.44
3.04
-5.2
-12.75
-19.28
-24.77
-29.66
-34.58
-40.13
-46.63
-54.0
-61.81
-69.47
-76.5
-82.71
-88.36
-94.12
-100.99
-110.03
-121.84
-136.07
-151.07
-163.84
-170.67
-168.18
-154.41
-129.59
-96.15
-58.01
-19.54
15.57
44.9
67.44
83.3
93.33
98.64
100.38
99.55
96.99
93.35
89.17
84.86
80.71
76.93
73.65
71.05
69.35
68.8
69.49
71.25
73.5
75.38
76.0
74.71
71.35
66.26
60.1
53.6
47.24
41.16
35.15
28.84
21.91
14.29
6.21
-1.87
-9.48
-16.35
-22.54
-28.45
-34.57
-41.28
-48.65
-56.43
-64.17
-71.53
-78.33
-84.76
-91.25
-98.44
-107.06
-117.65
-130.3
-144.23
-157.45
-166.95
-169.28
-161.67
-143.0
-114.46
-79.19
-41.44
-5.25
26.42
52.04
71.4
85.02
93.75
98.53
100.25
99.73
97.64
94.49
90.65
86.36
81.95
77.86
74.6
72.62
72.16
73.17
75.24
77.72
79.85
80.86
80.17
77.47
72.82
66.53
59.04
50.72
41.82
32.47
22.82
13.16
3.82
-4.96
-13.21
-21.21
-29.4
-38.07
-47.19
-56.33
-64.96
-72.64
-79.28
-85.22
-91.08
-97.64
-105.64
-115.65
-127.79
-141.37
-154.68
-164.99
-169.05
-163.99
-148.25
-122.18
-88.1
-49.73
-11.12
24.14
53.66
76.37
92.34
102.42
107.78
109.64
109.04
106.81
103.54
99.7
95.65
91.71
88.17
85.25
83.14
81.98
81.85
82.72
84.38
86.41
88.12
88.67
87.31
83.58
77.53
69.73
61.08
52.47
44.45
37.06
29.93
22.54
14.51
5.87
-3.01
-11.5
-18.97
-25.08
-29.88
-33.9
-37.96
-42.96
-49.53
-57.75
-67.13
-76.79
-85.87
-93.81
-100.71
-107.26
-114.58
-123.85
-135.75
-149.98
-164.9
-177.55
-184.26
-181.57
-167.41
-141.79
-106.97
-66.82
-25.8
12.13
44.17
69.0
86.56
97.69
103.67
105.86
105.47
103.47
100.55
97.26
93.97
90.93
88.25
85.97
84.16
82.99
82.69
83.46
85.21
87.46
89.37
90.0
88.6
84.89
79.08
71.79
63.81
55.76
48.01
40.56
33.12
25.35
17.06
8.38
-0.23
-8.16
-14.95
-20.45
-24.94
-29.04
-33.42
-38.6
-44.75
-51.68
-58.94
-65.95
-72.25
-77.73
-82.67
-87.85
-94.35
-103.18
-114.82
-128.63
-142.66
-153.83
-158.62
-154.1
-138.81
-113.32
-80.21
-43.31
-6.8
25.81
52.23
71.65
84.4
91.56
94.47
94.35
92.24
88.91
85.03
81.16
77.8
75.26
73.66
72.92
72.9
73.52
74.74
76.54
78.74
80.88
82.25
82.1
79.87
75.39
68.99
61.28
53.01
44.83
37.07
29.76
22.69
15.54
8.08
0.37
-7.21
-14.08
-19.8
-24.24
-27.8
-31.24
-35.41
-40.84
-47.55
-55.07
-62.67
-69.75
-76.02
-81.63
-87.16
-93.38
-101.11
-110.85
-122.47
-134.87
-145.87
-152.53
-151.92
-142.05
-122.6
-95.21
-63.02
-29.83
0.93
26.94
47.17
61.78
71.54
77.43
80.33
80.88
79.61
77.04
73.77
70.46
67.72
65.94
65.26
65.57
66.65
68.32
70.48
72.98
75.58
77.83
79.07
78.66
76.25
71.88
66.03
59.49
53.01
47.08
41.82
37.04
32.39
27.65
22.72
17.74
12.93
8.56
4.82
1.82
-0.52
-2.52
-4.65
-7.43
-11.21
-15.91
-21.14
-26.29
-30.94
-35.08
-39.09
-43.5
-48.72
-54.78
-61.4
-68.1
-74.47
-80.31
-85.65
-90.71
-95.89
-101.73
-108.9
-117.91
-128.76
-140.57
-151.4
-158.55
-159.23
-151.45
-134.63
-109.93
-79.9
-47.85
-17.06
9.89
31.44
47.14
57.44
63.33
66.05
66.66
65.96
64.44
62.45
60.29
58.29
56.72
55.76
55.37
55.45
55.88
56.68
57.95
59.65
61.54
63.11
63.79
63.1
60.99
57.7
53.73
49.54
45.36
41.19
36.89
32.26
27.21
21.82
16.27
10.86
5.9
1.61
-1.97
-5.05
-8.01
-11.22
-14.88
-18.96
-23.17
-27.22
-30.96
-34.48
-38.04
-41.95
-46.41
-51.44
-56.9
-62.59
-68.36
-74.15
-80.04
-86.24
-93.03
-100.72
-109.51
-119.23
-129.22
-138.02
-143.62
-143.79
-136.73
-121.72
-99.48
-72.09
-42.45
-13.57
12.19
33.41
49.65
61.14
68.42
72.14
72.94
71.49
68.55
64.84
61.1
57.91
55.65
54.55
54.7
56.05
58.52
61.95
66.03
70.32
74.17
76.91
77.97
77.13
74.5
70.5
65.66
60.41
55.01
49.54
44.0
38.39
32.73
27.05
21.42
15.91
10.66
5.79
1.36
-2.76
-6.83
-11.13
-15.83
-20.88
-26.11
-31.35
-36.6
-42.06
-48.05
-54.76
-62.17
-69.96
-77.69
-84.99
-91.8
-98.46
-105.64
-114.1
-124.39
-136.31
-148.78
-159.69
-166.37
-166.18
-157.26
-139.18
-113.11
-81.57
-47.84
-15.21
13.73
37.38
55.3
67.89
76.03
80.78
83.04
83.55
82.87
81.45
79.68
77.94
76.55
75.75
75.73
76.59
78.35
80.89
83.99
87.31
90.42
92.81
93.98
93.57
91.36
87.49
82.37
76.63
70.93
65.7
61.04
56.75
52.4
47.55
42.0
35.85
29.44
23.28
17.84
13.33
9.65
6.36
2.88
-1.28
-6.36
-12.2
-18.34
-24.29
-29.71
-34.67
-39.54
-44.85
-51.03
-58.22
-66.26
-74.73
-83.19
-91.33
-99.05
-106.53
-114.2
-122.72
-132.79
-144.76
-158.23
-171.68
-182.47
-187.38
-183.41
-168.86
-143.92
-110.78
-73.0
-34.63
0.81
30.9
54.52
71.66
83.03
89.68
92.74
93.2
91.84
89.27
86.04
82.68
79.75
77.76
77.08
77.75
79.55
82.1
85.04
88.1
91.0
93.42
94.91
94.97
93.27
89.77
84.79
78.84
72.44
65.93
59.44
52.99
46.56
40.21
34.0
27.98
22.18
16.57
11.14
5.99
1.18
-3.28
-7.48
-11.74
-16.38
-21.74
-27.98
-35.14
-43.05
-51.42
-59.86
-67.93
-75.38
-82.21
-88.87
-96.19
-105.16
-116.46
-129.99
-144.48
-157.42
-165.55
-165.73
-155.81
-135.43
-106.23
-71.4
-34.88
-0.41
29.37
53.06
70.59
82.63
90.18
94.25
95.63
95.0
92.93
89.94
86.51
83.08
80.01
77.63
76.19
75.89
76.81
78.85
81.72
84.95
87.9
89.97
90.64
89.6
86.78
82.36
76.69
70.22
63.39
56.48
49.61
42.71
35.7
28.59
21.56
14.86
8.67
2.99
-2.4
-7.75
-13.15
-18.43
-23.33
-27.7
-31.74
-35.98
-41.07
-47.47
-55.19
-63.84
-72.74
-81.25
-89.02
-96.06
-102.74
-109.72
-117.83
-127.83
-140.06
-153.91
-167.57
-178.04
-181.82
-175.87
-158.68
-130.91
-95.27
-55.81
-16.77
18.37
47.46
69.66
85.24
95.06
100.26
102.04
101.51
99.63
97.08
94.35
91.73
89.37
87.36
85.78
84.77
84.5
85.12
86.67
88.99
91.58
93.74
94.7
93.86
91.03
86.44
80.61
74.18
67.68
61.36
55.29
49.38
43.46
37.37
31.06
24.56
18.12
12.01
6.53
1.83
-2.23
-6.04
-10.11
-14.76
-20.05
-25.67
-31.21
-36.42
-41.36
-46.42
-52.11
-58.76
-66.37
-74.63
-83.04
-91.17
-98.8
-105.91
-112.74
-119.77
-127.69
-137.26
-148.97
-162.46
-176.1
-187.0
-191.58
-186.64
-170.44
-143.43
-108.1
-68.32
-28.27
8.49
39.5
63.6
80.69
91.49
97.25
99.33
99.05
97.35
94.84
91.89
88.75
85.72
83.11
81.23
80.33
80.55
81.89
84.21
87.19
90.27
92.75
93.91
93.23
90.49
85.83
79.67
72.58
65.1
57.7
50.65
44.01
37.65
31.38
25.02
18.48
11.75
4.95
-1.82
-8.4
-14.56
-20.12
-24.94
-29.12
-33.02
-37.2
-42.25
-48.55
-56.02
-64.15
-72.23
-79.67
-86.27
-92.39
-98.77
-106.32
-115.8
-127.52
-141.03
-154.95
-166.91
-173.94
-173.02
-161.99
-140.28
-109.31
-72.24
-33.2
3.75
35.53
60.53
78.53
90.26
96.9
99.64
99.57
97.6
94.54
91.12
87.89
85.16
83.01
81.4
80.26
79.65
79.71
80.63
82.46
84.93
87.5
89.44
90.0
88.63
85.18
79.86
73.19
65.8
58.22
50.77
43.55
36.5
29.56
22.65
15.79
8.97
2.26
-4.28
-10.57
-16.49
-21.92
-26.79
-31.2
-35.41
-39.81
-44.83
-50.84
-57.96
-66.05
-74.7
-83.28
-91.17
-98.02
-103.96
-109.65
-116.23
-124.85
-136.1
-149.48
-163.11
-173.95
-178.5
-173.77
-158.22
-132.27
-98.28
-59.88
-21.14
14.36
44.15
67.15
83.38
93.71
99.35
101.5
101.21
99.29
96.42
93.11
89.71
86.43
83.39
80.67
78.49
77.16
76.97
77.99
79.95
82.18
83.85
84.22
82.9
79.88
75.44
69.97
63.76
57.04
49.93
42.56
35.15
27.87
20.94
14.5
8.7
3.62
-0.67
-4.2
-7.16
-9.77
-12.3
-14.96
-17.89
-21.21
-25.07
-29.66
-35.13
-41.49
-48.51
-55.76
-62.76
-69.17
-74.96
-80.45
-86.23
-93.11
-101.91
-113.22
-126.96
-141.99
-155.99
-165.71
-167.76
-159.62
-140.48
-111.69
-76.42
-38.79
-2.89
28.16
52.56
69.94
80.93
86.76
88.84
88.46
86.56
83.81
80.66
77.46
74.54
72.22
70.74
70.24
70.79
72.33
74.72
77.67
80.74
83.35
84.87
84.75
82.7
78.7
72.99
66.04
58.37
50.5
42.87
35.74
29.18
23.04
17.04
10.89
4.41
-2.33
-9.04
-15.29
-20.75
-25.31
-29.14
-32.71
-36.61
-41.42
-47.49
-54.79
-62.96
-71.31
-79.14
-85.98
-91.87
-97.42
-103.63
-111.65
-122.23
-135.34
-149.83
-163.37
-172.86
-175.04
-167.4
-148.98
-120.8
-85.76
-47.84
-11.15
21.04
46.85
65.89
78.79
86.73
90.9
92.35
91.89
90.24
88.04
85.86
84.1
82.94
82.35
82.23
82.54
83.4
84.91
87.1
89.71
92.27
94.14
94.74
93.72
91.01
86.75
81.31
75.12
68.65
62.31
56.36
50.79
45.36
39.71
33.6
27.07
20.5
14.52
9.67
6.19
3.88
2.12
0.13
-2.74
-6.79
-11.93
-17.76
-23.79
-29.68
-35.35
-41.02
-47.11
-54.04
-62.02
-70.89
-80.2
-89.35
-97.8
-105.33
-112.07
-118.48
-125.28
-133.3
-143.26
-155.37
-168.88
-181.78
-190.94
-192.81
-184.53
-165.0
-135.41
-98.95
-59.88
-22.3
10.73
37.62
57.99
72.31
81.45
86.44
88.37
88.34
87.27
85.87
84.56
83.54
82.86
82.51
82.54
83.04
84.13
85.85
88.17
90.87
93.53
95.57
96.39
95.47
92.63
88.06
82.3
75.99
69.66
63.5
57.39
50.99
44.06
36.65
29.12
22.04
15.93
10.98
7.05
3.72
0.47
-3.12
-7.18
-11.64
-16.25
-20.69
-24.79
-28.58
-32.36
-36.6
-41.77
-48.15
-55.63
-63.76
-71.91
-79.62
-86.78
-93.71
-101.17
-110.03
-121.03
-134.23
-148.68
-162.16
-171.49
-173.19
-164.59
-144.85
-115.41
-79.69
-42.08
-6.7
23.56
47.41
64.82
76.56
83.62
87.03
87.69
86.48
84.08
81.06
77.83
74.71
72.01
70.08
69.25
69.71
71.41
74.1
77.35
80.68
83.57
85.46
85.75
83.93
79.72
73.33
65.46
57.12
49.32
42.66
37.11
32.12
26.9
20.83
13.81
6.22
-1.24
-7.98
-13.71
-18.61
-23.25
-28.27
-34.25
-41.41
-49.57
-58.21
-66.63
-74.27
-80.97
-87.01
-93.15
-100.37
-109.54
-121.0
-134.22
-147.55
-158.42
-163.76
-160.85
-148.13
-125.8
-95.84
-61.48
-26.38
6.31
34.44
56.99
73.78
85.15
91.72
94.2
93.49
90.53
86.29
81.67
77.4
74.0
71.77
70.76
70.91
72.0
73.86
76.29
79.14
82.13
84.84
86.67
86.99
85.35
81.62
76.05
69.18
61.64
53.96
46.46
39.3
32.45
25.83
19.31
12.82
6.29
-0.24
-6.67
-12.81
-18.49
-23.69
-28.51
-33.24
-38.26
-43.94
-50.47
-57.79
-65.61
-73.46
-80.95
-87.85
-94.25
-100.6
-107.67
-116.35
-127.26
-140.29
