0
-24.38
-19.11
-13.0
-6.71
-0.82
4.27
8.4
11.59
13.87
15.23
15.7
15.37
14.48
13.41
12.5
11.99
11.92
12.14
12.41
12.56
12.49
12.19
11.75
11.24
10.72
10.19
9.57
8.73
7.52
5.9
3.96
1.93
0.06
-1.46
-2.63
-3.59
-4.56
-5.76
-7.3
-9.21
-11.45
-13.88
-16.22
-18.04
-18.82
-18.04
-15.48
-11.28
-5.96
-0.27
5.08
9.6
13.12
15.73
17.65
19.07
20.01
20.37
20.01
18.92
17.31
15.52
13.96
12.86
12.25
11.98
11.83
11.68
11.5
11.32
11.13
10.83
10.25
9.24
7.76
5.89
3.81
1.74
-0.13
-1.68
-2.93
-3.95
-4.9
-5.94
-7.14
-8.51
-10.02
-11.62
-13.4
-15.42
-17.68
-19.98
-21.87
-22.79
-22.24
-20.0
-16.25
-11.45
-6.21
-1.05
3.67
7.81
11.34
14.26
16.52
18.06
18.87
19.0
18.54
17.67
16.54
15.37
14.31
13.49
12.96
12.7
12.63
12.65
12.66
12.53
12.11
11.31
10.05
8.43
6.61
4.8
3.16
1.7
0.32
-1.14
-2.78
-4.57
-6.36
-8.03
-9.48
-10.73
-11.88
-13.07
-14.42
-16.0
-17.84
-19.93
-22.16
-24.39
-26.36
-27.75
-28.14
-27.15
-24.51
-20.27
-14.75
-8.55
-2.38
3.19
7.86
11.55
14.32
16.26
17.36
17.67
17.3
16.49
15.54
14.63
13.82
13.01
12.11
11.11
10.14
9.32
8.73
8.34
8.02
7.67
7.2
6.54
5.63
4.36
2.73
0.81
-1.2
-3.12
-4.82
-6.33
-7.8
-9.36
-11.02
-12.69
-14.19
-15.43
-16.45
-17.34
-18.34
-19.62
-21.32
-23.46
-25.89
-28.33
-30.31
-31.29
-30.8
-28.56
-24.61
-19.34
-13.41
-7.52
-2.24
2.12
5.53
8.19
10.28
11.93
13.18
14.0
14.37
14.35
14.04
13.54
12.92
12.22
11.47
10.79
10.31
10.17
10.38
10.85
11.35
11.65
11.55
10.95
9.87
8.38
6.64
4.82
3.14
1.78
0.76
-0.03
-0.84
-1.97
-3.55
-5.52
-7.67
-9.75
-11.65
-13.46
-15.32
-17.32
-19.32
-20.99
-21.87
-21.58
-19.94
-16.99
-13.0
-8.32
-3.34
1.59
6.18
10.2
13.49
15.96
17.57
18.36
18.39
17.81
16.88
15.87
15.08
14.64
14.49
14.43
14.22
13.73
13.04
12.29
11.64
11.06
10.41
9.49
8.17
6.53
4.71
2.87
1.1
-0.6
-2.25
-3.83
-5.36
-6.87
-8.46
-10.26
-12.35
-14.72
-17.26
-19.79
-22.07
-23.81
-24.67
-24.29
-22.44
-19.14
-14.65
-9.48
-4.13
0.98
5.58
9.53
12.76
15.21
16.86
17.76
17.99
17.67
16.87
15.7
14.31
12.95
11.9
11.33
11.26
11.47
11.67
11.57
11.01
9.97
8.55
6.88
5.13
3.48
2.02
0.76
-0.43
-1.78
-3.41
-5.35
-7.48
-9.59
-11.57
-13.47
-15.44
-17.65
-20.17
-22.88
-25.56
-27.89
-29.54
-30.2
-29.6
-27.53
-23.97
-19.11
-13.36
-7.23
-1.24
4.16
8.69
12.21
14.7
16.23
16.9
16.86
16.26
15.25
14.01
12.72
11.61
10.85
10.49
10.47
10.59
10.58
10.21
9.41
8.3
7.08
5.9
4.84
3.82
2.72
1.39
-0.2
-1.99
-3.91
-5.96
-8.12
-10.44
-12.87
-15.32
-17.64
-19.76
-21.68
-23.52
-25.42
-27.46
-29.54
-31.39
-32.58
-32.63
-31.18
-28.05
-23.35
-17.43
-10.82
-4.15
2.04
7.32
11.48
14.43
16.23
17.0
16.98
16.41
15.56
14.67
13.92
13.37
13.01
12.78
12.59
12.39
12.19
12.0
11.85
11.66
11.34
10.76
9.82
8.48
6.78
4.88
2.97
1.24
-0.18
-1.35
-2.41
-3.56
-4.91
-6.48
-8.18
-9.94
-11.68
-13.35
-14.8
-15.8
-15.95
-14.85
-12.31
-8.42
-3.61
1.53
6.39
10.52
13.76
16.09
17.62
18.46
18.69
18.37
17.61
16.57
15.47
14.52
13.86
13.55
13.52
13.65
13.81
13.89
13.81
13.54
13.05
12.31
11.3
10.05
8.55
6.84
4.92
2.84
0.67
-1.48
-3.52
-5.41
-7.21
-9.04
-11.1
-13.48
-16.17
-18.97
-21.53
-23.39
-24.09
-23.28
-20.8
-16.79
-11.65
-5.97
-0.35
4.77
9.19
12.88
15.94
18.39
20.19
21.23
21.46
20.92
19.8
18.4
17.03
15.97
15.31
15.03
14.95
14.85
14.52
13.81
12.68
11.19
9.44
7.61
5.78
4.02
2.31
0.62
-1.07
-2.74
-4.38
-5.98
-7.62
-9.36
-11.25
-13.22
-15.17
-17.02
-18.81
-20.74
-22.96
-25.45
-27.89
-29.72
-30.27
-29.07
-25.98
-21.26
-15.46
-9.26
-3.29
2.03
6.45
9.91
12.45
14.13
15.03
15.2
14.76
13.9
12.87
11.87
11.03
10.34
9.71
9.04
8.26
7.42
6.58
5.81
5.1
4.42
3.7
2.89
1.91
0.67
-0.91
-2.88
-5.19
-7.69
-10.16
-12.38
-14.21
-15.65
-16.85
-18.02
-19.35
-20.97
-22.84
-24.82
-26.64
-27.94
-28.34
-27.51
-25.21
-21.43
-16.35
-10.4
-4.12
1.92
7.25
11.57
14.75
16.86
17.99
18.28
17.91
17.06
15.95
14.8
13.76
12.91
12.22
11.64
11.09
10.57
10.14
9.84
9.65
9.44
9.03
8.27
7.06
5.47
3.69
1.92
0.28
-1.18
-2.57
-4.02
-5.68
-7.65
-9.94
-12.46
-14.98
-17.19
-18.67
-18.96
-17.73
-14.89
-10.66
-5.53
-0.13
4.95
9.29
12.74
15.35
17.23
18.47
19.07
18.98
18.18
16.75
14.92
12.98
11.22
9.84
8.89
8.3
7.97
7.8
7.7
7.58
7.32
6.77
5.79
4.33
2.43
0.28
-1.88
-3.8
-5.4
-6.82
-8.35
-10.33
-12.94
-16.05
-19.21
-21.79
-23.16
-22.86
-20.76
-16.98
-11.88
-5.98
0.1
5.77
10.5
14.05
16.41
17.86
18.72
19.23
19.42
19.24
18.62
17.66
16.61
15.7
15.05
14.56
14.0
13.14
11.88
10.31
8.63
7.05
5.67
4.49
3.39
2.22
0.8
-0.91
-2.85
-4.88
-6.79
-8.47
-9.92
-11.27
-12.72
-14.45
-16.55
-19.02
-21.8
-24.7
-27.41
-29.48
-30.37
-29.6
-26.96
-22.57
-16.93
-10.67
-4.42
1.31
6.21
10.15
13.09
15.09
16.29
16.89
17.15
17.2
17.11
16.83
16.26
15.38
14.25
13.01
11.81
10.74
9.8
8.96
8.09
7.12
5.97
4.61
3.06
1.34
-0.5
-2.4
-4.34
-6.28
-8.25
-10.23
-12.26
-14.35
-16.46
-18.52
-20.42
-22.07
-23.51
-24.9
-26.48
-28.44
-30.71
-32.91
-34.42
-34.53
-32.77
-29.11
-23.9
-17.78
-11.46
-5.48
-0.22
4.19
7.72
10.44
12.46
13.85
14.67
15.02
14.97
14.66
14.23
13.82
13.49
13.23
12.96
12.6
12.14
11.61
11.1
10.64
10.23
9.79
9.23
8.44
7.37
5.99
4.34
2.49
0.55
-1.43
-3.36
-5.21
-6.92
-8.43
-9.72
-10.83
-11.91
-13.2
-14.83
-16.79
-18.8
-20.42
-21.14
-20.58
-18.55
-15.12
-10.59
-5.42
-0.13
4.78
8.9
12.04
14.16
15.34
15.73
15.5
14.79
13.77
12.61
11.51
10.56
9.84
9.34
9.02
8.89
8.94
9.14
9.4
9.52
9.29
8.54
7.21
5.42
3.4
1.4
-0.39
-1.86
-3.05
-4.07
-5.07
-6.18
-7.53
-9.21
-11.22
-13.47
-15.71
-17.5
-18.32
-17.67
-15.3
-11.3
-6.1
-0.41
5.07
9.79
13.56
16.42
18.58
20.12
21.04
21.22
20.66
19.49
18.04
16.66
15.54
14.69
13.91
13.02
11.93
10.72
9.56
8.57
7.75
6.96
6.0
4.68
2.96
0.86
-1.44
-3.72
-5.79
-7.51
-8.88
-10.02
-11.16
-12.55
-14.37
-16.66
-19.21
-21.63
-23.34
-23.77
-22.53
-19.55
-15.11
-9.77
-4.15
1.21
5.95
9.93
13.11
15.45
16.9
17.46
17.25
16.46
15.35
14.16
13.02
12.0
11.1
10.36
9.82
9.49
9.31
9.18
8.92
8.45
7.7
6.67
5.37
3.76
1.83
-0.42
-2.87
-5.3
-7.52
-9.42
-11.05
-12.61
-14.37
-16.52
-19.11
-21.89
-24.44
-26.17
-26.53
-25.19
-22.13
-17.62
-12.21
-6.51
-1.02
3.92
8.15
11.61
14.26
16.07
17.0
17.1
16.54
15.6
14.58
13.75
13.24
12.98
12.79
12.45
11.78
10.81
9.66
8.56
7.65
6.94
6.32
5.61
4.72
3.58
2.2
0.57
-1.29
-3.39
-5.65
-7.96
-10.21
-12.34
-14.45
-16.71
-19.31
-22.22
-25.21
-27.82
-29.52
-29.83
-28.48
-25.43
-20.86
-15.2
-9.01
-2.87
2.71
7.38
10.97
13.44
14.84
15.26
14.83
13.72
12.16
10.44
8.85
7.64
6.94
6.74
6.88
7.12
7.19
6.9
6.2
5.19
4.03
2.91
1.89
0.91
-0.18
-1.5
-3.11
-4.93
-6.78
-8.49
-9.95
-11.14
-12.17
-13.18
-14.31
-15.67
-17.26
-19.03
-20.87
-22.58
-23.89
-24.43
-23.84
-21.82
-18.32
-13.55
-7.99
-2.25
3.09
7.65
11.25
13.9
15.71
16.79
17.21
17.03
16.33
15.28
14.09
12.99
12.14
11.57
11.2
10.91
10.64
10.33
10.02
9.68
9.27
8.62
7.57
6.03
4.02
1.71
-0.62
-2.68
-4.26
-5.32
-5.98
-6.52
-7.23
-8.39
-10.06
-12.07
-14.04
-15.49
-15.94
-15.06
-12.75
-9.16
-4.65
0.23
4.93
8.98
12.12
14.33
15.74
16.47
16.6
16.13
15.08
13.61
12.0
10.58
9.54
8.9
8.47
8.05
7.54
6.95
6.37
5.86
5.36
4.78
4.02
3.04
1.82
0.35
-1.41
-3.46
-5.72
-7.99
-10.03
-11.73
-13.15
-14.51
-16.05
-17.81
-19.57
-20.81
-20.96
-19.58
-16.53
-12.03
-6.62
-0.99
4.19
8.45
11.59
13.7
14.99
15.69
15.91
15.68
15.07
14.2
13.29
12.52
11.95
11.44
10.82
9.96
8.88
7.77
6.8
6.09
5.62
5.24
4.79
4.09
3.05
1.59
-0.28
-2.45
-4.78
-7.08
-9.21
-11.15
-12.93
-14.72
-16.63
-18.76
-21.09
-23.43
-25.34
-26.26
-25.65
-23.14
-18.79
-13.04
-6.62
-0.32
5.25
9.81
13.3
15.87
17.62
18.71
19.18
19.15
18.75
18.14
17.49
16.89
16.36
15.88
15.38
14.8
14.11
13.3
12.38
11.42
10.47
9.53
8.57
7.52
6.28
4.78
3.06
1.17
-0.8
-2.8
-4.82
-6.86
-8.92
-10.97
-12.98
-14.95
-16.94
-18.99
-21.12
-23.27
-25.36
-27.26
-28.82
-29.8
-29.9
-28.78
-26.22
-22.26
-17.18
-11.53
-5.88
-0.76
3.53
6.84
9.1
10.31
10.59
10.19
9.5
8.92
8.69
8.8
8.99
8.95
8.47
7.55
6.4
5.28
4.4
3.79
3.37
3.01
2.59
2.05
1.39
0.61
-0.29
-1.3
-2.39
-3.51
-4.66
-5.8
-6.9
-7.95
-8.92
-9.82
-10.65
-11.47
-12.34
-13.39
-14.73
-16.47
-18.58
-20.91
-23.03
-24.45
-24.66
-23.34
-20.46
-16.28
-11.24
-5.8
-0.43
4.54
8.77
12.07
14.37
15.75
16.42
16.64
16.58
16.27
15.67
14.74
13.51
12.16
10.91
9.97
9.44
9.3
9.39
9.54
9.6
9.51
9.27
8.9
8.42
7.79
6.92
5.75
4.26
2.54
0.7
-1.14
-2.94
-4.73
-6.53
-8.34
-10.12
-11.81
-13.4
-14.97
-16.58
-18.2
-19.63
-20.5
-20.39
-18.99
-16.21
-12.22
-7.38
-2.15
3.02
7.73
11.68
14.66
16.62
17.62
17.81
17.39
16.57
15.55
14.48
13.55
12.85
12.46
12.34
12.35
12.32
12.08
11.53
10.67
9.62
8.48
7.33
6.19
4.97
3.6
2.02
0.26
-1.59
-3.41
-5.1
-6.61
-7.98
-9.32
-10.72
-12.29
-14.09
-16.11
-18.3
-20.55
-22.59
-24.08
-24.59
-23.71
-21.22
-17.18
-11.98
-6.24
-0.58
4.52
8.82
12.32
15.05
17.03
18.23
18.64
18.34
17.55
16.55
15.62
14.9
14.44
14.17
14.0
13.88
13.75
13.57
13.29
12.8
12.0
10.83
9.3
7.52
5.7
4.09
2.82
1.87
1.04
0.02
-1.41
-3.35
-5.67
-8.16
-10.59
-12.85
-14.9
-16.82
-18.69
-20.6
-22.62
-24.74
-26.86
-28.68
-29.74
-29.51
-27.55
-23.75
-18.33
-11.83
-4.98
1.54
7.18
11.63
14.76
16.65
17.51
17.64
17.34
16.83
16.24
15.62
14.95
14.26
13.57
12.9
12.26
11.65
11.05
10.44
9.79
9.06
8.16
7.01
5.6
3.93
2.1
0.22
-1.65
-3.53
-5.41
-7.28
-9.07
-10.7
-12.12
-13.36
-14.53
-15.74
-17.01
-18.36
-19.75
-21.23
-22.91
-24.95
-27.33
-29.83
-31.89
-32.8
-31.96
-29.09
-24.42
-18.58
-12.36
-6.44
-1.18
3.35
7.27
10.64
13.4
15.42
16.57
16.89
16.57
15.87
15.04
14.23
13.47
12.81
12.28
11.98
11.99
12.3
12.8
13.3
13.56
13.42
12.78
11.63
10.05
8.18
6.17
4.18
2.33
0.69
-0.72
-1.97
-3.11
-4.23
-5.4
-6.72
-8.31
-10.29
-12.68
-15.36
-17.99
-20.03
-20.94
-20.29
-17.89
-13.93
-8.85
-3.22
2.38
7.53
11.94
15.49
18.12
19.85
20.72
20.77
20.14
18.99
17.6
16.28
15.3
14.77
14.61
14.61
14.47
14.05
13.3
12.34
11.32
10.34
9.37
8.31
7.07
5.63
4.02
2.28
0.46
-1.42
-3.33
-5.25
-7.1
-8.86
-10.55
-12.3
-14.24
-16.51
-19.1
-21.84
-24.37
-26.16
-26.71
-25.6
-22.74
-18.28
-12.7
-6.56
-0.42
5.26
10.19
14.19
17.23
19.33
20.58
21.09
20.98
20.35
19.31
18.0
16.58
15.3
14.32
13.69
13.32
13.05
12.7
12.23
11.71
11.21
10.79
10.36
9.74
8.76
7.33
5.48
3.3
0.94
-1.5
-3.92
-6.25
-8.42
-10.41
-12.24
-14.0
-15.83
-17.89
-20.32
-23.12
-26.13
-28.89
-30.81
-31.25
-29.75
-26.26
-21.1
-14.92
-8.43
-2.2
3.42
8.31
12.42
15.7
18.11
19.6
20.2
20.08
19.43
18.47
17.36
16.23
15.13
14.12
13.26
12.62
12.19
11.89
11.58
11.06
10.19
8.89
7.19
5.17
2.97
0.7
-1.54
-3.71
-5.83
-7.99
-10.24
-12.57
-14.87
-17.02
-18.88
-20.48
-21.97
-23.63
-25.71
-28.28
-31.14
-33.78
-35.56
-35.85
-34.24
-30.66
-25.44
-19.17
-12.57
-6.27
-0.64
4.13
8.0
10.98
13.06
14.28
14.75
14.65
14.24
13.74
13.33
13.06
12.94
12.94
13.03
13.1
13.06
12.81
12.33
11.66
10.91
10.13
9.28
8.18
6.67
4.65
2.18
-0.48
-3.01
-5.15
-6.76
-7.94
-8.94
-10.04
-11.49
-13.39
-15.67
-18.11
-20.33
-21.89
-22.33
-21.27
-18.55
-14.29
-8.89
-2.97
2.8
7.88
11.98
15.04
17.14
18.36
18.81
18.54
17.73
16.62
15.5
14.65
14.13
13.89
13.77
13.63
13.44
13.25
13.13
13.0
12.67
11.94
10.65
8.85
6.72
4.52
2.44
0.58
-1.12
-2.7
-4.26
-5.89
-7.73
-9.96
-12.66
-15.75
-18.82
-21.23
-22.29
-21.5
-18.76
-14.42
-9.11
-3.55
1.71
6.37
10.36
13.75
16.56
18.73
20.14
20.68
20.37
19.39
18.02
16.61
15.38
14.45
13.77
13.23
12.71
12.14
11.51
10.83
10.12
9.36
8.5
7.51
6.34
4.93
3.26
1.32
-0.85
-3.22
-5.63
-7.96
-10.07
-11.92
-13.58
-15.23
-17.08
-19.26
-21.68
-24.04
-25.9
-26.71
-26.05
-23.69
-19.66
-14.26
-7.98
-1.43
4.8
10.19
14.43
17.4
19.16
19.9
19.83
19.22
18.29
17.25
16.24
15.37
14.66
14.06
13.5
12.9
12.2
11.38
10.48
9.55
8.66
7.8
6.92
5.92
4.69
3.18
1.41
-0.53
-2.58
-4.67
-6.8
-8.92
-10.98
-12.88
-14.59
-16.17
-17.78
-19.65
-21.89
-24.48
-27.22
-29.75
-31.6
-32.3
-31.48
-28.96
-24.83
-19.49
-13.54
-7.63
-2.3
2.19
5.77
8.54
10.59
11.92
12.52
12.45
11.91
11.18
10.58
10.25
10.18
10.23
10.21
10.03
9.67
9.18
8.63
8.03
7.37
6.6
5.73
4.75
3.69
2.57
1.42
0.21
-1.08
-2.5
-4.06
-5.74
-7.44
-8.99
-10.23
-11.16
-11.93
-12.77
-13.96
-15.6
-17.57
-19.53
-21.04
-21.63
-20.96
-18.86
-15.38
-10.83
-5.64
-0.34
4.61
8.87
12.28
14.82
16.51
17.42
17.65
17.34
16.68
15.9
15.17
14.64
14.31
14.21
14.3
14.56
14.9
15.14
15.08
14.52
13.41
11.82
9.98
8.12
6.38
4.76
3.2
1.59
-0.15
-1.96
-3.8
-5.54
-7.11
-8.49
-9.69
-10.79
-11.96
-13.36
-15.14
-17.27
-19.51
-21.45
-22.55
-22.32
-20.48
-17.02
-12.23
-6.6
-0.75
4.75
9.44
13.08
15.59
17.08
17.76
17.88
17.68
17.34
16.99
16.61
16.16
15.55
14.73
13.77
12.82
12.03
11.48
11.13
10.78
10.29
9.58
8.71
7.76
6.78
5.7
4.39
2.71
0.7
-1.47
-3.53
-5.31
-6.79
-8.12
-9.47
-10.94
-12.53
-14.16
-15.81
-17.53
-19.42
-21.54
-23.81
-25.97
-27.56
-28.1
-27.15
-24.49
-20.2
-14.69
-8.58
-2.52
2.97
7.62
11.4
14.34
16.5
17.84
18.34
18.06
17.17
15.92
14.56
13.27
12.17
11.32
10.72
10.35
10.11
9.83
9.37
8.66
7.75
6.75
5.69
4.5
3.0
1.06
-1.28
-3.83
-6.33
-8.56
-10.51
-12.26
-13.95
-15.65
-17.36
-18.98
-20.43
-21.7
-22.84
-23.97
-25.22
-26.68
-28.34
-30.06
-31.45
-32.0
-31.18
-28.66
-24.45
-18.92
-12.67
-6.33
-0.41
4.77
9.07
12.45
14.9
16.44
17.12
17.04
16.38
15.32
14.09
12.91
12.01
11.55
11.55
11.92
12.47
12.98
13.29
13.37
13.2
12.77
12.04
10.96
9.56
7.93
6.19
4.42
2.62
0.76
-1.12
-2.93
-4.54
-5.86
-6.92
-7.89
-9.0
-10.45
-12.3
-14.52
-16.97
-19.35
-21.27
-22.24
-21.82
-19.73
-15.98
-10.9
-5.05
0.95
6.56
11.35
15.1
17.75
19.41
20.24
20.44
20.13
19.37
18.22
16.81
15.39
14.28
13.73
13.8
14.3
14.85
15.11
14.83
14.01
12.78
11.32
9.76
8.14
6.43
4.62
2.69
0.62
-1.55
-3.8
-6.06
-8.29
-10.48
-12.66
-14.88
-17.12
-19.31
-21.34
-23.17
-24.9
-26.69
-28.57
-30.31
-31.27
-30.67
-27.86
-22.7
-15.71
-7.86
-0.26
6.29
11.42
15.16
17.75
19.42
20.36
20.66
20.47
19.95
19.29
18.63
18.08
17.67
17.4
17.2
17.0
16.68
16.17
15.47
14.63
13.73
12.82
11.87
10.82
9.57
8.1
6.39
4.45
2.33
0.05
-2.31
-4.67
-6.95
-9.09
-11.14
-13.18
-15.32
-17.62
-20.09
-22.72
-25.44
-28.11
-30.44
-31.97
-32.19
-30.69
-27.37
-22.5
-16.61
-10.33
-4.24
1.25
5.88
9.49
11.99
13.39
13.82
13.54
12.85
11.97
11.08
10.22
9.45
8.76
8.19
7.75
7.45
7.26
7.16
7.1
7.02
6.81
6.38
5.68
4.76
3.69
2.58
1.43
0.16
-1.33
-3.08
-5.0
-6.92
-8.67
-10.17
-11.49
-12.81
-14.28
-16.06
-18.19
-20.62
-23.22
-25.75
-27.85
-29.02
-28.76
-26.73
-22.88
-17.51
-11.25
-4.79
1.3
6.66
11.23
15.04
18.15
20.52
22.03
22.57
22.11
20.83
19.07
17.28
15.84
15.02
14.85
15.16
15.7
16.17
16.39
16.27
15.78
14.92
13.72
12.27
10.66
9.05
7.52
6.02
4.46
2.71
0.66
-1.61
-3.98
-6.31
-8.55
-10.73
-12.95
-15.31
-17.83
-20.41
-22.79
-24.53
-25.1
-24.02
-21.02
-16.26
-10.2
-3.58
2.87
8.6
13.31
16.96
19.6
21.37
22.39
22.78
22.63
22.03
21.07
19.87
18.57
17.33
16.29
15.47
14.82
14.23
13.6
12.91
12.16
11.31
10.29
9.01
7.41
5.47
3.22
0.68
-2.04
-4.82
-7.45
-9.7
-11.42
-12.69
-13.79
-15.12
-16.99
-19.55
-22.62
-25.81
-28.6
-30.47
-31.0
-29.9
-27.07
-22.67
-17.06
-10.79
-4.47
1.39
6.41
10.47
13.58
15.88
17.5
18.49
18.86
18.55
17.55
16.02
14.25
12.62
11.44
10.84
10.67
10.63
10.39
9.75
8.64
7.16
5.41
3.52
1.57
-0.37
-2.18
-3.79
-5.2
-6.5
-7.85
-9.38
-11.16
-13.15
-15.25
-17.37
-19.43
-21.37
-23.2
-24.97
-26.78
-28.71
-30.67
-32.36
-33.26
-32.8
-30.6
-26.64
-21.24
-14.98
-8.44
-2.07
3.79
8.85
12.86
15.61
17.02
17.25
16.68
15.77
14.91
14.37
14.2
14.33
14.62
14.95
15.25
15.46
15.56
15.58
15.49
15.28
14.87
14.16
13.12
11.75
10.16
8.47
6.78
5.13
3.47
1.72
-0.17
-2.22
-4.36
-6.54
-8.69
-10.8
-12.86
-14.76
-16.27
-17.05
-16.79
-15.24
-12.36
-8.33
-3.47
1.82
7.13
12.1
16.39
19.74
21.96
23.01
22.96
22.04
20.55
18.84
17.22
15.95
15.15
14.83
14.88
15.09
15.25
15.19
14.82
14.11
13.13
11.95
10.66
9.29
7.85
6.32
4.65
2.78
0.66
-1.66
-4.11
-6.59
-8.97
-11.19
-13.22
-15.15
-17.06
-19.06
-21.24
-23.55
-25.82
-27.76
-28.92
-28.85
-27.17
-23.7
-18.59
-12.31
-5.58
0.81
6.24
10.44
13.45
15.48
16.8
17.52
17.66
17.2
16.27
15.13
14.1
13.4
13.07
12.91
12.66
12.18
11.48
10.73
10.1
9.61
9.15
8.48
7.41
5.87
3.93
1.77
-0.46
-2.62
-4.66
-6.58
-8.41
-10.19
-11.95
-13.66
-15.27
-16.74
-18.04
-19.26
-20.52
-22.0
-23.82
-25.98
-28.33
-30.54
-32.17
-32.71
-31.79
-29.16
-24.91
-19.4
-13.23
-7.1
-1.62
2.82
6.06
8.17
9.36
9.95
10.2
10.36
10.58
10.86
11.15
11.34
11.35
11.15
10.81
10.43
10.13
9.99
10.06
10.3
10.55
10.6
10.22
9.25
7.72
5.84
3.94
2.33
1.13
0.23
-0.61
-1.63
-2.92
-4.37
-5.78
-7.02
-8.07
-9.03
-10.08
-11.36
-12.91
-14.7
-16.58
-18.28
-19.45
-19.73
-18.85
-16.72
-13.45
-9.35
-4.77
-0.07
4.43
8.45
11.72
14.1
15.58
16.28
16.45
16.31
15.98
15.51
14.92
14.26
13.61
13.06
12.66
12.37
12.09
11.69
11.06
10.11
8.88
7.47
6.05
4.78
3.78
2.98
2.23
1.34
0.21
-1.17
-2.66
-4.14
-5.56
-6.97
-8.46
-10.1
-11.89
-13.76
-15.7
-17.67
-19.61
-21.32
-22.49
-22.64
-21.37
-18.5
-14.21
-8.97
-3.48
1.67
6.07
9.6
12.3
14.3
15.69
16.46
16.58
16.07
15.1
13.97
12.97
12.34
12.1
12.1
12.05
11.74
11.11
10.28
9.44
8.71
8.07
7.37
6.46
5.27
3.86
2.33
0.77
-0.82
-2.45
-4.11
-5.67
-7.04
-8.15
-9.11
-10.15
-11.51
-13.37
-15.68
-18.26
-20.88
-23.25
-25.11
-26.19
-26.21
-24.94
-22.32
-18.51
-13.86
-8.85
-3.93
0.53
4.36
7.49
9.97
11.85
13.21
14.04
14.39
14.27
13.8
13.16
12.56
12.11
11.85
11.67
11.45
11.14
10.78
10.44
10.18
9.91
9.45
8.62
7.34
5.65
3.7
1.64
-0.45
-2.55
-4.69
-6.93
-9.22
-11.58
-13.98
-16.39
-18.78
-21.03
-23.08
-24.93
-26.69
-28.54
-30.6
-32.83
-34.94
-36.43
-36.74
-35.42
-32.29
-27.52
-21.56
-15.06
-8.67
-2.92
1.87
5.67
8.6
10.86
12.58
13.84
14.64
14.95
14.85
14.44
13.9
13.38
13.0
12.85
12.92
13.12
13.32
13.32
13.01
12.35
11.43
10.34
9.17
7.89
6.4
4.7
2.84
0.97
-0.73
-2.19
-3.41
-4.49
-5.53
-6.53
-7.49
-8.44
-9.55
-11.02
-13.0
-15.41
-17.86
-19.8
-20.58
-19.78
-17.32
-13.45
-8.66
-3.49
1.6
6.3
10.46
14.02
16.91
19.06
20.37
20.8
20.46
19.55
18.39
17.25
16.27
15.44
14.72
14.09
13.67
13.56
13.8
14.27
14.67
14.65
14.04
12.84
11.19
9.34
7.46
5.63
3.87
2.19
0.6
-0.91
-2.38
-3.93
-5.69
-7.77
-10.23
-13.08
-16.25
-19.6
-22.85
-25.6
-27.42
-27.87
-26.66
-23.71
-19.15
-13.31
-6.71
0.03
6.27
11.49
15.45
18.18
19.93
21.03
21.73
22.06
21.96
21.35
20.3
18.98
17.65
16.54
15.74
15.25
14.94
14.64
14.17
13.38
12.17
10.58
8.72
6.76
4.83
2.9
0.94
-1.13
-3.3
-5.5
-7.58
-9.47
-11.17
-12.69
-14.13
-15.6
-17.23
-19.16
-21.53
-24.36
-27.48
-30.57
-33.19
-34.83
-35.1
-33.77
-30.76
-26.25
-20.61
-14.42
-8.3
-2.79
1.78
5.38
8.15
10.26
11.81
12.77
13.11
12.9
12.33
11.68
11.16
10.88
10.8
10.81
10.82
10.79
10.69
10.52
10.22
9.69
8.87
7.78
6.47
5.06
3.67
2.36
1.16
0.01
-1.18
-2.52
-4.09
-5.86
-7.74
-9.63
-11.42
-13.1
-14.74
-16.48
-18.44
-20.58
-22.72
-24.51
-25.49
-25.26
-23.57
-20.39
-15.94
-10.62
-4.9
0.75
5.97
10.51
14.24
17.09
19.05
20.15
20.49
20.27
19.75
19.22
18.92
18.94
19.26
19.68
20.01
20.04
19.71
19.01
18.04
16.89
15.68
14.47
13.23
11.86
10.26
8.35
6.15
3.81
1.49
-0.66
-2.57
-4.29
-5.94
-7.64
-9.53
-11.69
-14.21
-17.03
-19.98
-22.64
-24.49
-25.02
-23.89
-21.11
-16.96
-11.94
-6.53
-1.12
4.01
8.64
12.59
15.71
17.89
19.16
19.6
19.4
18.75
17.86
16.9
16.04
15.41
15.04
14.91
14.89
14.8
14.49
13.82
12.76
11.4
9.91
8.49
7.25
6.23
5.27
4.17
2.73
0.84
-1.48
-4.08
-6.81
-9.49
-11.94
-14.05
-15.81
-17.34
-18.91
-20.85
-23.29
-26.09
-28.72
-30.44
-30.57
-28.7
-24.87
-19.51
-13.27
-6.82
-0.71
4.66
9.09
12.48
14.87
16.41
17.28
17.66
17.66
17.32
16.63
15.64
14.47
13.33
12.43
11.87
11.66
11.68
11.78
11.86
11.88
11.8
11.55
11.03
10.06
8.54
6.5
4.06
1.46
-1.13
-3.64
-6.1
-8.6
-11.13
-13.62
-15.94
-18.01
-19.93
-21.93
-24.3
-27.21
-30.54
-33.92
-36.76
-38.45
-38.53
-36.76
-33.18
-28.09
-22.0
-15.51
-9.25
-3.66
1.02
4.81
7.85
10.31
12.2
13.41
13.86
13.6
12.86
12.04
11.45
11.26
11.4
11.65
11.85
11.93
11.97
12.02
12.05
11.93
11.44
10.48
9.07
7.39
5.63
3.96
2.41
0.95
-0.46
-1.86
-3.2
-4.47
-5.61
-6.64
-7.64
-8.73
-10.11
-11.94
-14.24
-16.85
-19.34
-21.14
-21.66
-20.54
-17.73
-13.48
-8.28
-2.65
2.94
8.15
12.76
16.6
19.59
21.64
22.74
22.92
22.3
21.1
19.63
18.19
17.03
16.26
15.82
15.58
15.42
15.25
15.07
14.88
14.62
14.17
13.41
12.22
10.59
8.6
6.37
4.07
1.83
-0.27
-2.21
-4.04
-5.88
-7.78
-9.79
-11.89
-14.04
-16.29
-18.64
-21.08
-23.39
-25.15
-25.8
-24.85
-22.05
-17.54
-11.8
-5.51
0.64
6.16
10.79
14.47
17.28
19.31
20.71
21.54
21.91
21.85
21.39
20.58
19.47
18.14
16.74
15.41
14.3
13.5
13.02
12.76
12.51
12.06
11.19
9.8
7.93
5.69
3.32
1.0
-1.16
-3.15
-5.09
-7.07
-9.2
-11.47
-13.81
-16.09
-18.2
-20.12
-21.89
-23.67
-25.63
-27.87
-30.34
-32.75
-34.61
-35.33
-34.46
-31.76
-27.33
-21.59
-15.15
-8.65
-2.63
2.55
6.76
9.97
12.26
13.7
14.36
14.33
13.75
12.8
11.72
10.71
9.91
9.33
8.91
8.53
8.1
7.56
6.94
6.28
5.63
4.96
4.23
3.31
2.18
0.84
-0.61
-2.02
-3.26
-4.28
-5.17
-6.11
-7.25
-8.68
-10.32
-12.0
-13.52
-14.84
-16.05
-17.37
-19.0
-20.97
-23.08
-24.92
-25.97
-25.76
-23.99
-20.58
-15.73
-9.83
-3.42
2.93
8.7
13.51
17.14
19.5
20.62
20.66
19.86
18.6
17.26
16.22
15.7
15.74
16.23
16.92
17.55
17.87
17.71
17.04
15.97
14.72
13.48
12.39
11.37
10.25
8.85
7.06
4.95
2.68
0.42
-1.74
-3.8
-5.82
-7.86
-9.92
-12.01
-14.17
-16.45
-18.88
-21.33
-23.49
-24.85
-24.84
-23.1
-19.54
-14.46
-8.44
-2.15
3.81
9.01
13.24
16.45
18.64
19.88
20.24
19.9
19.06
18.0
16.97
16.12
15.48
14.98
14.45
13.78
12.92
11.92
10.89
9.97
9.19
8.53
7.89
7.13
6.13
4.78
3.03
0.93
-1.44
-3.95
-6.47
-8.9
-11.16
-13.21
-15.06
-16.75
-18.37
-20.13
-22.23
-24.81
-27.71
-30.51
-32.51
-32.97
-31.43
-27.81
-22.5
-16.2
-9.6
-3.27
2.46
7.45
11.59
14.82
17.04
18.27
18.65
18.45
18.01
17.57
17.23
16.94
16.55
15.92
15.01
13.93
12.82
11.84
11.02
10.24
9.31
8.06
6.43
4.53
2.51
0.53
-1.42
-3.46
-5.75
-8.32
-11.07
-13.75
-16.14
-18.17
-19.96
-21.78
-23.92
-26.53
-29.59
-32.87
-36.1
-38.89
-40.94
-41.87
-41.4
-39.28
-35.45
-30.1
-23.66
-16.77
-10.1
-4.2
0.68
4.54
7.56
9.92
11.73
12.95
13.54
13.52
13.02
12.27
11.52
10.91
10.47
10.16
9.94
9.77
9.6
9.38
9.0
8.41
7.61
6.63
5.47
4.08
2.36
0.24
-2.2
-4.75
-7.09
-9.04
-10.59
-11.94
-13.43
-15.33
-17.74
-20.53
-23.38
-25.81
-27.3
-27.4
-25.77
-22.34
-17.32
-11.16
-4.47
2.13
8.15
13.26
17.29
20.22
22.1
23.05
23.25
22.88
22.14
21.17
20.14
19.16
18.34
17.71
17.22
16.8
16.37
15.95
15.59
15.34
15.14
14.78
13.94
12.32
9.84
6.66
3.15
-0.25
-3.17
-5.47
-7.25
-8.81
-10.56
-12.88
-16.0
-19.82
-23.91
-27.55
-29.9
-30.2
-28.03
-23.44
-16.94
-9.34
-1.51
5.75
11.96
16.89
20.58
23.18
24.88
25.8
26.05
25.74
25.01
24.08
23.16
22.45
21.99
21.72
21.56
21.36
21.06
20.66
20.15
19.52
18.65
17.37
15.52
13.02
9.91
6.39
2.71
-0.83
-4.05
-6.86
-9.31
-11.55
-13.8
-16.31
-19.23
-22.62
-26.29
-29.86
-32.75
-34.28
-33.86
-31.14
-26.18
-19.43
-11.65
-3.67
3.78
10.24
15.54
19.7
22.8
24.94
26.19
26.59
26.27
25.43
24.32
23.22
22.32
21.69
21.26
20.88
20.39
19.72
18.83
17.8
16.63
15.29
13.68
11.73
9.45
6.94
4.33
1.75
-0.8
-3.34
-5.88
-8.36
-10.71
-12.85
-14.84
-16.86
-19.15
-21.95
-25.33
-29.22
-33.27
-36.91
-39.46
-40.25
-38.77
-34.92
-29.02
-21.74
-13.92
-6.34
0.41
6.04
10.48
13.77
16.05
17.47
18.17
18.31
18.01
17.41
16.67
15.93
15.32
14.93
14.72
14.6
14.44
14.17
13.8
13.41
13.04
12.66
12.13
11.26
9.93
8.15
6.04
3.82
1.63
-0.42
-2.35
-4.17
-5.93
-7.7
-9.61
-11.84
-14.52
-17.7
-21.2
-24.67
-27.6
-29.45
-29.76
-28.21
-24.69
-19.36
-12.68
-5.3
2.06
8.77
14.45
18.96
22.31
24.55
25.73
25.85
25.09
23.73
22.2
20.92
20.15
19.91
20.0
20.16
20.09
19.66
18.85
17.76
16.5
15.19
13.85
12.45
10.87
9.02
6.86
4.39
1.74
-0.97
-3.6
-6.1
-8.43
-10.62
-12.76
-15.02
-17.56
-20.47
-23.61
-26.57
-28.75
-29.49
-28.33
-25.17
-20.22
-13.94
-6.89
0.35
7.27
13.35
18.18
21.54
23.48
24.25
24.24
23.8
23.12
22.26
21.17
19.87
18.49
17.19
16.11
15.32
14.75
14.24
13.65
12.85
11.8
10.52
9.07
7.46
5.7
3.66
1.25
-1.58
-4.79
-8.12
-11.27
-13.88
-15.79
-17.06
-18.0
-19.09
-20.73
-23.19
-26.41
-30.11
-33.74
-36.67
-38.31
-38.21
-36.11
-32.05
-26.33
-19.44
-12.04
-4.75
1.86
7.48
11.9
15.12
17.19
18.25
18.45
18.03
17.22
16.29
15.49
14.89
14.47
14.04
13.4
12.46
11.27
