0
12.03
15.57
18.82
21.88
24.71
27.23
29.44
31.39
33.23
35.11
37.12
39.23
41.3
43.16
44.66
45.75
46.43
46.68
46.41
45.5
43.86
41.5
38.55
35.31
32.08
29.11
26.55
24.4
22.56
20.85
19.1
17.15
14.93
12.42
9.69
6.83
3.97
1.15
-1.61
-4.37
-7.28
-10.44
-13.96
-17.83
-21.99
-26.24
-30.37
-34.25
-37.85
-41.34
-45.08
-49.47
-54.86
-61.3
-68.4
-75.24
-80.47
-82.64
-80.61
-73.98
-63.28
-49.91
-35.69
-22.39
-11.24
-2.67
3.58
8.18
11.83
15.02
17.97
20.71
23.21
25.5
27.66
29.81
32.02
34.23
36.34
38.22
39.81
41.12
42.19
43.05
43.65
43.83
43.44
42.37
40.63
38.36
35.81
33.21
30.76
28.54
26.54
24.66
22.84
21.02
19.19
17.35
15.52
13.66
11.68
9.51
7.08
4.42
1.63
-1.19
-3.98
-6.79
-9.79
-13.15
-16.94
-21.1
-25.41
-29.58
-33.4
-36.83
-40.03
-43.32
-47.14
-51.88
-57.72
-64.46
-71.34
-77.06
-80.07
-79.01
-73.29
-63.31
-50.4
-36.44
-23.2
-11.94
-3.14
3.35
8.07
11.64
14.61
17.35
20.01
22.6
25.04
27.24
29.22
31.09
33.0
35.04
37.18
39.33
41.36
43.13
44.55
45.52
45.91
45.62
44.55
42.74
40.32
37.53
34.62
31.8
29.24
26.99
25.06
23.39
21.87
20.39
18.82
17.07
15.07
12.81
10.32
7.67
4.97
2.34
-0.14
-2.43
-4.61
-6.86
-9.43
-12.51
-16.16
-20.2
-24.31
-28.12
-31.44
-34.3
-37.01
-40.03
-43.84
-48.73
-54.66
-61.12
-67.13
-71.34
-72.39
-69.22
-61.63
-50.36
-36.97
-23.34
-11.14
-1.33
5.94
11.04
14.57
17.03
18.65
19.58
19.95
20.07
20.35
21.16
22.72
24.97
27.66
30.4
32.89
34.96
36.62
37.95
38.98
39.64
39.77
39.16
37.68
35.4
32.55
29.5
26.6
24.07
21.99
20.25
18.63
16.88
14.8
12.34
9.59
6.77
4.12
1.79
-0.31
-2.43
-4.94
-8.11
-11.96
-16.24
-20.53
-24.47
-27.89
-30.9
-33.85
-37.19
-41.29
-46.36
-52.35
-58.87
-65.1
-69.86
-71.83
-69.94
-63.72
-53.65
-41.02
-27.66
-15.29
-5.11
2.53
7.93
11.82
14.86
17.48
19.78
21.69
23.2
24.41
25.55
26.84
28.41
30.27
32.29
34.33
36.26
38.01
39.5
40.67
41.42
41.63
41.15
39.82
37.59
34.53
30.88
27.09
23.6
20.77
18.7
17.25
16.02
14.63
12.79
10.39
7.51
4.41
1.37
-1.37
-3.71
-5.76
-7.82
-10.24
-13.36
-17.28
-21.87
-26.76
-31.49
-35.66
-39.15
-42.12
-45.05
-48.56
-53.22
-59.26
-66.39
-73.67
-79.65
-82.73
-81.62
-75.77
-65.64
-52.57
-38.42
-25.04
-13.72
-4.98
1.42
6.18
10.11
13.78
17.42
20.94
24.15
26.89
29.16
31.17
33.12
35.21
37.44
39.71
41.8
43.56
44.86
45.71
46.15
46.16
45.7
44.67
43.05
40.9
38.43
35.9
33.51
31.32
29.24
27.13
24.92
22.66
20.43
18.32
16.28
14.2
11.96
9.54
7.04
4.57
2.11
-0.47
-3.46
-7.03
-11.19
-15.71
-20.22
-24.39
-28.07
-31.34
-34.45
-37.73
-41.5
-46.07
-51.63
-58.19
-65.38
-72.35
-77.78
-80.17
-78.31
-71.72
-60.96
-47.48
-33.21
-19.99
-9.01
-0.65
5.44
10.0
13.78
17.23
20.48
23.47
26.08
28.37
30.48
32.63
34.92
37.28
39.54
41.48
43.01
44.18
45.1
45.85
46.37
46.48
45.96
44.66
42.6
39.97
37.06
34.15
31.44
28.98
26.74
24.63
22.53
20.37
18.07
15.59
12.94
10.15
7.35
4.68
2.28
0.16
-1.87
-4.15
-7.06
-10.83
-15.35
-20.22
-24.9
-28.95
-32.25
-35.07
-37.93
-41.41
-45.96
-51.69
-58.35
-65.22
-71.22
-75.02
-75.35
-71.42
-63.21
-51.62
-38.26
-24.95
-13.24
-3.96
2.82
7.58
11.05
13.79
16.1
18.01
19.49
20.61
21.58
22.72
24.32
26.47
29.07
31.82
34.44
36.72
38.52
39.82
40.56
40.65
39.98
38.5
36.27
33.48
30.42
27.4
24.63
22.17
19.9
17.65
15.24
12.64
9.98
7.5
5.42
3.82
2.54
1.27
-0.4
-2.79
-5.99
-9.82
-13.96
-18.02
-21.75
-25.09
-28.27
-31.66
-35.75
-40.89
-47.13
-53.98
-60.42
-65.0
-66.26
-63.23
-55.83
-44.98
-32.32
-19.68
-8.5
0.48
7.25
12.17
15.73
18.26
19.92
20.83
21.15
21.21
21.39
22.08
23.47
25.56
28.11
30.77
33.2
35.21
36.77
37.94
38.77
39.18
38.95
37.83
35.69
32.67
29.12
25.52
22.3
19.7
17.7
16.11
14.6
12.88
10.79
8.28
5.49
2.67
0.09
-2.11
-3.97
-5.79
-7.98
-10.91
-14.73
-19.29
-24.24
-29.13
-33.61
-37.56
-41.14
-44.73
-48.8
-53.83
-60.06
-67.32
-74.82
-81.22
-84.87
-84.32
-78.83
-68.76
-55.45
-40.85
-26.88
-14.94
-5.62
1.24
6.27
10.2
13.66
17.02
20.37
23.66
26.75
29.53
32.0
34.28
36.52
38.8
41.1
43.27
45.13
46.53
47.42
47.79
47.66
47.04
45.91
44.24
42.05
39.42
36.49
33.45
30.52
27.87
25.57
23.57
21.68
19.67
17.35
14.64
11.67
8.65
5.8
3.22
0.82
-1.64
-4.45
-7.85
-11.94
-16.6
-21.55
-26.38
-30.7
-34.32
-37.34
-40.15
-43.35
-47.55
-53.12
-60.0
-67.56
-74.63
-79.66
-81.14
-78.08
-70.35
-58.8
-45.07
-31.08
-18.45
-8.08
-0.11
5.9
10.63
14.62
18.21
21.51
24.52
27.24
29.76
32.15
34.53
36.9
39.24
41.42
43.34
45.0
46.42
47.69
48.8
49.62
49.89
49.34
47.83
45.49
42.66
39.77
37.16
34.91
32.92
30.96
28.89
26.7
24.48
22.35
20.39
18.56
16.77
14.89
12.84
10.55
7.97
5.1
2.04
-1.09
-4.11
-6.97
-9.79
-12.84
-16.38
-20.49
-25.01
-29.53
-33.63
-37.07
-39.91
-42.55
-45.55
-49.5
-54.79
-61.46
-69.02
-76.46
-82.31
-85.0
-83.32
-76.81
-66.03
-52.43
-37.92
-24.35
-12.97
-4.24
2.13
6.83
10.63
14.08
17.41
20.57
23.43
25.91
28.08
30.12
32.23
34.48
36.85
39.18
41.3
43.09
44.53
45.61
46.3
46.48
45.99
44.69
42.6
39.92
37.01
34.24
31.88
29.98
28.42
26.98
25.46
23.79
22.0
20.21
18.53
16.98
15.44
13.75
11.7
9.19
6.32
3.28
0.36
-2.27
-4.66
-7.04
-9.76
-13.08
-17.03
-21.44
-25.97
-30.29
-34.18
-37.55
-40.54
-43.42
-46.62
-50.63
-55.86
-62.39
-69.7
-76.66
-81.71
-83.23
-80.14
-72.33
-60.65
-46.76
-32.51
-19.53
-8.76
-0.5
5.55
9.92
13.2
15.86
18.17
20.28
22.27
24.16
26.01
27.91
29.94
32.16
34.51
36.87
39.09
41.01
42.53
43.6
44.14
44.07
43.3
41.78
39.62
37.04
34.37
31.92
29.86
28.14
26.57
24.93
23.11
21.17
19.28
17.61
16.22
14.95
13.53
11.71
9.39
6.64
3.7
0.81
-1.88
-4.39
-6.87
-9.56
-12.63
-16.19
-20.13
-24.24
-28.2
-31.77
-34.84
-37.53
-40.22
-43.38
-47.44
-52.61
-58.6
-64.65
-69.57
-72.01
-70.84
-65.49
-56.24
-44.2
-30.97
-18.23
-7.27
1.3
7.51
11.78
14.65
16.52
17.63
18.16
18.36
18.61
19.26
20.59
22.61
25.08
27.69
30.13
32.29
34.15
35.76
37.06
37.89
37.97
37.08
35.15
32.3
28.9
25.38
22.17
19.54
17.51
15.9
14.37
12.61
10.39
7.74
4.83
1.97
-0.63
-2.94
-5.13
-7.55
-10.55
-14.33
-18.8
-23.59
-28.2
-32.2
-35.53
-38.44
-41.49
-45.33
-50.42
-56.87
-64.26
-71.66
-77.7
-80.8
-79.64
-73.58
-63.01
-49.35
-34.67
-21.0
-9.74
-1.3
4.75
9.26
13.0
16.41
19.55
22.35
24.77
26.92
28.99
31.1
33.28
35.45
37.54
39.53
41.48
43.48
45.52
47.47
49.03
49.89
49.72
48.42
46.06
42.91
39.38
35.87
32.77
30.29
28.5
27.26
26.31
25.29
23.88
21.91
19.45
16.74
14.14
11.88
9.96
8.13
5.99
3.17
-0.42
-4.59
-8.92
-13.01
-16.68
-20.02
-23.45
-27.49
-32.67
-39.26
-47.18
-55.83
-64.11
-70.56
-73.75
-72.64
-67.05
-57.68
-46.02
-33.78
-22.48
-13.03
-5.69
-0.22
3.83
6.94
9.48
11.71
13.81
15.85
17.84
19.75
21.58
23.35
25.11
26.92
28.78
30.63
32.36
33.85
35.01
35.73
35.91
35.42
34.14
32.07
29.38
26.36
23.44
20.95
19.04
17.58
16.19
14.48
12.19
9.37
6.38
3.73
1.74
0.39
-0.76
-2.36
-4.98
-8.85
-13.71
-18.99
-24.07
-28.53
-32.28
-35.59
-38.9
-42.7
-47.42
-53.28
-60.23
-67.75
-74.78
-79.89
-81.58
-78.77
-71.25
-59.8
-45.98
-31.7
-18.64
-7.85
0.34
6.27
10.6
14.05
17.1
19.97
22.63
24.97
26.96
28.71
30.43
32.29
34.37
36.51
38.53
40.31
41.79
43.02
43.98
44.52
44.4
43.4
41.42
38.63
35.36
32.03
28.98
26.32
23.94
21.58
19.01
16.19
13.27
10.56
8.28
6.46
4.85
3.04
0.64
-2.55
-6.42
-10.67
-14.93
-18.89
-22.38
-25.48
-28.44
-31.7
-35.73
-40.91
-47.3
-54.39
-61.13
-66.06
-67.72
-65.12
-58.12
-47.52
-34.84
-21.83
-10.01
-0.29
7.12
12.47
16.22
18.78
20.36
21.1
21.14
20.79
20.46
20.64
21.64
23.54
26.12
28.97
31.64
33.78
35.22
35.99
36.17
35.86
35.05
33.65
31.53
28.61
24.92
20.64
16.12
11.83
8.15
5.3
3.13
1.22
-1.0
-4.0
-7.9
-12.44
-17.06
-21.21
-24.61
-27.33
-29.78
-32.49
-36.0
-40.71
-46.85
-54.28
-62.4
-70.01
-75.42
-76.98
-73.57
-65.11
-52.71
-38.33
-24.09
-11.65
-1.83
5.43
10.75
14.89
18.39
21.45
24.06
26.11
27.64
28.87
30.15
31.76
33.8
36.12
38.46
40.59
42.38
43.82
44.93
45.6
45.62
44.82
43.14
40.73
37.87
34.86
31.86
28.89
25.84
22.6
19.1
15.41
11.7
8.24
5.26
2.85
0.85
-1.15
-3.65
-7.06
-11.49
-16.69
-22.14
-27.29
-31.82
-35.73
-39.38
-43.26
-47.96
-53.84
-60.99
-68.96
-76.69
-82.65
-85.13
-82.83
-75.32
-63.34
-48.61
-33.3
-19.34
-7.9
0.77
7.21
12.23
16.6
20.72
24.65
28.2
31.23
33.71
35.77
37.65
39.56
41.55
43.58
45.5
47.16
48.48
49.45
50.09
50.38
50.2
49.37
47.73
45.22
42.01
38.47
35.05
32.14
29.88
28.07
26.33
24.24
21.55
18.33
14.84
11.46
8.47
5.92
3.63
1.26
-1.57
-5.13
-9.48
-14.4
-19.52
-24.43
-28.82
-32.62
-36.01
-39.38
-43.22
-48.02
-54.11
-61.42
-69.4
-76.88
-82.25
-83.88
-80.64
-72.37
-60.01
-45.38
-30.56
-17.3
-6.59
1.45
7.37
11.98
16.01
19.82
23.47
26.79
29.61
31.87
33.71
35.34
37.0
38.81
40.75
42.7
44.55
46.18
47.51
48.42
48.73
48.28
46.98
44.83
41.95
38.55
34.91
31.37
28.26
25.78
23.93
22.44
20.87
18.8
16.02
12.65
9.07
5.75
3.0
0.88
-0.85
-2.63
-4.91
-8.02
-12.05
-16.77
-21.72
-26.35
-30.32
-33.58
-36.5
-39.7
-43.83
-49.28
-56.0
-63.37
-70.23
-75.11
-76.57
-73.66
-66.25
-55.14
-41.86
-28.18
-15.6
-5.07
3.15
9.26
13.69
16.84
19.02
20.45
21.3
21.82
22.29
23.05
24.37
26.37
28.99
31.97
34.93
37.51
39.46
40.69
41.17
40.91
39.92
38.19
35.81
32.92
29.7
26.33
22.98
19.72
16.63
13.76
11.1
8.58
6.04
3.31
0.24
-3.21
-7.0
-10.98
-14.97
-18.82
-22.44
-25.85
-29.23
-32.93
-37.42
-43.13
-50.25
-58.44
-66.75
-73.68
-77.56
-77.04
-71.58
-61.65
-48.66
-34.5
-20.98
-9.38
-0.23
6.61
11.65
15.47
18.55
21.14
23.33
25.12
26.54
27.7
28.81
30.12
31.82
33.94
36.31
38.66
40.71
42.29
43.34
43.8
43.59
42.54
40.51
37.5
33.78
29.8
26.06
22.88
20.33
18.16
16.01
13.54
10.61
7.31
3.86
0.5
-2.65
-5.67
-8.78
-12.26
-16.27
-20.78
-25.57
-30.3
-34.71
-38.73
-42.56
-46.66
-51.58
-57.75
-65.22
-73.44
-81.2
-86.8
-88.54
-85.21
-76.65
-63.81
-48.53
-32.95
-18.86
-7.29
1.59
8.25
13.41
17.71
21.56
25.1
28.31
31.12
33.51
35.57
37.48
39.45
41.62
43.98
46.38
48.55
50.3
51.5
52.16
52.29
51.85
50.73
48.8
46.05
42.65
38.95
35.37
32.24
29.7
27.64
25.76
23.71
21.18
18.12
14.67
11.16
7.97
5.35
3.25
1.35
-0.86
-3.87
-7.89
-12.82
-18.22
-23.56
-28.42
-32.64
-36.39
-40.04
-44.08
-48.98
-55.05
-62.27
-70.15
-77.58
-82.99
-84.66
-81.38
-72.86
-60.03
-44.76
-29.27
-15.44
-4.32
3.98
10.01
14.56
18.32
21.63
24.6
27.22
29.51
31.56
33.54
35.53
37.54
39.49
41.29
42.91
44.4
45.86
47.3
48.61
49.51
49.63
48.69
46.58
43.42
39.56
35.44
31.52
28.11
25.36
23.18
21.34
19.46
17.27
14.65
11.66
8.58
5.67
3.06
0.67
-1.77
-4.6
-8.02
-12.02
-16.36
-20.66
-24.62
-28.05
-31.03
-33.85
-36.92
-40.75
-45.74
-52.06
-59.45
-67.11
-73.73
-77.73
-77.69
-72.83
-63.31
-50.29
-35.59
-21.14
-8.49
1.54
8.87
13.93
17.26
19.32
20.38
20.65
20.4
20.01
19.94
20.6
22.19
24.65
27.68
30.87
33.83
36.26
38.03
39.07
39.36
38.9
37.63
35.57
32.78
29.44
25.81
22.17
18.7
15.46
12.43
9.56
6.83
4.27
1.89
-0.45
-2.99
-6.01
-9.69
-13.97
-18.53
-22.96
-26.92
-30.37
-33.57
-37.0
-41.2
-46.61
-53.39
-61.27
-69.4
-76.43
-80.73
-80.79
-75.81
-65.97
-52.5
-37.35
-22.54
-9.67
0.48
7.92
13.18
16.98
19.9
22.21
23.95
25.08
25.66
25.95
26.36
27.33
29.07
31.5
34.29
37.0
39.28
40.97
42.06
42.6
42.53
41.71
39.98
37.3
33.86
30.04
26.25
22.78
19.67
16.78
13.89
10.86
7.74
4.69
1.87
-0.68
-3.13
-5.81
-9.05
-13.02
-17.67
-22.69
-27.68
-32.3
-36.47
-40.44
-44.69
-49.82
-56.3
-64.24
-73.21
-82.12
-89.42
-93.35
-92.47
-86.18
-74.96
-60.33
-44.38
-29.13
-15.98
-5.48
2.59
8.82
13.83
17.99
21.49
24.43
26.94
29.19
31.37
33.63
36.02
38.52
41.1
43.7
46.25
48.65
50.74
52.38
53.4
53.64
52.93
51.19
48.41
44.81
40.79
36.87
33.49
30.83
28.76
26.83
24.58
21.71
18.21
14.38
10.66
7.44
4.9
2.85
0.83
-1.73
-5.3
-10.0
-15.56
-21.37
-26.81
-31.47
-35.38
-38.98
-42.9
-47.76
-54.0
-61.67
-70.31
-78.86
-85.75
-89.15
-87.57
-80.37
-68.14
-52.6
-36.06
-20.68
-7.9
1.85
8.92
14.1
18.15
21.61
24.73
27.57
30.1
32.33
34.34
36.3
38.35
40.57
42.89
45.18
47.26
49.02
50.42
51.44
51.98
51.85
50.83
48.79
45.83
42.25
38.5
34.96
31.86
29.15
26.59
23.9
20.9
17.63
14.29
11.19
8.55
6.33
4.25
1.87
-1.19
-5.08
-9.6
-14.31
-18.77
-22.71
-26.14
-29.41
-33.0
-37.39
-42.96
-49.77
-57.47
-65.16
-71.49
-74.84
-73.82
-67.79
-57.11
-43.19
-28.05
-13.68
-1.54
7.8
14.48
19.04
22.03
23.81
24.54
24.41
23.74
23.08
23.02
24.02
26.2
29.29
32.78
36.06
38.69
40.46
41.35
41.47
40.89
39.65
37.74
35.18
32.02
28.36
24.35
20.16
15.98
12.02
8.48
5.43
2.8
0.33
-2.32
-5.42
-9.1
-13.18
-17.35
-21.28
-24.79
-27.96
-31.07
-34.57
-38.91
-44.46
-51.36
-59.44
-68.0
-75.82
-81.31
-82.85
-79.36
-70.63
-57.54
-41.89
-25.85
-11.38
0.34
9.0
15.08
19.42
22.8
25.61
27.93
29.66
30.78
31.54
32.37
33.68
35.62
38.05
40.63
42.99
44.97
46.6
47.97
49.06
49.64
49.3
47.67
44.64
40.46
35.72
31.1
27.16
24.08
21.68
19.48
17.01
14.0
10.48
6.72
3.08
-0.2
-3.11
-5.87
-8.85
-12.4
-16.66
-21.54
-26.71
-31.77
-36.44
-40.71
-44.86
-49.37
-54.78
-61.47
-69.47
-78.3
-86.86
-93.55
-96.58
-94.47
-86.62
-73.68
-57.44
-40.32
-24.56
-11.59
-1.73
5.6
11.38
16.48
21.32
25.93
30.09
33.63
36.51
38.9
41.0
43.03
45.13
47.35
49.66
51.97
54.15
56.06
57.51
58.31
58.3
57.35
55.39
52.45
48.68
44.39
39.99
35.89
32.44
29.71
27.54
25.62
23.55
21.1
18.19
14.95
11.58
8.29
5.25
2.47
-0.1
-2.67
-5.53
-8.99
-13.29
-18.39
-24.04
-29.77
-35.11
-39.77
-43.79
-47.48
-51.41
-56.15
-62.19
-69.69
-78.28
-86.92
-93.94
-97.43
-95.75
-88.2
-75.35
-58.92
-41.31
-24.85
-11.13
-0.75
6.64
11.91
16.01
19.67
23.2
26.63
29.83
32.69
35.26
37.67
40.06
42.47
44.82
47.02
49.02
50.82
52.46
53.89
54.92
55.26
54.66
53.01
50.37
46.98
43.16
39.24
35.55
32.3
29.6
27.38
25.39
23.31
20.86
17.94
14.67
11.31
8.15
5.38
3.0
0.84
-1.43
-4.17
-7.66
-11.97
-16.93
-22.16
-27.18
-31.66
-35.49
-38.89
-42.31
-46.29
-51.28
-57.49
-64.72
-72.27
-78.84
-82.83
-82.69
-77.5
-67.4
-53.58
-37.97
-22.6
-9.05
1.9
10.14
16.0
19.93
22.27
23.31
23.37
22.83
22.22
22.04
22.75
24.58
27.52
31.3
35.41
39.31
42.52
44.79
46.01
46.24
45.52
43.89
41.36
38.07
34.26
30.32
26.64
23.44
20.71
18.16
15.45
12.32
8.79
5.15
1.77
-1.07
-3.38
-5.45
-7.79
-10.84
-14.81
-19.54
-24.62
-29.53
-33.96
-37.86
-41.55
-45.51
-50.3
-56.34
-63.71
-72.02
-80.24
-86.82
-89.99
-88.22
-80.84
-68.32
-52.28
-35.0
-18.74
-5.05
5.44
12.98
18.29
22.11
24.94
26.98
28.32
29.13
29.73
30.58
32.13
34.54
37.69
41.14
44.37
46.98
48.86
50.15
51.05
51.62
51.69
50.87
48.82
45.46
41.05
36.2
31.57
27.69
24.73
22.5
20.57
18.43
15.76
12.44
8.67
4.82
1.27
-1.74
-4.26
-6.63
-9.37
-12.92
-17.51
-23.01
-29.04
-35.11
-40.76
-45.76
-50.13
-54.17
-58.4
-63.42
-69.75
-77.54
-86.3
-94.8
-101.16
-103.35
-99.84
-90.19
-75.32
-57.29
-38.65
-21.71
-7.86
2.55
10.04
15.55
19.98
23.91
27.6
31.07
34.32
37.35
40.22
42.98
45.66
48.26
50.73
53.06
55.18
57.06
58.59
59.67
60.2
60.04
59.09
57.25
54.5
50.96
46.91
42.73
38.8
35.39
32.56
30.2
28.1
26.01
23.75
21.16
18.15
14.74
11.03
7.27
3.7
0.47
-2.49
-5.47
-8.89
-13.03
-17.93
-23.35
-28.91
-34.26
-39.15
-43.58
-47.72
-51.91
-56.56
-62.16
-68.99
-76.91
-85.05
-91.86
-95.35
-93.77
-86.26
-73.31
-56.67
-38.82
-22.12
-8.2
2.44
10.19
15.89
20.3
23.87
26.74
28.93
30.57
31.99
33.6
35.71
38.36
41.34
44.29
46.92
49.08
50.83
52.27
53.48
54.31
54.51
53.75
51.82
48.72
44.74
40.38
36.19
32.55
29.55
27.02
24.56
21.81
18.6
15.06
11.54
8.42
5.92
3.93
2.07
-0.2
-3.33
-7.45
-12.36
-17.58
-22.62
-27.15
-31.13
-34.78
-38.49
-42.71
-47.83
-54.12
-61.5
-69.39
-76.58
-81.39
-82.08
-77.46
-67.43
-53.12
-36.6
-20.24
-5.93
5.3
13.36
18.77
22.18
24.1
24.76
24.38
23.26
21.98
21.25
21.64
23.44
26.47
30.23
34.09
37.53
40.2
42.0
42.92
43.01
42.28
40.74
38.39
35.25
31.36
26.84
21.87
16.76
11.89
7.59
4.05
1.2
-1.25
-3.71
-6.56
-9.94
-13.81
-17.95
-22.09
-26.05
-29.83
-33.55
-37.52
-42.05
-47.5
-54.15
-62.05
-70.76
-79.29
-86.02
-89.1
-86.99
-79.05
-65.9
-49.31
-31.64
-15.19
-1.49
8.88
16.2
21.18
24.55
26.85
28.37
29.34
30.0
30.67
31.72
33.38
35.75
38.68
41.83
44.82
47.29
49.08
50.15
50.57
50.36
49.43
47.62
44.8
41.03
36.64
32.15
28.02
24.5
21.49
18.62
15.53
12.03
8.26
4.56
1.24
-1.58
-4.11
-6.81
-10.19
-14.59
-19.98
-25.97
-31.97
-37.42
-42.04
-45.94
-49.63
-53.83
-59.24
-66.35
-75.1
-84.78
-93.89
-100.36
-102.09
-97.58
-86.6
-70.38
-51.36
-32.37
-15.78
-2.8
6.57
13.21
18.27
22.65
26.8
30.77
34.46
37.77
40.75
43.53
46.25
48.98
51.64
54.09
56.16
57.77
58.96
59.88
60.64
61.16
61.15
60.19
57.92
54.29
49.59
44.43
39.48
35.29
32.08
29.75
27.9
26.04
23.72
20.71
17.07
13.11
9.27
5.87
2.97
0.3
-2.62
-6.24
-10.81
-16.18
-21.92
-27.43
-32.24
-36.13
-39.24
-42.03
-45.14
-49.24
-54.88
-62.22
-70.92
-79.93
-87.55
-91.78
-90.87
-83.92
-71.31
-54.71
-36.58
-19.39
-4.96
5.98
13.7
19.12
23.26
26.87
30.22
33.27
35.82
37.85
39.5
41.13
43.06
45.42
48.05
50.62
52.79
54.39
55.53
56.37
57.0
57.24
56.69
54.96
51.89
47.71
42.96
38.33
34.31
31.09
28.51
26.21
23.79
21.05
17.96
14.7
11.57
8.79
6.49
4.63
2.97
1.2
-0.95
-3.59
-6.63
-9.77
-12.72
-15.29
-17.49
-19.57
-21.9
-24.86
-28.78
-33.84
-39.97
-46.75
-53.32
-58.41
-60.6
-58.76
-52.54
-42.55
-30.27
-17.56
-6.07
3.2
10.02
14.68
17.7
19.45
20.16
19.95
19.02
17.75
16.65
16.28
17.0
18.9
21.7
24.87
27.77
29.91
31.02
31.2
30.69
29.75
28.45
26.64
24.08
20.63
16.43
11.85
7.38
3.41
0.1
-2.67
-5.16
-7.7
-10.54
-13.82
-17.61
-21.82
-26.25
-30.62
-34.7
-38.39
-41.86
-45.52
-49.89
-55.45
-62.45
-70.72
-79.54
-87.62
-93.26
-94.71
-90.75
-81.19
-67.03
-50.31
-33.46
-18.52
-6.6
2.25
8.71
13.63
17.6
20.8
23.14
24.59
25.39
26.04
27.12
28.99
31.66
34.78
37.83
40.4
42.32
43.64
44.45
44.79
44.48
43.27
40.97
37.62
33.53
29.13
24.86
20.95
17.39
14.01
10.62
7.14
3.66
0.34
-2.68
-5.44
-8.14
-11.1
-14.65
-18.95
-23.95
-29.37
-34.84
-40.02
-44.79
-49.3
-53.96
-59.38
-66.12
-74.45
-84.07
-93.84
-101.89
-106.03
-104.4
-96.2
-82.06
-63.95
-44.55
-26.41
-11.2
0.55
9.28
15.9
21.3
26.06
30.37
34.26
37.72
40.85
43.78
46.68
49.63
52.55
55.29
57.69
59.62
61.06
62.06
62.71
63.04
63.0
62.39
60.96
58.5
54.93
50.46
45.53
40.74
36.64
33.51
31.25
29.41
27.43
24.79
21.33
17.19
12.79
8.55
4.8
1.55
-1.43
-4.57
-8.31
-12.94
-18.45
-24.53
-30.68
-36.35
-41.22
-45.34
-49.12
-53.27
-58.53
-65.48
-74.2
-84.05
-93.65
-101.01
-104.0
-101.01
-91.53
-76.46
-57.92
-38.55
-20.76
-6.06
5.11
13.19
19.06
23.58
27.34
30.6
33.42
35.82
37.87
39.77
41.76
44.01
46.57
49.27
51.86
54.12
55.95
57.41
58.62
59.55
60.0
59.59
57.96
55.02
50.95
46.23
41.43
37.07
33.45
30.62
28.4
26.45
24.35
21.74
18.48
14.74
10.93
7.51
4.75
2.56
0.48
-2.09
-5.58
-10.1
-15.32
-20.7
-25.73
-30.11
-33.88
-37.37
-41.06
-45.42
-50.88
-57.67
-65.69
-74.4
-82.67
-88.87
-91.17
-88.13
-79.22
-65.21
-47.96
-29.98
-13.55
-0.12
9.91
17.0
21.95
25.41
27.66
28.71
28.61
27.71
26.69
26.35
27.29
29.69
33.21
37.2
40.98
44.11
46.45
48.1
49.12
49.42
48.75
46.83
43.55
39.2
34.33
29.67
25.7
22.55
19.88
17.16
13.92
10.08
5.94
2.05
-1.17
-3.64
-5.76
-8.19
-11.5
-15.96
-21.37
-27.2
-32.81
-37.79
-42.06
-45.9
-49.88
-54.66
-60.83
-68.69
-77.98
-87.63
-95.84
-100.37
-99.22
-91.4
-77.36
-59.02
-39.16
-20.56
-5.16
6.32
14.31
19.86
24.04
27.51
30.43
32.66
34.11
34.96
35.66
36.77
38.67
41.39
44.6
47.85
50.72
53.03
54.78
56.0
56.64
56.52
55.43
53.25
50.02
46.01
41.57
37.12
32.99
29.42
26.47
24.02
21.83
19.57
16.96
13.85
10.24
6.34
2.46
-1.14
-4.3
-7.14
-9.96
-13.2
-17.3
-22.45
-28.52
-35.04
-41.42
-47.12
-51.9
-55.9
-59.62
-63.8
-69.2
-76.38
-85.39
-95.55
-105.31
-112.48
-114.73
-110.37
-99.01
-81.83
-61.25
-40.2
-21.22
-5.81
5.75
14.08
20.22
25.07
29.24
33.03
36.53
39.81
42.93
45.89
48.67
51.21
53.42
55.31
56.98
58.62
60.38
62.31
64.24
65.8
66.49
65.88
63.76
60.31
56.03
51.57
47.5
44.1
41.27
38.71
36.08
33.21
30.18
27.19
24.46
22.02
19.76
17.45
14.85
11.79
8.25
4.29
0.13
-4.01
-7.93
-11.6
-15.18
-19.01
-23.46
-28.69
-34.59
-40.77
-46.69
-51.99
-56.59
-60.74
-65.01
-70.09
-76.62
-84.91
-94.65
-104.65
-112.89
-116.92
-114.65
-105.18
-89.24
-69.11
-47.83
-28.24
-12.15
-0.04
8.67
15.07
20.14
24.5
28.37
31.79
34.78
37.48
40.1
42.77
45.53
48.23
50.7
52.84
54.72
56.55
58.55
60.7
62.7
63.97
63.92
62.22
58.97
54.7
50.14
45.93
42.4
39.48
36.87
34.19
31.28
28.19
25.21
22.65
20.68
19.2
17.83
16.04
13.42
9.82
5.46
0.84
-3.49
-7.2
-10.31
-13.19
-16.38
-20.32
-25.18
-30.78
-36.69
-42.43
-47.63
-52.19
-56.33
-60.48
-65.25
-71.24
-78.82
-87.85
-97.42
-105.82
-110.83
-110.37
-103.22
-89.62
-71.28
-50.86
-31.11
-14.11
-0.81
8.88
15.71
20.6
24.28
27.17
29.43
31.15
32.49
33.73
35.26
37.41
40.28
43.69
47.2
50.36
52.86
54.7
56.06
57.09
57.77
57.81
56.83
54.55
51.0
46.54
41.81
37.45
33.91
31.28
29.33
27.56
25.52
22.94
19.87
16.56
13.41
10.65
8.33
6.22
3.96
1.17
-2.38
-6.75
-11.75
-17.04
-22.23
-26.99
-31.24
-35.11
-38.95
-43.23
-48.37
-54.63
-61.97
-69.87
-77.25
-82.58
-84.16
-80.67
-71.71
-58.04
-41.51
-24.39
-8.76
4.12
13.91
20.91
25.63
28.45
29.49
28.88
26.97
24.42
22.17
21.08
21.73
24.17
27.97
32.39
36.65
40.15
42.56
43.83
44.05
43.34
41.75
39.31
36.05
32.09
27.66
23.05
18.54
14.3
10.43
6.96
3.84
0.99
-1.81
-4.83
-8.39
-12.66
-17.54
-22.66
-27.54
-31.8
-35.4
-38.71
-42.35
-47.03
-53.25
-61.18
-70.49
-80.28
-89.05
-94.91
-95.98
-91.0
-79.86
-63.77
-44.98
-26.08
-9.26
4.26
14.31
21.44
26.47
30.09
32.67
34.4
35.41
35.93
36.32
37.0
38.28
40.26
42.78
45.54
48.22
50.62
52.62
54.21
55.25
55.53
54.73
52.59
49.09
44.49
39.32
34.23
29.68
25.83
22.51
19.29
15.82
11.93
7.79
3.8
0.3
-2.59
-5.18
-8.02
-11.73
-16.61
-22.52
-28.92
-35.13
-40.63
-45.3
-49.47
-53.78
-58.96
-65.62
-74.05
-84.01
-94.58
-104.14
-110.55
-111.71
-106.24
-94.07
-76.63
-56.47
-36.44
-18.83
-4.79
5.72
13.56
19.73
24.99
29.64
33.67
36.97
39.54
41.6
43.5
45.62
48.18
51.14
54.23
57.04
59.2
60.57
61.23
61.39
61.15
60.38
58.73
55.84
51.62
46.37
40.76
35.56
31.31
28.13
25.65
23.24
20.28
16.45
11.86
6.96
2.38
-1.42
-4.31
-6.67
-9.13
-12.39
-16.89
-22.63
-29.17
-35.83
-42.01
-47.33
-51.87
-56.0
-60.36
-65.66
-72.47
-80.97
-90.69
-100.3
-107.75
-110.74
-107.46
-97.31
-81.26
-61.6
-41.21
-22.63
-7.36
4.34
13.18
20.24
26.46
32.28
37.73
42.52
46.46
49.53
52.04
54.43
57.06
60.06
63.23
66.18
68.61
70.41
71.75
72.84
73.72
74.14
73.63
71.72
68.24
63.43
57.91
52.43
47.64
43.85
40.96
38.58
36.16
33.25
29.68
25.58
21.34
17.38
13.97
11.03
8.19
4.92
0.81
-4.23
-9.92
-15.79
-21.32
-26.25
-30.6
-34.69
-38.96
-43.89
-49.84
-57.02
-65.31
-74.15
-82.34
-88.21
-89.93
-86.14
-76.52
-62.04
-44.79
-27.24
-11.55
1.07
10.45
17.2
22.14
25.89
28.67
30.48
31.31
31.38
31.16
31.21
31.97
33.59
35.94
38.66
41.35
43.66
45.38
46.34
46.47
45.67
43.95
41.38
38.11
34.39
30.42
26.38
22.38
18.45
14.6
10.87
7.35
4.14
1.27
-1.38
-4.05
-7.07
-10.63
-14.7
-19.0
-23.15
-26.84
-30.09
-33.2
-36.71
-41.18
-47.0
-54.28
-62.73
-71.58
-79.55
-85.02
-86.32
-82.34
-72.96
-59.24
-43.19
-27.11
-12.88
-1.5
6.97
13.1
17.55
20.84
23.15
24.52
25.1
25.17
25.23
25.72
26.94
28.88
31.36
34.09
36.8
39.35
41.59
43.38
44.45
44.52
43.35
40.86
37.24
32.87
28.27
23.92
20.08
16.79
13.85
10.98
7.97
4.77
1.53
-1.55
-4.38
-7.07
-9.93
-13.33
-17.5
-22.4
-27.69
-32.94
-37.83
-42.24
-46.41
-50.79
-55.98
-62.49
-70.58
-80.02
-89.89
-98.56
-103.96
-104.14
-97.96
-85.62
-68.71
-49.71
-31.22
-15.13
-2.2
7.77
15.64
22.28
28.28
33.82
38.81
43.08
46.56
49.36
51.73
53.99
56.36
58.88
61.42
63.76
65.7
67.15
68.07
68.48
68.27
67.25
65.21
62.1
58.05
53.44
48.73
44.38
40.67
37.65
35.17
32.94
30.62
27.91
24.66
20.87
16.73
12.51
8.5
4.87
1.59
-1.63
-5.19
-9.47
-14.62
-20.47
-26.57
-32.41
-37.59
-42.04
-46.01
-50.05
-54.81
-60.9
-68.61
-77.71
-87.24
-95.53
-100.52
-100.33
-93.93
-81.62
-65.05
-46.7
-29.13
-14.18
-2.59
5.96
12.35
17.6
22.35
26.81
30.84
34.18
36.73
38.55
39.94
41.25
42.74
44.51
46.47
48.44
50.24
51.74
52.87
53.51
53.53
52.75
51.03
48.33
44.81
40.75
36.53
32.54
29.05
26.17
23.81
21.68
19.41
16.71
13.5
9.97
6.49
3.41
0.91
-1.17
-3.26
-5.88
-9.44
-14.05
-19.51
-25.33
-30.99
-36.05
-40.34
-44.0
-47.47
-51.4
-56.43
-63.0
-71.04
-79.87
-88.13
-93.99
-95.65
-91.85
-82.38
-68.23
-51.34
-34.0
-18.21
-5.2
4.72
11.91
17.01
20.57
22.94
24.26
24.68
24.51
24.19
24.26
25.12
26.93
29.52
32.5
35.4
37.84
39.6
40.6
40.85
40.32
38.89
36.5
33.16
29.07
24.6
20.15
15.98
12.16
8.59
5.13
1.73
-1.48
-4.37
-6.88
-9.19
-11.67
-14.71
-18.51
-22.97
-27.73
-32.36
-36.59
-40.39
-44.05
-48.05
-52.94
-59.16
-66.9
-75.81
-84.87
-92.37
-96.3
-94.91
-87.4
-74.28
-57.28
-38.84
-21.29
-6.24
5.71
14.84
21.82
27.38
31.97
35.74
38.75
41.07
42.89
44.54
46.33
48.48
51.01
53.75
56.47
58.9
60.9
62.42
63.4
63.78
63.36
61.91
59.26
55.43
50.7
45.57
40.64
36.39
33.01
30.32
27.88
25.15
21.75
17.63
13.08
8.62
4.69
1.51
-1.13
-3.73
-6.91
-11.12
-16.45
-22.54
-28.8
-34.63
-39.66
-43.97
-47.99
-52.42
-57.98
-65.12
-73.82
-83.31
-92.11
-98.24
-99.68
-95.04
-84.08
-67.91
-48.69
-29.04
-11.25
3.3
