0
-4.45
-6.71
-8.87
-11.0
-13.14
-15.37
-17.81
-20.6
-23.85
-27.55
-31.47
-35.09
-37.66
-38.46
-36.98
-33.15
-27.34
-20.23
-12.61
-5.16
1.62
7.5
12.39
16.27
19.17
21.1
22.06
22.06
21.23
19.77
17.98
16.17
14.61
13.5
12.97
13.05
13.68
14.7
15.85
16.82
17.34
17.29
16.66
15.52
14.01
12.17
10.06
7.72
5.13
2.3
-0.87
-4.4
-8.2
-11.99
-15.33
-17.81
-19.23
-19.76
-19.9
-20.29
-21.51
-23.85
-27.27
-31.4
-35.61
-39.08
-40.92
-40.37
-37.02
-31.01
-23.01
-14.04
-5.21
2.61
8.91
13.62
16.89
19.0
20.19
20.58
20.26
19.32
17.91
16.23
14.48
12.88
11.58
10.76
10.57
11.13
12.38
14.1
15.84
17.13
17.64
17.29
16.34
15.15
13.99
12.91
11.76
10.29
8.35
5.97
3.26
0.36
-2.59
-5.51
-8.32
-10.94
-13.33
-15.56
-17.81
-20.35
-23.45
-27.21
-31.47
-35.74
-39.24
-41.08
-40.53
-37.27
-31.56
-24.15
-16.04
-8.19
-1.24
4.5
9.0
12.36
14.72
16.22
17.04
17.36
17.31
16.92
16.23
15.31
14.38
13.69
13.5
13.88
14.7
15.73
16.73
17.56
18.09
18.25
17.91
16.98
15.49
13.57
11.43
9.22
6.98
4.64
2.16
-0.43
-2.97
-5.33
-7.48
-9.5
-11.56
-13.76
-16.16
-18.72
-21.47
-24.44
-27.65
-30.93
-33.82
-35.59
-35.51
-33.05
-28.13
-21.18
-13.01
-4.57
3.26
9.95
15.25
19.17
21.74
23.03
23.04
21.87
19.75
17.09
14.35
11.95
10.09
8.79
8.01
7.71
7.89
8.59
9.65
10.83
11.76
12.19
12.05
11.45
10.6
9.6
8.41
6.91
4.99
2.63
-0.0
-2.7
-5.28
-7.6
-9.67
-11.57
-13.45
-15.56
-18.1
-21.18
-24.67
-28.16
-31.0
-32.46
-31.97
-29.25
-24.42
-17.96
-10.59
-3.15
3.67
9.39
13.82
17.0
19.09
20.23
20.45
19.72
18.04
15.52
12.48
9.37
6.69
4.8
3.83
3.71
4.21
5.01
5.84
6.51
6.95
7.17
7.18
6.92
6.31
5.27
3.84
2.15
0.4
-1.27
-2.83
-4.35
-5.93
-7.64
-9.58
-11.85
-14.66
-18.1
-22.06
-26.05
-29.29
-30.9
-30.32
-27.44
-22.67
-16.71
-10.28
-3.94
1.92
7.04
11.16
14.1
15.76
16.18
15.55
14.17
12.31
10.21
8.09
6.17
4.62
3.59
3.16
3.3
3.9
4.81
5.82
6.74
7.43
7.75
7.59
6.86
5.5
3.56
1.19
-1.35
-3.77
-5.86
-7.59
-9.21
-11.05
-13.42
-16.47
-20.13
-24.05
-27.77
-30.71
-32.29
-32.02
-29.6
-25.12
-19.02
-12.01
-4.88
1.76
7.57
12.44
16.35
19.23
20.93
21.37
20.55
18.72
16.26
13.58
11.08
9.02
7.55
6.71
6.39
6.39
6.44
6.31
5.89
5.2
4.38
3.55
2.73
1.8
0.55
-1.13
-3.22
-5.52
-7.75
-9.74
-11.45
-13.09
-14.96
-17.4
-20.59
-24.6
-29.26
-34.22
-38.91
-42.52
-44.19
-43.15
-39.07
-32.22
-23.47
-14.05
-5.17
2.33
8.18
12.55
15.82
18.31
20.11
21.16
21.37
20.77
19.57
18.2
17.08
16.55
16.73
17.48
18.51
19.51
20.31
20.93
21.51
22.1
22.55
22.55
21.71
19.86
17.14
13.97
10.81
7.97
5.42
2.9
0.15
-2.96
-6.32
-9.7
-12.94
-16.06
-19.28
-22.9
-27.1
-31.77
-36.42
-40.27
-42.4
-42.08
-38.92
-33.12
-25.36
-16.58
-7.73
0.48
7.67
13.66
18.41
21.92
24.2
25.34
25.51
24.99
24.07
22.96
21.86
20.92
20.31
20.18
20.63
21.57
22.78
23.91
24.66
24.86
24.53
23.77
22.69
21.34
19.69
17.68
15.3
12.63
9.84
7.07
4.4
1.79
-0.85
-3.6
-6.46
-9.33
-12.11
-14.73
-17.31
-20.07
-23.29
-27.09
-31.24
-35.14
-37.87
-38.56
-36.62
-32.03
-25.31
-17.31
-8.97
-1.05
5.97
11.84
16.46
19.78
21.84
22.77
22.79
22.2
21.33
20.4
19.54
18.77
18.11
17.51
17.04
16.75
16.78
17.18
17.99
19.1
20.35
21.44
22.08
22.06
21.29
19.87
18.01
15.94
13.84
11.75
9.61
7.34
4.92
2.37
-0.23
-2.79
-5.24
-7.54
-9.68
-11.74
-13.88
-16.3
-19.21
-22.59
-26.19
-29.46
-31.72
-32.35
-30.94
-27.43
-22.1
-15.49
-8.25
-1.03
5.59
11.18
15.49
18.43
20.05
20.59
20.35
19.59
18.57
17.43
16.31
15.29
14.47
13.94
13.77
13.95
14.42
15.05
15.69
16.15
16.31
16.06
15.39
14.31
12.91
11.3
9.57
7.8
6.07
4.43
2.9
1.43
-0.04
-1.6
-3.35
-5.27
-7.25
-9.1
-10.63
-11.78
-12.71
-13.76
-15.36
-17.8
-21.09
-24.83
-28.32
-30.77
-31.46
-30.05
-26.54
-21.29
-14.86
-7.94
-1.18
4.89
9.95
13.87
16.67
18.41
19.18
19.03
18.11
16.61
14.83
13.12
11.74
10.88
10.58
10.77
11.33
12.16
13.14
14.14
15.0
15.58
15.77
15.5
14.77
13.61
12.13
10.43
8.62
6.79
4.99
3.21
1.37
-0.61
-2.74
-5.02
-7.33
-9.56
-11.58
-13.31
-14.75
-15.96
-17.12
-18.48
-20.28
-22.65
-25.44
-28.24
-30.41
-31.24
-30.19
-27.07
-22.12
-15.88
-9.09
-2.45
3.53
8.52
12.47
15.39
17.35
18.41
18.57
17.86
16.38
14.38
12.19
10.14
8.54
7.56
7.17
7.28
7.69
8.24
8.84
9.43
10.0
10.5
10.82
10.74
10.1
8.81
7.0
4.93
2.94
1.27
-0.09
-1.27
-2.56
-4.13
-6.0
-7.99
-9.89
-11.51
-12.78
-13.81
-14.74
-15.79
-17.14
-18.92
-21.14
-23.65
-26.16
-28.23
-29.4
-29.26
-27.54
-24.21
-19.48
-13.75
-7.6
-1.6
3.75
8.16
11.53
13.93
15.48
16.27
16.32
15.63
14.3
12.49
10.51
8.69
7.32
6.58
6.49
6.96
7.8
8.8
9.79
10.61
11.15
11.32
11.04
10.24
8.95
7.29
5.47
3.73
2.26
1.09
0.07
-1.04
-2.43
-4.19
-6.18
-8.15
-9.79
-10.95
-11.66
-12.2
-12.93
-14.24
-16.34
-19.23
-22.57
-25.79
-28.17
-29.02
-27.88
-24.65
-19.59
-13.36
-6.71
-0.4
5.02
9.26
12.27
14.19
15.18
15.41
15.02
14.09
12.73
11.07
9.32
7.67
6.37
5.59
5.41
5.8
6.61
7.67
8.75
9.67
10.25
10.37
9.87
8.66
6.75
4.27
1.49
-1.26
-3.66
-5.57
-7.07
-8.35
-9.59
-10.86
-12.13
-13.32
-14.43
-15.54
-16.8
-18.35
-20.25
-22.43
-24.75
-26.92
-28.57
-29.2
-28.39
-25.93
-21.94
-16.91
-11.48
-6.21
-1.45
2.71
6.31
9.28
11.51
12.79
13.05
12.4
11.06
9.38
7.62
6.03
4.81
4.11
4.01
4.5
5.41
6.49
7.46
8.12
8.34
8.16
7.71
7.11
6.47
5.82
5.09
4.14
2.85
1.17
-0.88
-3.17
-5.57
-7.98
-10.35
-12.68
-14.9
-16.95
-18.8
-20.53
-22.29
-24.23
-26.32
-28.29
-29.62
-29.7
-28.09
-24.68
-19.74
-13.82
-7.61
-1.73
3.43
7.7
11.06
13.56
15.2
15.98
15.92
15.14
13.89
12.42
10.96
9.66
8.57
7.78
7.4
7.56
8.3
9.5
10.85
11.91
12.31
11.91
10.83
9.35
7.82
6.44
5.24
4.1
2.89
1.45
-0.28
-2.23
-4.24
-6.16
-7.87
-9.4
-10.91
-12.65
-14.83
-17.58
-20.83
-24.37
-27.83
-30.75
-32.6
-32.9
-31.35
-27.88
-22.74
-16.49
-9.82
-3.43
2.18
6.74
10.19
12.6
14.16
15.05
15.45
15.44
15.04
14.28
13.2
12.0
10.92
10.21
10.02
10.32
11.04
12.06
13.3
14.62
15.83
16.66
16.85
16.3
15.1
13.49
11.69
9.81
7.81
5.56
3.02
0.23
-2.65
-5.49
-8.17
-10.65
-12.95
-15.08
-17.12
-19.22
-21.56
-24.33
-27.52
-30.89
-33.93
-35.99
-36.41
-34.75
-30.93
-25.25
-18.36
-11.07
-4.11
2.02
7.15
11.31
14.58
16.97
18.41
18.83
18.37
17.32
16.07
14.92
14.0
13.22
12.49
11.81
11.32
11.22
11.59
12.28
12.97
13.27
12.9
11.81
10.2
8.37
6.64
5.24
4.19
3.38
2.61
1.67
0.43
-1.13
-2.91
-4.82
-6.77
-8.76
-10.81
-12.97
-15.27
-17.74
-20.34
-22.95
-25.26
-26.81
-27.06
-25.56
-22.17
-17.1
-10.88
-4.2
2.3
8.13
12.98
16.69
19.2
20.52
20.78
20.18
18.97
17.43
15.76
14.17
12.81
11.83
11.37
11.48
12.11
13.07
14.08
14.92
15.42
15.58
15.49
15.21
14.72
13.86
12.47
10.44
7.89
5.13
2.61
0.63
-0.78
-1.87
-3.1
-4.92
-7.54
-10.92
-14.83
-18.9
-22.76
-25.95
-27.99
-28.38
-26.72
-22.9
-17.18
-10.19
-2.79
4.22
10.23
14.91
18.23
20.28
21.2
21.11
20.18
18.57
16.55
14.39
12.43
10.91
9.97
9.56
9.55
9.74
10.02
10.32
10.67
11.06
11.4
11.5
11.14
10.16
8.56
6.47
4.12
1.73
-0.56
-2.67
-4.63
-6.5
-8.4
-10.47
-12.85
-15.61
-18.78
-22.19
-25.57
-28.44
-30.27
-30.51
-28.74
-24.84
-19.04
-11.96
-4.4
2.8
8.99
13.81
17.15
19.16
20.04
20.05
19.45
18.45
17.28
16.08
14.99
14.1
13.49
13.21
13.24
13.48
13.74
13.86
13.77
13.51
13.2
12.89
12.48
11.79
10.58
8.72
6.27
3.44
0.5
-2.31
-4.85
-7.11
-9.16
-11.21
-13.46
-16.14
-19.37
-23.07
-26.94
-30.45
-32.94
-33.8
-32.53
-28.99
-23.38
-16.27
-8.49
-0.86
5.9
11.4
15.5
18.28
19.94
20.67
20.68
20.1
19.05
17.63
16.01
14.4
13.06
12.18
11.85
11.99
12.39
12.88
13.32
13.69
13.96
14.06
13.83
13.11
11.82
9.97
7.68
5.1
2.36
-0.45
-3.26
-5.97
-8.53
-10.99
-13.48
-16.2
-19.33
-22.86
-26.57
-30.0
-32.56
-33.61
-32.68
-29.57
-24.5
-18.01
-10.84
-3.71
2.83
8.49
13.14
16.71
19.07
20.13
19.86
18.43
16.22
13.69
11.33
9.43
8.2
7.64
7.7
8.25
9.12
10.12
11.04
11.77
12.21
12.31
12.03
11.33
10.16
8.49
6.37
3.88
1.17
-1.62
-4.33
-6.88
-9.25
-11.54
-13.95
-16.73
-19.99
-23.61
-27.15
-29.95
-31.33
-30.79
-28.21
-23.82
-18.15
-11.81
-5.35
0.8
6.39
11.19
15.03
17.73
19.16
19.3
18.29
16.46
14.25
12.12
10.44
9.38
8.93
8.88
8.99
9.04
8.95
8.76
8.62
8.62
8.74
8.78
8.48
7.58
6.02
3.99
1.79
-0.29
-2.13
-3.83
-5.63
-7.81
-10.46
-13.56
-16.98
-20.52
-23.95
-26.96
-29.11
-29.94
-29.07
-26.37
-21.99
-16.36
-10.02
-3.54
2.57
7.88
12.08
15.0
16.69
17.34
17.24
16.6
15.6
14.35
12.99
11.68
10.65
10.03
9.86
10.04
10.44
10.91
11.32
11.55
11.48
11.02
10.16
8.93
7.4
5.63
3.63
1.41
-0.99
-3.52
-6.17
-8.98
-12.01
-15.29
-18.77
-22.14
-24.99
-26.8
-27.14
-25.75
-22.54
-17.7
-11.65
-4.97
1.68
7.71
12.69
16.41
18.79
19.94
19.98
19.09
17.55
15.65
13.71
12.0
10.7
9.85
9.41
9.28
9.34
9.47
9.61
9.75
9.87
9.9
9.72
9.12
7.92
6.07
3.7
1.12
-1.36
-3.53
-5.43
-7.31
-9.44
-11.99
-14.99
-18.29
-21.67
-24.85
-27.49
-29.13
-29.26
-27.46
-23.58
-17.86
-10.93
-3.6
3.37
9.41
14.28
17.95
20.53
22.11
22.76
22.47
21.28
19.34
16.89
14.34
12.06
10.37
9.35
8.91
8.83
8.94
9.15
9.43
9.81
10.25
10.64
10.79
10.49
9.64
8.2
6.27
4.05
1.74
-0.49
-2.59
-4.6
-6.64
-8.9
-11.47
-14.42
-17.67
-21.03
-24.17
-26.63
-27.91
-27.57
-25.39
-21.45
-16.13
-10.03
-3.83
1.88
6.67
10.37
12.96
14.56
15.32
15.4
14.88
13.88
12.52
11.01
9.62
8.58
8.05
8.03
8.36
8.78
9.06
9.13
9.05
8.98
8.97
8.97
8.76
8.11
6.92
5.24
3.28
1.26
-0.66
-2.48
-4.3
-6.26
-8.44
-10.87
-13.52
-16.35
-19.3
-22.28
-25.09
-27.43
-28.87
-28.93
-27.26
-23.71
-18.51
-12.21
-5.51
0.89
6.55
11.3
15.1
17.94
19.74
20.4
19.92
18.5
16.55
14.54
12.87
11.75
11.19
11.08
11.3
11.71
12.18
12.61
12.83
12.77
12.32
11.45
10.15
8.46
6.47
4.35
2.3
0.47
-1.08
-2.44
-3.74
-5.13
-6.71
-8.45
-10.29
-12.15
-14.04
-16.06
-18.35
-20.99
-23.82
-26.38
-28.02
-28.06
-26.05
-22.01
-16.4
-9.98
-3.55
2.28
7.19
11.09
14.02
16.06
17.26
17.64
17.24
16.16
14.55
12.66
10.81
9.34
8.52
8.45
8.99
9.92
10.89
11.65
12.05
12.03
11.57
10.71
9.5
8.04
6.45
4.85
3.29
1.78
0.26
-1.32
-2.97
-4.69
-6.45
-8.24
-10.06
-11.87
-13.7
-15.59
-17.66
-19.96
-22.39
-24.6
-26.03
-26.12
-24.51
-21.23
-16.71
-11.51
-6.13
-0.95
3.85
8.09
11.57
14.06
15.45
15.78
15.25
14.18
12.82
11.35
9.97
8.79
7.98
7.66
7.85
8.46
9.31
10.16
10.78
11.01
10.78
10.19
9.39
8.58
7.85
7.16
6.31
5.1
3.47
1.5
-0.59
-2.59
-4.44
-6.18
-7.92
-9.7
-11.47
-13.17
-14.84
-16.58
-18.49
-20.5
-22.25
-23.18
-22.73
-20.65
-17.06
-12.42
-7.35
-2.4
2.04
5.75
8.59
10.46
11.32
11.24
10.39
9.05
7.54
6.1
4.9
4.04
3.55
3.45
3.72
4.24
4.85
5.34
5.58
5.5
5.21
4.86
4.6
4.46
4.31
3.92
3.09
1.8
0.15
-1.6
-3.28
-4.85
-6.45
-8.28
-10.45
-12.92
-15.53
-18.08
-20.37
-22.3
-23.73
-24.46
-24.24
-22.82
-20.06
-16.07
-11.17
-5.86
-0.67
3.95
7.7
10.42
12.07
12.68
12.38
11.33
9.79
8.06
6.41
5.07
4.11
3.56
3.37
3.51
3.93
4.55
5.21
5.75
6.01
5.97
5.68
5.19
4.52
3.58
2.29
0.62
-1.26
-3.09
-4.66
-5.86
-6.79
-7.7
-8.86
-10.46
-12.57
-15.17
-18.11
-21.11
-23.7
-25.29
-25.35
-23.55
-19.94
-14.93
-9.13
-3.21
2.33
7.1
10.89
13.56
15.06
15.45
14.89
13.67
12.1
10.43
8.88
7.6
6.72
6.34
6.47
6.96
7.59
8.1
8.32
8.21
7.88
7.43
6.95
6.43
5.79
4.89
3.6
1.88
-0.25
-2.6
-4.93
-7.06
-8.91
-10.61
-12.34
-14.29
-16.47
-18.72
-20.78
-22.34
-23.15
-23.01
-21.79
-19.39
-15.89
-11.58
-6.9
-2.33
1.72
5.09
7.8
9.91
11.47
12.44
12.8
12.57
11.93
11.1
10.28
9.55
8.91
8.34
7.8
7.35
7.06
7.01
7.17
7.47
7.73
7.77
7.49
6.84
5.87
4.63
3.18
1.5
-0.35
-2.3
-4.2
-5.84
-7.17
-8.26
-9.37
-10.79
-12.72
-15.14
-17.86
-20.58
-22.96
-24.64
-25.27
-24.58
-22.43
-18.92
-14.39
-9.32
-4.23
0.52
4.73
8.34
11.26
13.36
14.49
14.56
13.62
11.92
9.82
7.77
6.12
5.13
4.84
5.13
5.8
6.61
7.4
8.09
8.64
9.01
9.06
8.65
7.63
6.01
3.95
1.68
-0.54
-2.53
-4.27
-5.82
-7.32
-8.87
-10.57
-12.42
-14.41
-16.47
-18.45
-20.19
-21.48
-22.02
-21.57
-19.91
-17.0
-13.02
-8.34
-3.49
1.04
4.91
7.96
10.22
11.79
12.71
12.94
12.36
10.94
8.83
6.42
4.25
2.81
2.35
2.79
3.81
4.94
5.85
6.39
6.59
6.57
6.4
6.06
5.48
4.62
3.48
2.14
0.67
-0.89
-2.54
-4.29
-6.14
-8.02
-9.93
-11.95
-14.22
-16.85
-19.73
-22.49
-24.52
-25.2
-24.14
-21.32
-17.12
-12.11
-6.83
-1.65
3.21
7.61
11.37
14.29
16.19
17.01
16.85
15.9
14.48
12.86
11.35
10.15
9.42
9.18
9.37
9.85
10.49
11.15
11.71
12.08
12.15
11.81
11.08
9.98
8.65
7.17
5.62
4.04
2.44
0.82
-0.81
-2.49
-4.31
-6.37
-8.79
-11.6
-14.69
-17.82
-20.65
-22.8
-23.88
-23.58
-21.72
-18.36
-13.81
-8.56
-3.2
1.74
5.96
9.29
11.73
13.39
14.37
14.72
14.49
13.75
12.6
11.22
9.82
8.62
7.78
7.35
7.26
7.41
7.65
7.92
8.15
8.3
8.24
7.86
7.09
5.96
4.64
3.3
2.07
0.93
-0.23
-1.55
-3.06
-4.67
-6.28
-7.83
-9.41
-11.19
-13.34
-15.9
-18.66
-21.17
-22.88
-23.27
-22.06
-19.17
-14.82
-9.38
-3.27
3.01
8.99
14.19
18.22
20.82
21.97
21.89
20.93
19.47
17.82
16.17
14.69
13.5
12.75
12.5
12.7
13.18
13.71
14.11
14.28
14.19
13.83
13.18
12.21
10.98
9.64
8.4
7.36
6.48
5.56
4.32
2.65
0.62
-1.56
-3.68
-5.63
-7.41
-9.12
-10.84
-12.59
-14.29
-15.85
-17.1
-17.85
-17.82
-16.75
-14.51
-11.13
-6.93
-2.42
1.84
5.39
7.98
9.61
10.45
10.74
10.62
10.07
8.97
7.26
5.08
2.8
0.98
0.05
0.12
0.97
2.1
3.08
3.65
3.75
3.49
2.95
2.2
1.22
0.01
-1.39
-2.9
-4.41
-5.8
-6.96
-7.8
-8.36
-8.77
-9.21
-9.87
-10.83
-12.08
-13.53
-15.13
-16.8
-18.36
-19.49
-19.68
-18.49
-15.71
-11.57
-6.64
-1.59
3.02
6.93
10.1
12.59
14.37
15.3
15.26
14.24
12.42
10.16
7.89
5.99
4.72
4.15
4.14
4.44
4.79
5.08
5.33
5.64
6.06
6.45
6.54
6.05
4.86
3.09
1.01
-1.05
-2.88
-4.44
-5.81
-7.12
-8.49
-9.97
-11.6
-13.37
-15.15
-16.73
-17.77
-17.92
-16.89
-14.55
-11.03
-6.67
-1.96
2.62
6.69
10.1
12.84
14.99
16.55
17.4
17.38
16.42
14.61
12.23
9.7
7.37
5.5
4.13
3.24
2.75
2.62
2.8
3.24
3.85
4.45
4.82
4.63
3.66
1.76
-1.0
-4.41
-8.08
-11.63
-14.8
-17.52
-19.92
-22.18
-24.46
-26.83
-29.14
-31.13
-32.47
-32.74
-31.56
-28.66
-23.96
-17.71
-10.48
-3.03
3.88
9.67
14.1
17.25
19.37
20.78
21.72
22.37
22.86
23.28
23.66
23.94
23.96
23.52
22.44
20.71
18.48
16.03
13.69
11.72
10.21
9.11
8.18
7.19
5.91
4.3
2.43
0.47
-1.42
-3.15
-4.75
-6.35
-8.08
-10.08
-12.44
-15.2
-18.38
-21.91
-25.63
-29.17
-32.01
-33.56
-33.33
-31.11
-27.09
-21.82
-16.05
-10.59
-6.07
-2.87
-1.13
-0.76
-1.52
-3.04
-4.9
-6.66
-8.02
-8.81
-9.06
-8.87
-8.39
-7.74
-6.96
-6.07
-5.06
-3.88
-2.48
-0.79
1.14
3.07
4.59
5.18
4.49
2.56
-0.16
-2.92
-5.05
-6.27
-6.69
-6.78
-6.99
-7.58
-8.54
-9.73
-10.92
-11.92
-12.47
-12.13
-10.48
-7.2
-2.31
3.76
10.23
16.3
21.37
25.16
27.69
29.16
29.84
29.95
29.69
29.16
28.48
27.71
26.97
26.35
25.92
25.68
25.53
25.25
24.7
23.79
22.58
21.21
19.85
18.56
17.29
15.93
14.31
12.39
10.22
7.95
5.79
3.9
2.35
1.01
-0.33
-1.96
-4.11
-6.83
-10.0
-13.36
-16.55
-19.22
-21.02
-21.68
-20.99
-18.86
-15.37
-10.78
-5.58
-0.34
4.37
8.15
10.8
12.27
12.67
12.13
10.78
8.84
6.53
4.24
2.38
1.29
1.16
1.87
3.14
4.52
5.63
6.24
6.32
5.99
5.43
4.77
4.05
3.21
2.21
1.03
-0.28
-1.6
-2.83
-3.94
-4.98
-6.13
-7.62
-9.64
-12.21
-15.15
-18.05
-20.38
-21.66
-21.56
-20.0
-17.13
-13.29
-8.89
-4.39
-0.16
3.48
6.4
8.52
9.85
10.38
10.16
9.26
7.9
6.41
5.17
4.49
4.39
4.74
5.25
5.66
5.87
5.87
5.73
5.47
5.08
4.53
3.83
3.03
2.17
1.23
0.15
-1.09
-2.55
-4.24
-6.16
-8.34
-10.76
-13.35
-15.96
-18.37
-20.31
-21.5
-21.72
-20.74
-18.48
-14.99
-10.55
-5.57
-0.51
4.27
8.51
12.1
14.9
16.81
17.67
17.46
16.27
14.4
12.24
10.17
8.45
7.24
6.57
6.36
6.46
6.64
6.7
6.47
5.96
5.26
4.52
3.83
3.19
2.5
1.64
0.58
-0.69
-2.09
-3.57
-5.1
-6.68
-8.28
-9.95
-11.76
-13.81
-16.16
-18.67
-20.97
-22.47
-22.62
-21.06
-17.84
-13.32
-8.11
-2.79
2.15
6.47
10.0
12.68
14.46
15.31
15.27
14.5
13.24
11.79
10.4
9.2
8.25
7.48
6.88
6.5
6.44
6.73
7.28
7.88
8.22
8.12
7.56
6.69
5.69
4.65
3.58
2.44
1.2
-0.05
-1.27
-2.42
-3.58
-4.86
-6.4
-8.27
-10.44
-12.82
-15.24
-17.44
-19.09
-19.82
-19.25
-17.22
-13.82
-9.4
-4.55
0.12
4.11
7.17
9.32
10.8
11.78
12.36
12.42
11.8
10.47
8.62
6.73
5.32
4.75
5.02
5.84
6.77
7.43
7.7
7.64
7.41
7.19
7.02
6.84
6.58
6.08
5.27
4.1
2.62
1.0
-0.61
-2.12
-3.55
-5.02
-6.7
-8.65
-10.86
-13.22
-15.57
-17.79
-19.68
-20.93
-21.15
-20.02
-17.42
-13.56
-8.95
-4.18
0.27
4.13
7.37
10.04
12.16
13.66
14.45
14.44
13.7
12.46
10.97
9.53
8.31
7.37
6.71
6.31
6.21
6.46
7.07
7.94
8.88
9.6
9.88
9.63
8.91
7.86
6.65
5.31
3.85
2.22
0.39
-1.57
-3.6
-5.64
-7.71
-9.8
-11.93
-14.11
-16.32
-18.54
-20.71
-22.66
-24.06
-24.53
-23.7
-21.36
-17.58
-12.73
-7.37
-2.12
2.5
6.16
8.74
10.32
11.09
11.26
10.99
10.33
9.29
7.93
6.42
5.01
3.95
3.35
3.18
3.27
3.44
3.63
3.82
4.05
4.25
4.31
4.07
3.43
2.38
1.03
-0.5
-2.08
-3.63
-5.15
-6.62
-8.11
-9.66
-11.36
-13.28
-15.39
-17.59
-19.58
-21.04
-21.57
-20.88
-18.85
-15.54
-11.24
-6.42
-1.61
2.72
6.23
8.81
10.52
11.49
11.91
11.85
11.34
10.34
8.9
7.2
5.52
4.24
3.62
3.74
4.42
5.34
6.13
6.63
6.78
6.66
6.35
5.86
5.11
4.03
2.64
1.02
-0.68
-2.25
-3.6
-4.74
-5.82
-7.06
-8.68
-10.79
-13.32
-15.99
-18.33
-19.91
-20.36
-19.54
-17.51
-14.46
-10.65
-6.42
-2.12
1.89
5.33
8.05
10.07
11.5
12.44
12.92
12.88
12.25
11.05
9.51
7.96
6.78
6.13
6.07
6.48
7.14
7.91
8.65
9.28
9.74
9.95
9.88
9.55
8.95
8.06
6.78
5.06
2.92
0.54
-1.79
-3.8
-5.41
-6.75
-8.12
-9.88
-12.27
-15.23
-18.46
-21.45
-23.65
-24.59
-23.97
-21.73
-18.09
-13.43
-8.26
-3.09
1.64
5.62
8.67
10.78
12.02
12.55
12.55
12.19
11.6
10.86
9.99
9.11
8.36
7.89
7.82
8.15
8.73
9.37
9.86
10.11
10.14
10.06
9.94
9.74
9.33
8.54
7.32
5.75
4.04
2.4
0.98
-0.21
-1.25
-2.29
-3.49
-4.95
-6.78
-9.01
-11.59
-14.31
-16.89
-18.92
-20.06
-19.99
-18.62
-15.98
-12.29
-7.94
-3.4
0.8
4.23
6.63
7.98
8.45
8.27
7.66
6.81
5.86
4.95
4.21
3.72
3.49
3.48
3.61
3.87
4.26
4.8
5.46
6.17
6.71
6.89
6.58
5.73
4.44
2.83
1.1
-0.62
-2.18
-3.51
-4.58
-5.45
-6.27
-7.25
-8.62
-10.51
-12.91
-15.64
-18.27
-20.29
-21.17
-20.55
-18.29
-14.63
-10.02
-5.1
-0.43
3.53
6.58
8.63
9.78
10.19
9.99
9.36
8.37
7.15
5.79
4.42
3.19
2.27
1.72
1.5
1.5
1.55
1.57
1.61
1.73
1.99
2.34
2.59
2.54
2.02
0.98
-0.5
-2.28
-4.2
-6.15
-8.03
-9.87
-11.69
-13.61
-15.69
-17.96
-20.28
-22.33
-23.68
-23.86
-22.56
-19.76
-15.69
-10.87
-5.88
-1.27
2.59
5.54
7.64
9.07
10.06
10.77
11.27
11.6
11.77
11.81
11.74
11.59
11.36
11.04
10.68
10.3
9.97
9.68
9.4
9.04
8.52
7.79
6.84
5.6
4.05
2.25
0.3
-1.57
-3.21
-4.54
-5.72
-7.06
-8.85
-11.26
-14.18
-17.25
-20.0
-21.99
-22.89
-22.55
-21.0
-18.38
-14.95
-10.95
-6.64
-2.2
2.11
6.05
9.33
11.7
13.04
13.44
13.15
12.49
11.74
11.04
10.47
10.06
9.8
9.71
9.76
9.88
9.95
9.9
9.68
9.34
8.88
8.31
7.6
6.73
5.67
4.47
3.2
1.89
0.54
-0.94
-2.62
-4.59
-6.93
-9.61
-12.54
-15.58
-18.46
-20.94
-22.7
-23.5
-23.13
-21.49
-18.67
-14.92
-10.63
-6.26
-2.17
1.42
4.45
6.95
8.92
10.33
11.1
11.26
10.94
10.4
9.91
9.67
9.74
10.05
10.49
10.95
11.4
11.85
12.3
12.74
13.12
13.3
13.11
12.41
11.17
9.49
7.58
5.65
3.85
2.25
0.79
-0.67
-2.28
-4.21
-6.59
-9.47
-12.75
-16.08
-18.94
-20.73
-21.07
-19.85
-17.29
-13.76
-9.64
-5.25
-0.83
3.37
7.07
10.01
12.02
13.11
13.4
13.09
12.34
11.26
9.99
8.71
7.65
7.03
6.96
7.41
8.2
9.12
9.96
10.58
10.95
11.09
11.08
10.97
10.76
10.38
9.75
8.82
7.63
6.27
4.89
3.55
2.24
0.81
-0.96
-3.22
-6.02
-9.27
-12.68
-15.9
-18.57
-20.41
-21.17
-20.73
-19.04
-16.13
-12.16
-7.46
-2.47
2.3
6.41
9.6
11.81
13.12
13.7
13.7
13.26
12.54
11.67
10.84
10.17
9.78
9.73
9.97
10.42
10.92
11.33
11.53
11.49
11.21
10.73
10.09
9.22
8.08
6.68
5.11
3.46
1.87
0.38
-1.03
-2.41
-3.85
-5.36
-6.96
-8.68
-10.61
-12.77
-15.13
-17.5
-19.52
-20.76
-20.86
-19.59
-16.99
-13.32
-8.99
-4.47
-0.17
3.64
6.74
9.03
10.45
11.0
10.75
9.84
8.48
6.89
5.35
4.1
3.36
3.23
3.74
4.74
5.98
7.19
8.16
8.78
9.06
9.06
8.79
8.27
7.46
6.34
4.94
3.36
1.72
0.14
-1.36
-2.77
-4.19
-5.79
-7.75
-10.21
-13.12
-16.19
-18.93
-20.77
-21.28
-20.26
-17.81
-14.24
-9.93
-5.28
-0.62
3.73
7.43
10.23
12.01
12.77
12.68
11.98
10.9
9.68
8.53
7.59
6.95
6.61
6.49
6.55
6.78
7.15
7.56
7.79
7.62
6.89
5.64
4.07
2.49
1.12
0.01
-0.92
-1.78
-2.68
-3.63
-4.62
-5.66
-6.78
-8.05
-9.52
-11.23
-13.21
-15.45
-17.79
-19.87
-21.24
-21.43
-20.17
-17.51
-13.72
-9.28
-4.63
-0.08
4.15
7.89
10.99
13.32
14.84
15.58
15.63
15.13
14.2
13.0
11.69
10.45
9.45
8.78
8.54
8.72
9.22
9.9
10.52
10.81
10.59
9.8
8.57
7.14
5.73
4.43
3.19
1.89
0.46
-1.06
-2.55
-3.88
-5.02
-6.04
-7.09
-8.32
-9.86
-11.84
-14.26
-17.01
-19.81
-22.17
-23.62
-23.75
-22.4
-19.7
-15.95
-11.56
-6.93
-2.45
1.61
5.02
7.63
9.39
10.33
10.54
10.2
9.48
8.6
7.77
7.09
6.62
6.38
6.37
6.65
7.3
8.29
9.45
10.45
10.96
10.79
10.02
8.9
7.75
6.73
5.84
4.93
3.89
2.67
1.31
-0.08
-1.46
-2.8
-4.14
-5.55
-7.13
-8.97
-11.11
-13.52
-16.01
-18.27
-19.92
-20.59
-20.1
-18.42
-15.68
-12.15
-8.14
-4.01
-0.01
3.63
6.73
9.21
10.94
11.89
11.98
11.31
10.02
8.41
6.82
5.55
4.87
4.86
5.49
6.6
7.93
9.19
10.15
10.65
10.69
10.35
9.75
8.99
8.1
7.05
5.81
4.33
2.65
0.78
-1.23
-3.34
-5.49
-7.63
-9.72
-11.81
-13.96
-16.24
-18.6
-20.79
-22.44
-23.07
-22.43
-20.48
-17.47
-13.81
-9.91
-6.1
-2.58
0.49
2.98
4.74
5.67
5.79
5.23
4.19
2.96
1.76
0.81
0.32
0.37
0.95
1.98
3.23
4.47
5.48
6.12
6.33
6.12
5.53
4.65
3.54
2.24
0.76
-0.85
-2.52
-4.1
-5.48
-6.66
-7.74
-8.94
-10.42
-12.3
-14.52
-16.94
-19.34
-21.49
-23.12
-23.92
-23.55
-21.77
-18.58
-14.23
-9.2
-4.08
0.68
4.75
7.98
10.28
11.63
12.09
11.79
10.97
9.95
9.0
8.32
7.99
7.98
8.25
8.68
9.19
9.64
9.92
9.93
9.63
9.05
8.25
7.26
6.07
4.66
3.03
1.2
-0.68
-2.49
-4.07
-5.4
-6.54
-7.7
-9.11
-10.99
-13.4
-16.2
-19.04
-21.46
-23.02
-23.38
-22.42
-20.16
-16.81
-12.67
-8.08
-3.45
0.94
4.81
8.0
10.37
11.83
12.32
11.92
10.88
9.58
8.43
7.69
7.38
7.37
7.46
7.58
7.76
8.08
8.5
8.91
9.13
9.07
8.73
8.21
7.55
6.72
5.62
4.24
2.66
1.04
-0.49
-1.97
-3.61
-5.65
-8.23
-11.32
-14.71
-18.1
-21.16
-23.59
-25.05
-25.18
-23.7
-20.51
-15.82
-10.15
-4.2
1.35
6.04
9.71
12.42
14.36
15.73
16.58
16.89
16.58
15.62
14.09
12.21
10.21
8.36
6.81
5.63
4.82
4.35
4.17
4.18
4.27
4.26
4.0
3.37
2.37
1.1
-0.3
-1.69
-2.97
-4.13
-5.22
-6.32
-7.55
-9.0
-10.74
-12.81
-15.14
-17.55
-19.75
-21.39
-22.09
-21.57
-19.69
-16.53
-12.4
-7.69
-2.84
1.81
6.03
9.66
12.56
14.59
15.66
15.8
15.19
14.1
12.82
11.62
10.64
9.94
9.56
9.47
9.63
9.97
10.35
10.62
10.68
10.54
10.25
9.86
9.37
8.66
7.65
6.27
4.59
2.75
0.91
-0.87
-2.62
-4.43
-6.4
-8.63
-11.17
-13.97
-16.88
-19.57
-21.54
-22.28
-21.43
-18.94
-15.14
-10.54
-5.71
-1.01
3.39
7.43
10.99
13.85
15.7
16.34
15.79
14.34
12.45
10.61
9.1
8.04
7.4
7.09
7.05
7.29
7.77
8.44
9.17
9.79
10.17
10.27
10.1
9.7
9.07
8.12
6.79
5.06
3.04
0.96
-0.97
-2.64
-4.18
-5.89
-8.13
-11.06
-14.5
-17.92
-20.65
-22.08
-21.88
-20.05
-16.87
-12.74
-8.09
-3.26
1.4
5.61
9.08
11.58
13.02
13.43
12.98
11.92
10.52
8.99
7.55
6.33
5.47
5.02
4.95
5.15
5.44
5.68
5.8
5.86
6.0
6.3
6.76
7.19
7.36
7.02
6.07
4.52
2.5
0.2
-2.24
-4.72
-7.19
-9.7
-12.26
-14.83
-17.26
-19.24
-20.4
-20.39
-18.99
-16.23
-12.41
-7.96
-3.36
0.97
4.76
7.87
10.27
12.0
13.12
13.66
13.69
13.29
12.62
11.9
11.31
10.97
10.88
10.97
11.13
11.28
11.36
11.29
10.95
10.25
9.21
7.97
6.75
5.7
4.8
3.86
2.65
1.07
-0.81
-2.78
-4.65
-6.39
-8.13
-10.06
-12.28
-14.73
-17.13
-19.07
-20.13
-19.99
-18.55
-15.94
-12.44
-8.4
-4.15
0.05
4.04
7.6
10.47
12.45
13.39
13.39
12.67
11.49
10.1
8.59
7.08
5.73
4.79
4.51
4.96
6.01
7.3
8.49
9.37
9.92
10.25
10.38
10.28
9.79
8.83
7.49
5.95
4.46
3.18
2.02
0.78
-0.84
-3.03
-5.82
-9.05
-12.4
-15.53
-18.06
-19.69
-20.22
-19.53
-17.68
-14.81
-11.21
-7.24
-3.2
0.62
4.08
7.11
9.66
11.66
13.0
13.61
13.48
12.75
11.66
10.5
9.52
8.82
8.43
8.29
8.34
8.52
8.76
8.99
9.1
8.96
8.46
7.6
6.43
5.08
3.69
2.35
1.05
-0.28
-1.75
-3.37
-5.11
-6.87
-8.57
-10.22
-11.88
-13.6
