0
86.86
91.97
90.83
84.59
74.45
61.79
48.32
35.87
26.1
20.22
18.77
21.65
28.14
37.12
47.27
57.24
65.85
72.26
75.97
76.84
74.98
70.7
64.38
56.46
47.38
37.63
27.71
18.03
8.96
0.76
-6.53
-13.03
-19.1
-25.2
-31.77
-39.01
-46.79
-54.61
-61.77
-67.68
-72.19
-75.65
-78.99
-83.53
-90.64
-101.32
-115.69
-132.36
-148.33
-159.24
-160.48
-148.67
-123.01
-85.78
-41.85
2.87
43.03
75.19
98.05
111.99
118.2
117.99
112.46
102.65
89.77
75.35
61.13
48.82
39.77
34.68
33.6
36.05
41.23
48.26
56.36
64.75
72.51
78.65
82.11
82.19
78.82
72.67
64.98
57.05
49.74
43.14
36.73
29.72
21.66
12.72
3.62
-4.73
-11.78
-17.54
-22.67
-28.02
-34.33
-41.83
-50.16
-58.58
-66.23
-72.62
-77.81
-82.47
-87.83
-95.35
-106.28
-121.07
-138.78
-156.76
-170.81
-176.12
-168.63
-146.59
-111.4
-67.46
-20.82
22.55
58.37
84.69
101.66
110.58
112.98
110.19
103.31
93.45
81.99
70.52
60.59
53.39
49.54
49.05
51.53
56.34
62.84
70.37
78.31
85.91
92.28
96.4
97.38
94.72
88.64
80.05
70.33
60.81
52.31
44.82
37.75
30.28
21.91
12.73
3.39
-5.27
-12.63
-18.61
-23.71
-28.75
-34.51
-41.4
-49.25
-57.39
-64.92
-71.2
-76.1
-80.22
-84.82
-91.44
-101.51
-115.56
-132.78
-150.59
-164.88
-170.89
-164.63
-144.36
-111.43
-70.14
-26.43
13.82
46.44
69.64
83.71
90.01
90.09
85.06
75.71
62.95
48.11
33.06
19.89
10.48
5.95
6.51
11.49
19.63
29.45
39.59
48.98
56.91
62.91
66.65
67.97
66.72
62.93
56.81
48.84
39.69
30.12
20.85
12.39
4.94
-1.64
-7.71
-13.71
-20.11
-27.11
-34.67
-42.43
-49.81
-56.24
-61.4
-65.43
-69.02
-73.3
-79.59
-89.03
-102.08
-118.07
-134.86
-148.87
-155.71
-151.43
-133.84
-103.53
-63.95
-20.44
21.31
56.9
83.95
102.05
111.98
114.88
111.8
103.65
91.56
77.13
62.28
49.03
38.99
33.13
31.66
34.21
39.92
47.72
56.4
64.81
71.89
76.83
79.08
78.39
74.87
68.89
61.08
52.17
42.8
33.48
24.5
16.0
8.11
0.92
-5.52
-11.34
-16.92
-22.81
-29.49
-37.15
-45.5
-53.88
-61.5
-67.77
-72.5
-76.12
-79.5
-83.91
-90.74
-101.13
-115.37
-132.3
-149.07
-161.33
-164.4
-154.68
-131.06
-95.55
-52.79
-8.67
31.33
63.54
86.41
100.26
106.38
106.3
101.36
92.75
81.74
69.75
58.39
49.17
43.16
40.86
42.17
46.51
53.12
61.19
69.94
78.57
86.27
92.18
95.56
95.99
93.46
88.43
81.68
74.01
66.04
58.03
49.85
41.23
31.96
22.1
12.06
2.46
-6.2
-13.67
-20.25
-26.56
-33.19
-40.45
-48.06
-55.37
-61.62
-66.38
-69.83
-72.81
-76.64
-82.81
-92.53
-106.18
-122.71
-139.36
-151.87
-155.46
-146.44
-123.58
-88.93
-47.27
-4.66
33.49
63.68
84.71
97.05
101.93
100.52
93.86
82.94
69.03
53.77
38.98
26.37
17.34
12.7
12.59
16.48
23.28
31.63
40.18
47.87
54.05
58.36
60.55
60.45
57.85
52.73
45.36
36.35
26.56
16.93
8.28
1.0
-5.0
-10.27
-15.63
-21.82
-29.12
-37.24
-45.41
-52.74
-58.56
-62.74
-65.73
-68.45
-72.04
-77.7
-86.4
-98.47
-113.16
-128.26
-140.2
-144.79
-138.45
-119.57
-89.28
-51.31
-10.93
26.67
57.71
80.39
94.67
101.48
101.94
96.99
87.39
74.21
59.0
43.82
30.94
22.2
18.64
20.21
25.95
34.35
43.81
52.99
60.99
67.31
71.69
73.98
73.98
71.5
66.4
58.75
48.97
37.82
26.3
15.37
5.66
-2.73
-10.23
-17.59
-25.46
-34.12
-43.29
-52.27
-60.29
-66.77
-71.61
-75.21
-78.43
-82.42
-88.44
-97.63
-110.49
-126.32
-142.78
-156.04
-161.61
-155.62
-136.29
-104.75
-64.8
-21.86
18.65
52.72
78.31
95.27
104.53
107.39
105.04
98.47
88.76
77.2
65.42
55.15
47.95
44.73
45.64
49.92
56.32
63.41
70.02
75.43
79.35
81.69
82.36
81.22
78.06
72.86
65.77
57.24
47.92
38.53
29.73
21.96
15.34
9.67
4.4
-1.15
-7.56
-15.15
-23.72
-32.71
-41.26
-48.65
-54.48
-58.91
-62.67
-66.86
-72.8
-81.63
-93.88
-109.08
-125.28
-139.14
-146.49
-143.44
-127.85
-100.24
-63.97
-24.24
13.43
44.82
67.82
82.32
89.43
90.53
86.67
78.68
67.47
54.42
41.44
30.56
23.41
20.7
22.17
26.75
33.1
40.02
46.66
52.52
57.27
60.47
61.57
59.95
55.23
47.39
37.01
25.2
13.32
2.61
-6.23
-13.26
-19.2
-25.07
-31.67
-39.18
-47.08
-54.38
-60.07
-63.65
-65.25
-65.79
-66.67
-69.41
-75.31
-84.97
-97.94
-112.42
-125.31
-132.84
-131.51
-119.29
-96.33
-65.11
-29.7
5.39
36.4
60.97
78.22
88.25
91.61
88.99
81.18
69.34
55.17
40.85
28.72
20.72
17.83
19.91
25.81
33.9
42.58
50.72
57.76
63.42
67.45
69.39
68.62
64.69
57.6
48.05
37.23
26.54
17.1
9.39
3.08
-2.77
-9.3
-17.3
-26.8
-37.04
-46.71
-54.59
-60.1
-63.59
-66.31
-70.02
-76.48
-86.8
-101.04
-117.78
-134.14
-146.1
-149.57
-141.53
-121.24
-90.68
-54.04
-16.56
17.19
44.2
63.5
75.63
81.91
83.64
81.79
77.12
70.4
62.69
55.28
49.6
46.78
47.29
50.85
56.47
62.81
68.69
73.39
76.71
78.73
79.54
78.97
76.65
72.2
65.55
57.03
47.43
37.66
28.57
20.62
13.84
7.82
1.91
-4.55
-12.0
-20.42
-29.36
-38.0
-45.53
-51.46
-55.84
-59.24
-62.67
-67.37
-74.49
-84.87
-98.52
-114.18
-129.1
-139.36
-140.88
-130.71
-108.28
-75.8
-37.76
0.54
34.47
61.22
79.96
91.42
96.97
97.97
95.46
90.27
83.26
75.5
68.25
62.71
59.76
59.78
62.53
67.32
73.17
79.14
84.42
88.42
90.71
90.97
88.97
84.63
78.1
69.78
60.23
50.09
39.9
30.11
20.97
12.69
5.32
-1.15
-6.97
-12.53
-18.29
-24.64
-31.65
-39.07
-46.42
-53.16
-58.98
-63.9
-68.41
-73.32
-79.68
-88.49
-100.34
-114.99
-130.96
-145.34
-154.29
-153.97
-141.9
-117.94
-84.6
-46.4
-8.56
24.55
50.3
67.94
78.08
81.81
80.14
73.89
63.94
51.66
38.9
27.85
20.33
17.35
18.74
23.4
29.69
36.13
41.76
46.27
49.68
52.03
53.09
52.37
49.29
43.54
35.4
25.72
15.75
6.71
-0.67
-6.41
-11.31
-16.53
-23.05
-31.14
-40.19
-48.95
-56.06
-60.72
-63.04
-64.04
-65.34
-68.62
-75.19
-85.5
-98.94
-113.56
-126.23
-133.16
-130.89
-117.37
-92.88
-60.12
-23.53
11.99
42.42
65.47
80.72
89.11
92.1
91.02
86.81
80.14
71.8
62.86
54.7
48.7
45.8
46.21
49.34
54.1
59.3
63.99
67.58
69.73
70.24
68.93
65.7
60.64
54.12
46.67
38.88
31.19
23.83
16.83
10.12
3.7
-2.3
-7.71
-12.44
-16.6
-20.58
-24.9
-30.08
-36.23
-43.04
-49.79
-55.73
-60.45
-64.11
-67.5
-71.86
-78.55
-88.56
-102.05
-117.88
-133.38
-144.66
-147.51
-138.7
-117.25
-85.06
-46.45
-6.86
28.74
57.09
77.09
89.33
95.2
96.18
93.41
87.8
80.21
71.68
63.41
56.54
51.97
50.15
51.03
54.19
58.95
64.55
70.27
75.49
79.58
81.88
81.79
78.89
73.23
65.41
56.51
47.71
39.87
33.2
27.3
21.45
15.05
7.97
0.5
-6.87
-13.72
-20.02
-25.97
-31.96
-38.3
-45.07
-52.08
-58.9
-65.11
-70.44
-75.05
-79.56
-85.02
-92.63
-103.31
-117.13
-132.8
-147.48
-157.25
-158.04
-146.99
-123.55
-90.0
-50.82
-11.41
23.51
50.95
69.97
81.11
85.54
84.37
78.49
68.77
56.4
43.03
30.59
20.84
14.99
13.45
15.88
21.35
28.67
36.59
44.0
50.05
54.18
56.12
55.81
53.32
48.82
42.57
34.94
26.5
17.97
10.05
3.28
-2.17
-6.52
-10.35
-14.37
-19.24
-25.31
-32.5
-40.3
-47.91
-54.54
-59.77
-63.76
-67.28
-71.57
-77.97
-87.54
-100.69
-116.78
-133.87
-148.73
-157.35
-155.9
-141.95
-115.53
-79.39
-38.35
2.08
37.22
64.31
82.66
93.13
97.17
96.15
91.12
82.94
72.62
61.5
51.15
43.07
38.38
37.53
40.38
46.19
53.91
62.37
70.42
77.09
81.65
83.64
82.92
79.57
73.94
66.57
58.12
49.21
40.32
31.67
23.22
14.82
6.39
-1.99
-10.02
-17.48
-24.33
-30.83
-37.39
-44.37
-51.8
-59.29
-66.21
-72.01
-76.54
-80.24
-84.18
-89.86
-98.74
-111.62
-128.08
-145.89
-161.24
-169.38
-166.05
-148.86
-118.32
-77.88
-32.92
10.71
48.3
77.08
96.35
106.93
110.33
108.17
101.95
93.04
82.78
72.53
63.64
57.16
53.77
53.58
56.25
61.15
67.52
74.63
81.81
88.3
93.28
95.91
95.49
91.78
85.08
76.23
66.35
56.44
47.16
38.64
30.56
22.44
13.95
5.19
-3.33
-10.89
-16.96
-21.55
-25.31
-29.31
-34.55
-41.44
-49.6
-58.0
-65.51
-71.45
-76.0
-80.21
-85.67
-93.95
-106.07
-122.01
-140.25
-157.72
-170.19
-173.23
-163.61
-140.47
-105.86
-64.32
-21.53
17.3
48.65
71.08
84.8
90.9
90.61
84.96
74.99
61.97
47.61
33.98
23.13
16.63
15.17
18.43
25.28
34.11
43.36
51.86
58.93
64.23
67.53
68.52
66.75
61.94
54.2
44.15
32.95
21.9
12.1
4.06
-2.42
-8.05
-13.81
-20.48
-28.4
-37.28
-46.32
-54.47
-60.8
-64.96
-67.28
-68.76
-70.84
-74.99
-82.38
-93.57
-108.06
-124.02
-138.22
-146.49
-144.77
-130.46
-103.54
-66.81
-25.21
15.63
51.03
78.16
96.23
105.95
108.71
105.9
98.66
88.06
75.33
62.0
49.85
40.66
35.75
35.58
39.63
46.61
54.85
62.92
69.91
75.42
79.33
81.5
81.59
79.2
74.14
66.59
57.13
46.57
35.75
25.39
15.97
7.74
0.61
-5.73
-11.86
-18.38
-25.71
-33.87
-42.38
-50.49
-57.43
-62.8
-66.69
-69.8
-73.18
-78.12
-85.78
-96.96
-111.54
-128.09
-143.57
-153.74
-154.17
-141.63
-115.49
-78.19
-34.68
9.03
47.56
77.55
97.87
109.24
113.31
111.8
106.1
97.33
86.58
75.16
64.53
56.18
51.18
49.97
52.27
57.22
63.74
70.72
77.23
82.62
86.38
88.13
87.65
84.85
79.92
73.25
65.32
56.66
47.63
38.54
29.58
20.97
12.87
5.45
-1.27
-7.46
-13.48
-19.79
-26.73
-34.37
-42.36
-50.06
-56.8
-62.21
-66.43
-70.26
-74.97
-81.99
-92.43
-106.52
-123.13
-139.59
-152.0
-156.14
-148.77
-128.83
-98.07
-60.62
-21.85
13.31
41.51
61.42
73.28
78.09
76.98
70.89
60.9
48.5
35.66
24.58
17.15
14.46
16.54
22.53
30.98
40.28
49.02
56.26
61.52
64.69
65.81
64.89
61.75
56.23
48.38
38.71
28.2
18.06
9.28
2.27
-3.33
-8.42
-13.98
-20.62
-28.27
-36.26
-43.61
-49.5
-53.63
-56.41
-58.84
-62.26
-67.98
-76.88
-89.14
-103.94
-119.24
-131.89
-138.2
-134.79
-119.73
-93.44
-58.83
-20.55
16.2
47.27
70.33
85.06
92.47
94.09
91.23
84.85
75.79
65.02
53.98
44.3
37.55
34.75
36.1
40.95
48.07
55.97
63.32
69.15
72.91
74.44
73.8
71.14
66.72
60.84
53.88
46.24
38.32
30.42
22.7
15.32
8.33
1.76
-4.47
-10.53
-16.77
-23.55
-31.06
-39.19
-47.43
-55.06
-61.44
-66.27
-69.85
-72.97
-76.8
-82.59
-91.39
-103.6
-118.48
-133.8
-145.9
-150.46
-143.76
-124.16
-92.91
-54.02
-13.11
24.34
54.48
75.67
88.29
93.82
93.93
90.06
83.28
74.7
65.52
57.16
50.94
47.8
48.07
51.4
56.91
63.53
70.28
76.43
81.51
85.18
87.09
86.82
84.06
78.81
71.52
62.98
54.11
45.65
37.83
30.53
23.44
16.35
9.32
2.56
-3.71
-9.52
-15.17
-21.13
-27.76
-35.14
-43.0
-50.85
-58.09
-64.42
-69.92
-75.13
-81.01
-88.77
-99.48
-113.57
-130.3
-147.39
-161.21
-167.5
-162.65
-145.04
-115.75
-78.49
-38.54
-1.09
30.0
53.01
68.01
76.11
78.53
76.15
69.64
59.86
48.22
36.74
27.57
22.41
21.99
25.89
32.8
41.0
48.95
55.51
60.19
62.86
63.64
62.69
60.06
55.78
49.89
42.63
34.47
26.07
18.12
11.11
5.16
-0.09
-5.25
-11.07
-18.01
-26.13
-34.95
-43.62
-51.22
-57.04
-60.95
-63.4
-65.48
-68.52
-73.92
-82.65
-94.94
-109.83
-125.03
-137.13
-142.21
-136.94
-119.76
-91.56
-55.61
-16.78
19.96
50.79
73.73
88.59
96.31
98.18
95.38
88.91
79.81
69.38
59.15
50.64
45.01
42.82
43.97
47.81
53.47
59.99
66.49
72.21
76.52
78.92
79.09
76.92
72.51
66.22
58.58
50.23
41.8
33.69
26.12
19.06
12.41
6.14
0.37
-4.75
-9.19
-13.13
-17.03
-21.41
-26.62
-32.63
-39.04
-45.2
-50.61
-55.17
-59.28
-63.83
-70.01
-78.95
-91.26
-106.51
-122.78
-136.67
-143.9
-140.54
-124.48
-96.36
-59.63
-19.57
18.33
49.91
73.06
87.66
94.86
96.18
93.03
86.53
77.74
67.81
58.04
49.79
44.21
41.99
43.15
47.18
53.08
59.69
65.96
71.12
74.67
76.29
75.77
73.0
68.03
61.17
53.03
44.32
35.69
27.44
19.58
11.89
4.21
-3.45
-10.83
-17.63
-23.71
-29.24
-34.68
-40.56
-47.16
-54.42
-61.83
-68.72
-74.5
-79.0
-82.59
-86.14
-90.91
-98.13
-108.6
-122.04
-136.76
-149.55
-156.29
-153.03
-137.4
-109.63
-72.73
-31.72
7.84
41.42
66.49
82.61
90.73
92.34
88.67
80.73
69.41
56.04
42.47
30.78
22.79
19.5
20.84
25.89
33.2
41.35
49.19
55.9
60.98
64.05
64.9
63.45
59.83
54.34
47.44
39.61
31.37
23.15
15.3
8.05
1.57
-4.12
-9.17
-13.85
-18.61
-23.88
-29.94
-36.66
-43.56
-49.94
-55.17
-59.05
-62.0
-64.98
-69.28
-76.17
-86.59
-100.64
-117.25
-133.89
-146.74
-151.48
-144.53
-124.42
-92.59
-53.12
-11.63
26.42
57.09
78.62
91.18
96.02
94.74
88.83
79.64
68.53
57.0
46.62
38.75
34.26
33.47
36.08
41.36
48.39
56.26
64.21
71.61
77.92
82.57
84.88
84.33
80.75
74.54
66.63
58.21
50.3
43.28
36.91
30.55
23.63
15.97
7.92
0.21
-6.49
-11.97
-16.51
-20.82
-25.65
-31.46
-38.12
-44.98
-51.17
-55.97
-59.24
-61.52
-64.05
-68.39
-75.99
-87.64
-102.91
-119.81
-134.78
-143.38
-141.43
-126.48
-98.85
-61.86
-20.84
18.38
51.16
75.02
89.75
96.61
97.33
93.43
86.06
76.2
65.01
53.92
44.4
37.65
34.24
34.12
36.7
41.21
46.92
53.2
59.5
65.14
69.34
71.26
70.34
66.48
60.21
52.49
44.4
36.73
29.77
23.24
16.61
9.46
1.73
-6.21
-13.84
-20.67
-26.69
-32.19
-37.78
-43.88
-50.56
-57.4
-63.68
-68.76
-72.42
-75.07
-77.77
-81.96
-89.07
-100.03
-114.67
-131.3
-146.7
-156.6
-156.81
-144.58
-119.77
-85.09
-45.46
-6.42
27.39
53.21
70.41
79.73
82.46
79.8
72.65
61.92
48.87
35.26
23.18
14.57
10.75
12.07
17.89
26.82
37.23
47.63
56.89
64.33
69.56
72.35
72.5
69.93
64.63
56.82
46.96
35.79
24.19
13.06
3.15
-5.16
-11.97
-17.76
-23.25
-29.13
-35.81
-43.25
-51.07
-58.55
-65.02
-70.05
-73.63
-76.33
-79.27
-83.88
-91.55
-103.12
-118.24
-134.88
-149.43
-157.37
-154.54
-138.59
-110.0
-72.16
-30.38
9.63
43.3
68.19
83.93
91.56
92.65
88.63
80.68
69.99
58.01
46.47
37.17
31.52
30.18
32.94
38.95
47.02
55.93
64.73
72.56
78.78
82.81
84.24
82.91
78.97
72.89
65.34
56.95
48.18
39.33
30.5
21.79
13.44
5.81
-0.71
-5.97
-10.17
-13.88
-17.89
-22.8
-28.79
-35.51
-42.23
-48.25
-53.17
-57.15
-60.89
-65.51
-72.33
-82.55
-96.77
-114.29
-132.79
-148.27
-155.96
-151.72
-133.54
-102.5
-62.65
-19.76
20.37
53.46
77.52
92.57
99.88
101.03
97.38
90.07
80.17
69.03
58.17
49.22
43.53
41.85
44.15
49.7
57.25
65.37
72.77
78.54
82.19
83.57
82.66
79.45
73.99
66.39
56.98
46.3
35.11
24.21
14.24
5.58
-1.72
-7.98
-13.75
-19.69
-26.29
-33.66
-41.51
-49.2
-56.06
-61.64
-65.94
-69.44
-72.97
-77.56
-84.26
-93.9
-106.73
-121.95
-137.41
-149.65
-154.6
-148.79
-130.67
-101.33
-64.34
-24.8
12.26
43.07
65.79
80.33
87.58
88.72
84.78
76.65
65.46
52.85
41.0
32.24
28.42
30.25
37.1
47.16
58.15
68.04
75.56
80.38
82.76
83.05
81.41
77.72
71.71
63.34
52.97
41.48
29.99
19.58
10.97
4.23
-1.21
-6.36
-12.17
-19.16
-27.18
-35.51
-43.17
-49.44
-54.18
-57.9
-61.62
-66.63
-74.13
-85.01
-99.49
-116.75
-134.65
-149.78
-157.97
-155.42
-139.94
-111.93
-74.46
-32.59
8.12
43.07
69.61
87.23
96.93
100.34
98.98
93.96
86.24
76.88
67.24
58.92
53.35
51.38
53.11
57.84
64.46
71.75
78.67
84.49
88.67
90.84
90.66
87.99
82.88
75.65
66.96
57.52
47.94
38.55
29.48
20.69
12.22
4.27
-2.87
-8.98
-14.14
-18.75
-23.37
-28.47
-34.21
-40.24
-45.94
-50.74
-54.43
-57.45
-60.81
-65.85
-73.83
-85.45
-100.36
-116.76
-131.46
-140.41
-139.65
-126.63
-101.21
-65.98
-25.63
14.35
49.22
76.05
94.0
103.88
107.25
105.68
100.46
92.56
82.95
72.82
63.54
56.39
52.29
51.56
53.89
58.46
64.2
69.99
74.84
77.96
78.86
77.31
73.34
67.27
59.68
51.28
42.75
34.61
27.06
19.99
13.11
6.22
-0.69
-7.39
-13.56
-19.02
-23.83
-28.36
-33.02
-38.07
-43.48
-48.93
-53.94
-58.21
-61.78
-65.11
-69.09
-74.87
-83.59
-95.92
-111.64
-129.15
-145.37
-156.18
-157.47
-146.58
-123.29
-90.26
-52.22
-14.55
18.25
43.57
60.79
70.62
74.25
72.71
66.79
57.33
45.6
33.36
22.69
15.47
12.9
15.22
21.7
30.92
41.16
50.81
58.67
64.0
66.57
66.43
63.87
59.2
52.8
45.08
36.53
27.73
19.23
11.5
4.73
-1.15
-6.52
-11.9
-17.81
-24.56
-32.13
-40.18
-48.04
-54.95
-60.28
-63.82
-65.86
-67.26
-69.25
-73.23
-80.38
-91.29
-105.45
-120.97
-134.46
-141.69
-138.76
-123.42
-96.08
-59.99
-20.32
17.41
48.9
71.98
86.54
93.81
95.42
92.73
86.75
78.31
68.45
58.5
49.97
44.16
41.88
43.2
47.58
53.98
61.25
68.31
74.33
78.71
81.06
81.08
78.66
73.87
67.09
58.93
50.13
41.29
32.8
24.79
17.21
9.99
3.19
-3.02
-8.46
-13.1
-17.12
-21.02
-25.35
-30.49
-36.43
-42.74
-48.76
-53.98
-58.29
-62.14
-66.45
-72.36
-81.0
-93.1
-108.56
-125.9
-142.05
-152.71
-153.42
-141.07
-115.26
-78.75
-36.71
4.9
41.04
68.77
87.41
97.83
101.62
100.3
95.09
86.98
77.04
66.46
56.56
48.6
43.54
41.83
43.4
47.71
53.9
60.99
67.97
73.89
77.92
79.39
77.87
73.32
66.14
57.07
46.95
36.55
26.39
16.67
7.49
-1.13
-9.07
-16.2
-22.52
-28.21
-33.68
-39.43
-45.76
-52.68
-59.75
-66.34
-71.86
-76.19
-79.7
-83.31
-88.17
-95.4
-105.77
-119.31
-134.91
-150.2
-161.51
-164.68
-156.28
-134.96
-102.22
-62.31
-20.97
16.26
45.64
65.75
77.17
81.44
80.11
74.24
64.61
52.22
38.68
26.13
16.89
12.62
13.88
19.95
29.15
39.45
49.16
57.21
63.23
67.27
69.48
69.81
68.08
64.02
57.55
48.96
38.98
28.66
19.07
11.08
4.9
0.1
-4.25
-9.28
-15.8
-23.96
-33.18
-42.41
-50.56
-56.97
-61.61
-65.19
-68.88
-74.06
-82.01
-93.54
-108.52
-125.58
-141.86
-153.31
-155.71
-145.88
-122.97
-89.05
-48.6
-7.35
29.52
58.52
78.39
89.77
94.16
93.25
88.31
80.31
70.27
59.46
49.47
41.85
37.79
37.79
41.58
48.3
56.73
65.66
74.05
81.07
86.12
88.81
88.93
86.43
81.46
74.4
65.78
56.22
46.33
36.59
27.3
18.59
10.57
3.27
-3.33
-9.41
-15.32
-21.54
-28.36
-35.68
-43.0
-49.58
-54.83
-58.61
-61.46
-64.46
-69.07
-76.73
-88.45
-104.27
-122.63
-140.23
-152.38
-154.25
-142.5
-116.63
-79.49
-36.41
6.44
43.91
72.92
92.72
104.13
108.65
107.7
102.44
93.89
83.2
71.76
61.13
52.77
47.7
46.3
48.24
52.57
58.07
63.57
68.17
71.35
72.81
72.39
69.95
65.51
59.24
51.58
43.07
34.22
25.41
16.89
8.88
1.55
-4.91
-10.48
-15.41
-20.2
-25.35
-31.24
-37.81
-44.64
-51.13
-56.81
-61.54
-65.61
-69.66
-74.58
-81.4
-91.12
-104.21
-120.2
-137.0
-151.01
-157.75
-153.25
-135.5
-105.46
-66.92
-25.38
13.61
45.95
69.62
84.51
91.6
92.19
87.44
78.34
66.08
52.25
38.88
28.1
21.67
20.43
24.1
31.42
40.55
49.74
57.7
63.82
67.96
70.13
70.26
68.1
63.35
55.97
46.35
35.36
24.16
13.92
5.44
-1.12
-6.18
-10.71
-15.72
-22.01
-29.82
-38.73
-47.85
-56.15
-62.83
-67.61
-70.91
-73.65
-77.16
-82.76
-91.53
-103.83
-118.86
-134.33
-146.59
-151.29
-144.59
-124.73
-92.79
-52.7
-10.11
29.27
61.26
83.98
97.61
103.54
103.43
98.61
90.09
78.84
66.17
53.78
43.5
36.89
34.8
37.17
43.2
51.57
60.86
69.81
77.42
82.98
86.09
86.48
84.13
79.28
72.46
64.35
55.71
47.11
38.81
30.68
22.48
14.06
5.56
-2.52
-9.62
-15.41
-20.15
-24.62
-29.76
-36.21
-43.94
-52.23
-60.05
-66.59
-71.67
-75.9
-80.49
-86.9
-96.42
-109.7
-126.21
-143.9
-159.08
-167.11
-163.65
-146.18
-115.17
-74.23
-29.12
14.02
50.38
77.52
95.2
104.64
107.46
105.11
98.69
89.26
78.15
66.97
57.34
50.6
47.51
48.1
51.8
57.65
64.6
71.7
78.23
83.67
87.58
89.49
88.96
85.79
80.15
72.74
64.59
56.66
49.4
42.61
35.61
27.64
18.47
8.52
-1.21
-9.67
-16.28
-21.19
-25.19
-29.4
-34.66
-41.25
-48.7
-56.12
-62.61
-67.63
-71.41
-74.85
-79.37
-86.5
-97.37
-112.13
-129.49
-146.43
-158.65
-161.54
-151.68
-128.19
-93.35
-52.09
-10.5
26.0
54.08
72.81
83.12
86.69
84.98
79.0
69.51
57.48
44.4
32.15
22.63
17.22
16.5
20.13
27.06
35.81
44.87
53.0
59.39
63.7
65.83
65.8
63.6
59.2
52.67
44.32
34.76
24.81
15.22
6.55
-0.94
-7.34
-12.97
-18.27
-23.7
-29.51
-35.77
-42.17
-48.23
-53.42
-57.47
-60.56
-63.32
-66.72
-71.81
-79.54
-90.51
-104.59
-120.56
-135.82
-146.61
-148.77
-139.13
-116.71
-83.48
-43.85
-3.37
32.84
61.46
81.35
93.01
97.69
96.7
91.13
81.91
70.25
57.68
46.0
36.91
31.61
30.61
33.68
40.01
48.47
57.75
66.6
73.9
78.79
80.73
79.53
75.46
69.06
61.09
52.34
43.45
34.78
26.38
18.17
10.05
2.06
-5.6
-12.71
-19.17
-25.16
-31.09
-37.39
-44.3
-51.69
-59.1
-65.92
-71.67
-76.24
-79.99
-83.76
-88.72
-96.13
-106.98
-121.24
-137.42
-152.23
-161.12
-159.47
-144.19
-115.08
-75.29
-30.44
13.03
49.9
77.24
94.64
103.39
105.37
102.19
94.98
84.73
72.68
60.42
49.74
42.16
38.54
38.94
42.8
49.18
57.12
65.69
74.04
81.28
86.54
89.07
88.38
84.52
78.0
69.8
61.02
52.61
45.07
38.34
31.94
25.22
17.77
9.67
1.47
-6.04
-12.3
-17.3
-21.66
-26.36
-32.23
-39.52
-47.8
-56.15
-63.61
-69.72
-74.7
-79.51
-85.56
-94.34
-106.89
-123.19
-141.66
-158.92
-170.31
-171.13
-158.19
-131.17
-93.01
-49.12
-5.74
31.9
60.73
79.99
90.63
94.2
92.13
85.5
75.25
62.52
48.86
36.18
26.36
20.82
20.08
23.72
30.5
38.81
47.13
54.32
59.72
63.09
64.4
63.69
61.03
56.49
50.24
42.63
34.09
25.19
16.57
8.8
2.23
-3.11
-7.63
-12.09
-17.32
-23.94
-31.96
-40.89
-49.79
-57.77
-64.28
-69.34
-73.55
-77.83
-83.34
-91.19
-102.16
-116.26
-132.25
-147.22
-157.05
-157.3
-144.75
-118.76
-81.74
-38.69
4.39
42.23
71.55
91.38
102.46
106.27
104.17
97.21
86.29
72.64
58.06
44.72
34.77
29.65
29.8
34.62
42.76
52.61
62.68
71.79
79.12
84.1
86.45
86.11
83.18
77.99
70.93
62.43
52.9
42.75
32.43
22.39
12.95
4.4
-3.19
-9.97
-16.21
-22.33
-28.71
-35.59
-42.96
-50.41
-57.41
-63.41
-68.24
-72.3
-76.64
-82.78
-92.22
-105.86
-123.33
-142.54
-159.65
-169.76
-168.3
-152.5
-122.59
-82.03
-36.54
7.65
45.49
74.2
93.26
103.74
107.12
104.82
98.03
88.04
76.44
65.19
56.13
50.62
49.17
51.5
56.78
63.99
72.13
80.39
88.11
94.72
99.74
102.73
103.36
101.48
97.17
90.83
82.96
74.12
64.58
54.38
43.49
31.96
20.25
9.11
-0.74
-8.98
-15.91
-22.36
-29.22
-36.98
-45.49
-54.05
-61.8
-68.17
-73.16
-77.36
-81.87
-88.01
-97.1
-109.92
-126.06
-143.37
-158.03
-165.13
-160.29
-141.22
-108.84
-67.2
-22.26
19.96
54.98
80.63
96.87
104.94
106.32
102.25
93.7
81.74
67.81
53.79
41.74
33.37
29.58
30.28
34.55
41.03
48.33
55.32
61.25
65.62
68.06
68.26
66.06
61.53
54.94
46.72
37.42
27.61
17.87
8.77
0.78
-5.86
-11.27
-15.89
-20.39
-25.34
-31.05
-37.35
-43.74
-49.57
-54.38
-58.06
-61.01
-63.98
-67.93
-73.94
-82.99
-95.57
-111.16
-127.91
-142.44
-150.47
-148.02
-132.77
-105.19
-68.54
-28.03
10.77
43.49
67.75
83.18
90.72
91.72
87.4
78.74
66.75
52.91
39.2
27.86
20.87
19.33
23.13
31.05
41.25
51.85
61.36
68.93
74.21
77.11
77.62
75.73
71.47
65.01
56.62
46.86
36.42
26.07
16.56
8.32
1.36
-4.73
-10.67
-17.13
-24.47
-32.58
-40.95
-48.83
-55.54
-60.68
-64.35
-67.2
-70.36
-75.27
-83.35
-95.56
-111.75
-130.3
-147.9
-160.06
-162.18
-150.98
-125.8
-89.14
-46.06
-2.71
35.49
65.18
85.48
97.35
102.46
102.31
97.87
89.88
79.32
67.67
56.81
48.54
44.06
43.74
47.1
53.12
60.59
68.38
75.6
81.6
85.93
88.29
88.51
86.57
82.58
76.86
69.83
62.03
53.91
45.77
37.72
29.77
21.93
14.3
7.0
0.09
-6.57
-13.34
-20.52
-28.26
-36.27
-44.06
-51.05
-57.01
-62.19
-67.37
-73.69
-82.42
-94.51
-110.22
-128.47
-146.62
-160.57
-165.65
-158.07
-136.37
-102.3
-60.48
-17.0
22.38
53.78
75.82
89.06
95.07
95.41
91.28
83.54
73.12
61.31
49.73
40.05
33.66
31.33
33.07
38.16
45.4
53.38
60.82
66.83
70.93
73.0
73.08
71.23
67.5
61.91
54.66
46.08
36.68
27.05
17.68
9.03
1.27
-5.66
-12.13
-18.66
-25.79
-33.77
-42.46
-51.19
-59.11
-65.43
-69.81
-72.5
-74.36
-76.63
-80.72
-87.9
-98.92
-113.39
-129.45
-143.61
-151.43
-148.75
-133.18
-105.17
-68.03
-27.07
12.03
44.81
68.87
83.91
91.0
91.68
87.34
79.05
67.77
54.71
41.49
30.03
22.07
18.74
20.23
25.77
33.93
43.08
51.84
59.21
64.65
67.85
68.66
67.01
62.96
56.73
48.75
39.62
29.97
20.4
11.37
3.18
-4.06
-10.42
-16.15
-21.66
-27.43
-33.81
-40.84
-48.19
-55.21
-61.21
-65.81
-69.09
-71.77
-74.95
-79.94
-88.0
-99.94
-115.71
-133.82
-151.09
-163.01
-164.74
-152.85
-126.65
-88.8
-44.7
-0.73
37.59
66.96
86.55
97.3
100.94
99.12
93.09
83.93
72.89
61.42
51.12
43.47
39.38
39.09
42.22
48.0
55.46
63.65
71.67
78.65
83.8
86.39
85.95
82.38
76.02
67.59
57.99
48.04
38.3
28.96
20.0
11.35
3.06
-4.51
-10.94
-15.94
-19.62
-22.63
-25.86
-30.15
-35.74
-42.19
-48.59
-54.0
-57.98
-60.89
-63.78
-68.16
-75.52
-86.95
-102.57
-121.07
-139.33
-152.8
-156.51
-146.64
-122.11
-85.21
-41.14
3.59
43.14
73.75
94.19
105.28
108.8
106.61
100.23
90.86
79.59
67.62
56.3
47.0
40.88
38.61
40.18
44.96
51.84
59.58
67.09
73.56
78.41
81.26
81.74
79.61
74.84
67.64
58.57
48.31
37.61
27.06
17.16
8.19
0.3
-6.56
-12.66
-18.45
-24.46
-31.12
-38.6
-46.67
-54.78
-62.22
-68.37
-72.99
-76.43
-79.6
-83.88
-90.79
-101.5
-116.2
-133.6
-150.57
-162.67
-165.2
-154.77
-130.68
-95.31
-53.62
-11.49
25.92
55.34
75.63
87.25
91.31
89.02
81.38
69.51
54.94
39.67
25.97
15.95
10.99
11.38
16.3
24.13
33.04
41.57
48.88
54.78
59.29
62.22
63.04
61.03
55.64
47.03
36.11
24.39
13.47
4.49
-2.32
-7.63
-12.7
-18.83
-26.74
-36.2
-46.14
-55.13
-62.05
-66.63
-69.58
-72.29
-76.44
-83.37
-93.88
-107.83
-123.81
-139.01
-149.47
-150.91
-140.13
-116.3
-81.56
-40.55
0.97
37.88
66.92
87.05
98.93
103.94
103.41
98.35
89.58
78.05
65.2
52.93
43.21
37.63
36.95
40.74
47.65
55.82
63.56
69.82
74.22
76.87
77.93
77.32
74.74
69.9
62.73
53.57
43.15
32.38
22.12
13.02
5.32
-1.24
-7.3
-13.69
-21.07
-29.59
-38.75
-47.57
-55.03
-60.52
-64.21
-66.94
-70.04
-74.95
-82.87
-94.5
-109.6
-126.71
-142.8
-153.66
-154.78
-142.9
-117.24
-80.2
-36.72
7.14
46.02
76.53
97.56
109.79
114.74
113.84
108.27
98.98
87.15
74.33
62.45
53.33
48.27
47.62
50.71
56.21
62.61
68.75
74.0
78.25
81.55
83.68
84.12
82.12
77.07
68.83
58.02
45.81
33.7
22.95
14.17
7.11
0.84
-5.87
-14.0
-23.84
-34.83
-45.83
-55.59
-63.28
-68.85
-73.06
-77.2
-82.75
-90.97
-102.61
-117.52
-134.34
-150.24
-161.3
-163.36
-153.38
-130.62
-97.14
-57.35
-16.66
20.1
49.67
70.72
83.43
88.67
87.44
80.74
69.69
55.83
41.18
28.09
18.62
14.15
14.9
19.97
27.72
36.36
44.55
51.54
57.1
61.12
63.31
63.09
59.93
53.71
44.99
34.99
25.19
16.72
9.98
4.46
-0.93
-7.32
-15.34
-24.83
-34.83
-44.01
-51.25
-56.18
-59.42
-62.45
-67.15
-75.22
-87.44
-103.29
-120.66
-136.0
-145.01
-143.78
-129.94
-103.68
-67.88
-27.43
12.19
46.45
72.71
90.42
100.47
104.27
103.03
97.55
88.57
77.1
64.75
53.44
45.0
40.64
40.61
44.17
49.95
56.4
62.24
66.78
69.77
71.26
71.24
69.52
65.74
59.62
51.25
41.25
30.65
20.58
11.89
4.81
-1.09
-6.74
-13.14
-20.95
-30.2
-40.22
-49.86
-57.96
-63.78
-67.38
-69.65
-72.07
-76.34
-83.89
-95.44
-110.61
-127.57
-143.1
-152.96
-152.94
-140.16
-114.18
-77.55
-35.11
7.26
44.47
73.37
93.08
104.56
109.5
109.5
105.7
98.87
89.85
79.84
70.37
62.97
58.75
58.06
60.5
65.2
71.02
76.93
82.06
85.76
87.55
87.15
84.49
79.77
73.33
65.61
57.1
48.19
39.12
30.08
21.25
12.82
4.96
-2.06
-8.15
-13.39
-18.14
-22.95
-28.32
-34.5
-41.37
-48.41
-55.01
-60.74
-65.55
-69.9
-74.82
-81.64
-91.69
-105.71
-123.19
-141.86
-157.73
-165.93
-162.19
-144.44
-113.77
-74.35
-32.14
6.97
38.76
61.32
74.84
80.67
80.33
75.07
65.95
54.08
41.08
28.89
19.58
14.7
14.87
19.6
27.47
36.64
45.38
52.51
57.48
60.25
61.05
60.08
57.41
53.08
47.18
39.93
31.74
23.17
14.81
7.26
0.95
-4.07
-8.15
-12.0
-16.44
-22.1
-29.04
-36.73
-44.21
