0
19.71
15.24
9.69
3.45
-2.98
-9.17
-14.87
-20.12
-25.22
-30.7
-37.11
-44.77
-53.46
-62.29
-69.75
-74.09
-73.89
-68.52
-58.33
-44.49
-28.58
-12.18
3.36
17.03
28.03
35.76
39.89
40.54
38.25
34.01
28.93
24.01
19.93
16.99
15.22
14.5
14.64
15.43
16.63
17.93
18.93
19.22
18.46
16.45
13.22
9.05
4.34
-0.52
-5.24
-9.86
-14.59
-19.84
-26.06
-33.52
-42.2
-51.56
-60.49
-67.43
-70.72
-69.07
-62.04
-50.26
-35.21
-18.84
-2.96
11.12
22.65
31.32
37.04
39.85
39.95
37.81
34.19
29.97
25.97
22.72
20.33
18.7
17.58
16.76
16.23
16.0
16.06
16.24
16.16
15.35
13.33
9.81
4.86
-1.09
-7.42
-13.54
-19.07
-24.04
-28.82
-33.99
-40.11
-47.51
-56.0
-64.86
-72.84
-78.35
-79.86
-76.33
-67.57
-54.29
-37.99
-20.49
-3.49
11.77
24.56
34.5
41.41
45.25
46.16
44.57
41.3
37.36
33.74
31.08
29.6
29.12
29.25
29.64
30.04
30.4
30.68
30.82
30.65
29.91
28.33
25.67
21.85
17.02
11.5
5.73
0.07
-5.3
-10.4
-15.46
-20.79
-26.72
-33.44
-40.97
-48.96
-56.56
-62.49
-65.23
-63.54
-56.9
-45.71
-31.16
-14.86
1.68
17.28
31.07
42.37
50.52
55.0
55.56
52.53
46.82
39.74
32.6
26.4
21.63
18.27
16.01
14.46
13.37
12.68
12.45
12.68
13.13
13.35
12.76
10.96
7.92
3.98
-0.33
-4.53
-8.47
-12.27
-16.26
-20.7
-25.78
-31.59
-38.17
-45.48
-53.22
-60.63
-66.53
-69.53
-68.47
-62.82
-52.92
-39.85
-25.16
-10.37
3.26
14.91
24.14
30.78
34.8
36.31
35.56
32.95
29.05
24.53
20.12
16.42
13.84
12.52
12.31
12.91
13.89
14.83
15.37
15.23
14.18
12.12
9.08
5.24
0.84
-3.88
-8.76
-13.88
-19.46
-25.82
-33.16
-41.34
-49.73
-57.24
-62.49
-64.17
-61.42
-54.12
-42.92
-29.13
-14.35
-0.12
12.37
22.3
29.3
33.29
34.41
33.05
29.7
25.02
19.67
14.3
9.45
5.56
2.92
1.61
1.44
1.94
2.49
2.45
1.38
-0.8
-3.89
-7.57
-11.52
-15.59
-19.81
-24.32
-29.36
-35.21
-42.19
-50.48
-59.87
-69.54
-78.08
-83.72
-84.8
-80.29
-70.14
-55.29
-37.48
-18.7
-0.85
14.69
27.11
36.12
41.85
44.64
44.96
43.31
40.25
36.36
32.26
28.53
25.6
23.72
22.9
22.96
23.6
24.42
24.98
24.9
23.87
21.72
18.43
14.17
9.19
3.76
-1.97
-8.03
-14.65
-22.22
-31.01
-40.97
-51.46
-61.15
-68.31
-71.16
-68.48
-59.99
-46.42
-29.31
-10.6
7.88
24.61
38.54
49.03
55.8
58.93
58.84
56.21
51.88
46.67
41.27
36.2
31.82
28.38
26.04
24.77
24.35
24.32
24.13
23.2
21.13
17.78
13.31
8.08
2.5
-3.09
-8.56
-13.96
-19.53
-25.62
-32.59
-40.57
-49.3
-57.97
-65.23
-69.42
-69.06
-63.27
-52.16
-36.83
-19.05
-0.84
16.05
30.4
41.51
49.16
53.38
54.37
52.47
48.17
42.17
35.33
28.61
22.88
18.77
16.47
15.73
15.99
16.61
17.04
16.95
16.18
14.65
12.25
8.91
4.59
-0.59
-6.43
-12.8
-19.75
-27.54
-36.35
-46.0
-55.61
-63.63
-68.22
-67.74
-61.35
-49.35
-33.04
-14.39
4.48
21.8
36.33
47.39
54.67
58.14
57.99
54.66
48.92
41.8
34.5
28.05
23.15
20.03
18.44
17.83
17.56
17.04
15.81
13.63
10.46
6.45
1.83
-3.18
-8.44
-13.94
-19.83
-26.36
-33.85
-42.54
-52.47
-63.17
-73.5
-81.68
-85.67
-83.72
-75.01
-59.96
-40.21
-18.07
4.02
24.11
40.95
53.92
62.87
67.91
69.29
67.4
62.86
56.48
49.21
42.03
35.78
31.0
27.95
26.53
26.4
27.0
27.78
28.15
27.64
25.99
23.11
19.13
14.31
9.0
3.48
-2.12
-7.91
-14.26
-21.72
-30.77
-41.49
-53.2
-64.41
-73.02
-76.84
-74.29
-64.89
-49.43
-29.77
-8.25
12.85
31.77
47.36
59.05
66.67
70.35
70.48
67.71
62.95
57.23
51.54
46.64
42.9
40.33
38.71
37.73
37.14
36.74
36.36
35.73
34.53
32.39
29.06
24.43
18.61
11.96
4.93
-2.0
-8.52
-14.64
-20.77
-27.61
-35.88
-45.84
-56.96
-67.83
-76.4
-80.59
-78.89
-70.85
-57.23
-39.69
-20.4
-1.45
15.41
29.02
38.8
44.64
46.8
45.81
42.39
37.34
31.54
25.8
20.79
16.95
14.47
13.25
13.07
13.63
14.61
15.73
16.64
16.95
16.3
14.46
11.46
7.59
3.28
-1.13
-5.58
-10.34
-15.93
-22.86
-31.33
-41.01
-50.91
-59.54
-65.21
-66.46
-62.47
-53.28
-39.76
-23.41
-6.03
10.68
25.33
36.92
44.87
48.98
49.43
46.81
41.99
35.97
29.71
23.96
19.21
15.68
13.39
12.23
12.02
12.44
13.11
13.52
13.15
11.54
8.44
3.85
-1.94
-8.38
-14.9
-21.02
-26.62
-32.0
-37.74
-44.56
-52.85
-62.47
-72.46
-81.27
-86.98
-87.91
-83.08
-72.47
-57.1
-38.7
-19.24
-0.54
16.04
29.69
40.03
46.99
50.68
51.43
49.81
46.62
42.81
39.22
36.43
34.58
33.5
32.88
32.48
32.24
32.17
32.26
32.3
31.89
30.53
27.85
23.73
18.29
11.92
5.13
-1.6
-7.92
-13.7
-19.14
-24.69
-30.97
-38.47
-47.28
-56.83
-65.86
-72.65
-75.46
-73.06
-65.08
-52.2
-35.88
-17.93
-0.11
16.22
30.21
41.34
49.33
54.02
55.49
54.14
50.77
46.39
42.07
38.57
36.18
34.78
34.0
33.47
32.95
32.39
31.84
31.29
30.58
29.45
27.55
24.56
20.31
14.88
8.55
1.81
-4.82
-10.99
-16.61
-21.89
-27.28
-33.24
-40.16
-48.17
-57.04
-66.15
-74.45
-80.58
-83.13
-81.0
-73.75
-61.8
-46.42
-29.32
-12.28
3.24
16.25
26.21
32.91
36.35
36.79
34.73
30.93
26.27
21.59
17.48
14.27
12.04
10.73
10.29
10.58
11.4
12.4
13.13
13.15
12.14
10.01
6.86
2.95
-1.45
-6.1
-10.9
-15.89
-21.31
-27.48
-34.68
-42.9
-51.65
-59.88
-66.13
-68.89
-67.02
-60.14
-48.72
-33.99
-17.61
-1.29
13.57
25.96
35.33
41.47
44.43
44.43
41.93
37.58
32.18
26.55
21.41
17.25
14.29
12.51
11.75
11.72
12.02
12.17
11.66
10.07
7.23
3.22
-1.7
-7.18
-12.91
-18.71
-24.51
-30.47
-36.87
-44.2
-52.87
-62.88
-73.59
-83.5
-90.58
-92.81
-88.89
-78.64
-63.08
-44.03
-23.57
-3.53
14.64
30.03
42.0
50.26
54.83
56.13
54.91
52.13
48.67
45.19
42.04
39.33
37.06
35.22
33.87
33.07
32.83
33.01
33.28
33.13
32.0
29.4
25.15
19.39
12.64
5.59
-1.18
-7.41
-13.27
-19.28
-26.05
-34.11
-43.64
-54.24
-64.87
-73.93
-79.5
-79.83
-73.85
-61.56
-44.13
-23.52
-2.0
18.33
35.94
49.91
59.85
65.79
68.08
67.36
64.46
60.26
55.56
50.93
46.74
43.14
40.2
37.91
36.25
35.18
34.57
34.3
34.12
33.68
32.52
30.17
26.35
21.08
14.72
7.92
1.25
-4.94
-10.77
-16.65
-23.25
-31.12
-40.49
-51.07
-61.89
-71.4
-77.75
-79.22
-74.84
-64.6
-49.57
-31.59
-12.69
5.28
21.01
33.67
42.84
48.39
50.41
49.28
45.61
40.29
34.27
28.43
23.49
19.89
17.75
16.92
17.08
17.81
18.68
19.32
19.42
18.71
17.03
14.37
10.9
6.89
2.63
-1.72
-6.3
-11.45
-17.61
-25.04
-33.48
-42.1
-49.53
-54.2
-54.74
-50.4
-41.27
-28.31
-13.07
2.69
17.42
30.01
39.83
46.61
50.24
50.74
48.28
43.32
36.61
29.16
22.03
16.05
11.68
8.92
7.39
6.46
5.43
3.71
0.9
-3.07
-7.96
-13.31
-18.66
-23.74
-28.57
-33.44
-38.84
-45.26
-53.04
-62.17
-72.13
-81.84
-89.71
-93.91
-92.87
-85.74
-72.72
-55.08
-34.86
-14.31
4.59
20.44
32.53
40.73
45.27
46.64
45.44
42.34
38.04
33.24
28.54
24.42
21.12
18.74
17.19
16.25
15.68
15.18
14.45
13.22
11.27
8.42
4.66
0.09
-5.1
-10.7
-16.64
-23.05
-30.28
-38.7
-48.42
-58.9
-68.86
-76.38
-79.42
-76.46
-67.0
-51.76
-32.45
-11.32
9.43
28.04
43.3
54.6
61.8
65.13
65.15
62.59
58.28
53.05
47.6
42.5
38.13
34.68
32.22
30.69
29.87
29.49
29.14
28.42
26.97
24.54
21.05
16.59
11.35
5.6
-0.47
-6.82
-13.52
-20.77
-28.81
-37.7
-47.16
-56.4
-64.12
-68.75
-68.83
-63.51
-52.87
-37.99
-20.63
-2.81
13.69
27.63
38.32
45.51
49.25
49.76
47.45
42.94
37.05
30.73
24.81
19.93
16.37
14.13
12.98
12.57
12.53
12.47
12.09
11.14
9.49
7.13
4.15
0.69
-3.17
-7.47
-12.44
-18.44
-25.85
-34.71
-44.5
-54.02
-61.56
-65.31
-64.01
-57.29
-45.79
-30.97
-14.59
1.66
16.39
28.66
37.84
43.58
45.86
44.96
41.5
36.35
30.46
24.71
19.75
15.94
13.33
11.77
10.94
10.49
10.11
9.56
8.6
7.02
4.67
1.49
-2.52
-7.26
-12.7
-18.87
-25.97
-34.22
-43.61
-53.67
-63.36
-71.16
-75.39
-74.7
-68.47
-57.07
-41.74
-24.24
-6.44
10.08
24.21
35.35
43.21
47.75
49.09
47.57
43.78
38.54
32.78
27.4
23.07
20.09
18.43
17.79
17.71
17.74
17.43
16.43
14.56
11.74
8.08
3.77
-0.98
-6.09
-11.59
-17.67
-24.64
-32.76
-42.14
-52.47
-62.91
-72.06
-78.17
-79.58
-75.17
-64.81
-49.44
-30.79
-11.0
7.97
24.63
38.05
47.82
53.88
56.45
56.04
53.36
49.3
44.76
40.44
36.81
34.0
32.0
30.73
30.14
30.15
30.56
31.02
31.06
30.14
27.85
24.0
18.71
12.4
5.65
-0.94
-7.03
-12.68
-18.31
-24.66
-32.34
-41.47
-51.47
-61.0
-68.27
-71.53
-69.5
-61.79
-48.95
-32.34
-13.79
4.79
21.79
36.06
46.95
54.22
57.96
58.48
56.36
52.42
47.6
42.79
38.66
35.5
33.25
31.7
30.6
29.87
29.46
29.28
29.1
28.55
27.23
24.85
21.23
16.36
10.33
3.36
-4.23
-12.01
-19.59
-26.84
-33.98
-41.52
-49.91
-59.03
-67.93
-74.89
-77.95
-75.66
-67.61
-54.64
-38.45
-21.11
-4.38
10.46
22.72
32.0
38.09
40.89
40.56
37.56
32.74
27.17
21.89
17.64
14.83
13.45
13.25
13.84
14.8
15.7
16.2
16.0
14.9
12.87
10.01
6.52
2.64
-1.51
-5.95
-10.87
-16.6
-23.47
-31.56
-40.57
-49.6
-57.29
-62.08
-62.63
-58.19
-48.89
-35.63
-19.94
-3.52
12.05
25.53
36.11
43.44
47.55
48.76
47.6
44.72
40.81
36.46
32.18
28.36
25.27
23.11
22.02
21.95
22.71
23.87
24.87
25.16
24.35
22.38
19.4
15.8
11.99
8.36
5.16
2.48
0.13
-2.5
-6.38
-12.53
-21.57
-33.2
-45.97
-57.61
-65.64
-68.25
-64.83
-56.1
-43.76
-29.85
-16.23
-4.29
5.09
11.43
14.6
14.84
12.74
9.17
5.14
1.53
-1.09
-2.49
-2.76
-2.16
-0.99
0.39
1.67
2.53
2.71
2.08
0.62
-1.56
-4.28
-7.38
-10.75
-14.33
-18.15
-22.36
-27.24
-33.19
-40.54
-49.37
-59.24
-69.08
-77.31
-82.12
-82.02
-76.22
-64.93
-49.26
-31.0
-12.13
5.61
20.99
33.31
42.37
48.27
51.3
51.86
50.47
47.74
44.3
40.71
37.4
34.67
32.67
31.45
30.96
31.0
31.23
31.18
30.36
28.44
25.31
21.08
16.01
10.41
4.55
-1.4
-7.41
-13.63
-20.37
-27.95
-36.44
-45.35
-53.54
-59.37
-61.19
-57.93
-49.45
-36.62
-21.1
-4.8
10.53
23.63
33.72
40.55
44.14
44.73
42.71
38.61
33.07
26.87
20.83
15.7
12.0
9.86
9.02
8.91
8.92
8.56
7.63
6.13
4.17
1.82
-0.92
-4.17
-8.03
-12.62
-18.11
-24.71
-32.58
-41.65
-51.32
-60.39
-67.12
-69.77
-67.07
-58.77
-45.76
-29.78
-12.85
3.25
17.32
28.73
37.19
42.55
44.67
43.63
39.82
34.06
27.43
21.07
15.86
12.22
10.16
9.32
9.14
9.03
8.52
7.26
5.17
2.34
-1.0
-4.67
-8.6
-12.88
-17.75
-23.5
-30.44
-38.75
-48.39
-58.84
-69.03
-77.34
-81.95
-81.25
-74.45
-61.83
-44.7
-25.05
-5.02
13.56
29.41
41.81
50.51
55.58
57.36
56.44
53.55
49.52
45.09
40.84
37.13
34.14
31.95
30.55
29.86
29.69
29.71
29.52
28.7
26.96
24.14
20.25
15.42
9.83
3.62
-3.15
-10.55
-18.76
-27.93
-37.96
-48.26
-57.69
-64.67
-67.61
-65.32
-57.41
-44.42
-27.69
-9.06
9.55
26.46
40.42
50.74
57.17
59.87
59.23
55.82
50.33
43.62
36.6
30.12
24.85
21.06
18.72
17.44
16.75
16.13
15.11
13.31
10.44
6.4
1.25
-4.73
-11.21
-17.93
-24.77
-31.91
-39.69
-48.57
-58.89
-70.67
-83.3
-95.49
-105.38
-110.96
-110.63
-103.67
-90.5
-72.47
-51.42
-29.23
-7.48
12.61
30.17
44.6
55.67
63.47
68.36
70.87
71.51
70.72
68.89
66.46
63.86
61.5
59.51
57.78
55.93
53.58
50.46
46.55
41.98
36.91
31.42
25.49
19.03
11.92
3.97
-5.02
-15.11
-25.98
-36.72
-45.84
-51.59
-52.46
-47.72
-37.71
-23.71
-7.63
8.56
23.26
35.37
44.35
50.01
52.34
51.51
47.9
42.16
35.18
27.97
21.45
16.24
12.59
10.39
9.26
8.75
8.37
7.71
6.44
4.37
1.45
-2.22
-6.47
-11.18
-16.39
-22.35
-29.4
-37.82
-47.58
-58.22
-68.65
-77.32
-82.46
-82.51
-76.59
-64.77
-48.17
-28.67
-8.45
10.52
26.83
39.68
48.79
54.25
56.33
55.49
52.32
47.6
42.12
36.69
31.91
28.22
25.8
24.61
24.38
24.67
24.93
24.68
23.58
21.53
18.57
14.78
10.27
5.13
-0.54
-6.65
-13.18
-20.27
-28.27
-37.43
-47.66
-58.15
-67.38
-73.38
-74.3
-69.06
-57.71
-41.48
-22.33
-2.48
16.09
31.99
44.42
53.11
58.18
60.02
59.19
56.42
52.47
48.06
43.75
39.91
36.72
34.25
32.51
31.47
31.05
31.03
31.03
30.6
29.23
26.58
22.5
17.14
10.86
4.15
-2.53
-8.84
-14.73
-20.5
-26.69
-33.92
-42.52
-52.22
-61.92
-69.85
-73.97
-72.66
-65.28
-52.37
-35.53
-16.9
1.45
17.87
31.35
41.37
47.82
50.78
50.57
47.73
43.02
37.38
31.68
26.67
22.75
20.03
18.36
17.53
17.27
17.42
17.74
17.93
17.54
16.08
13.22
8.91
3.49
-2.46
-8.31
-13.65
-18.51
-23.29
-28.63
-35.16
-43.1
-52.04
-60.84
-67.8
-71.05
-69.16
-61.56
-48.82
-32.43
-14.45
3.12
18.64
31.11
40.05
45.42
47.44
46.58
43.5
39.0
33.84
28.69
24.01
20.06
16.95
14.72
13.27
12.45
11.98
11.5
10.65
9.09
6.62
3.18
-1.16
-6.21
-11.7
-17.39
-23.19
-29.19
-35.74
-43.25
-51.92
-61.44
-70.81
-78.42
-82.51
-81.61
-75.06
-63.23
-47.32
-29.13
-10.51
6.93
22.01
34.0
42.56
47.66
49.57
48.81
46.13
42.35
38.26
34.41
31.12
28.46
26.39
24.87
23.91
23.57
23.76
24.19
24.36
23.64
21.54
17.84
12.68
6.56
0.07
-6.24
-12.05
-17.4
-22.65
-28.4
-35.3
-43.7
-53.44
-63.62
-72.68
-78.68
-79.92
-75.38
-65.06
-49.99
-31.86
-12.6
6.02
22.67
36.44
46.85
53.71
57.17
57.62
55.7
52.19
47.93
43.63
39.81
36.65
34.11
32.01
30.19
28.65
27.48
26.77
26.4
25.99
24.95
22.76
19.16
14.26
8.46
2.28
-3.82
-9.59
-15.0
-20.25
-25.73
-31.9
-39.14
-47.51
-56.47
-64.88
-71.18
-73.78
-71.58
-64.27
-52.37
-37.15
-20.26
-3.37
12.05
24.92
34.59
40.8
43.63
43.44
40.82
36.55
31.48
26.43
22.02
18.59
16.16
14.56
13.55
12.93
12.5
12.12
11.56
10.6
9.05
6.79
3.84
0.28
-3.77
-8.24
-13.1
-18.39
-24.27
-30.92
-38.45
-46.62
-54.7
-61.42
-65.26
-64.89
-59.62
-49.68
-36.11
-20.46
-4.38
10.7
23.69
33.89
40.88
44.55
45.05
42.82
38.49
32.82
26.58
20.53
15.26
11.19
8.48
6.97
6.28
5.93
5.44
4.49
2.85
0.47
-2.64
-6.43
-10.83
-15.73
-20.99
-26.58
-32.56
-39.21
-46.79
-55.36
-64.42
-72.84
-78.95
-81.01
-77.78
-68.9
-55.08
-37.9
-19.29
-1.17
14.99
28.23
38.05
44.29
47.04
46.63
43.61
38.77
33.01
27.27
22.34
18.75
16.61
15.72
15.61
15.72
15.54
14.74
13.14
10.77
7.76
4.27
0.5
-3.45
-7.57
-12.03
-17.12
-23.27
-30.85
-39.93
-50.05
-60.09
-68.37
-73.05
-72.57
-66.2
-54.22
-37.92
-19.18
-0.01
17.88
33.27
45.45
54.11
59.23
61.05
60.12
57.22
53.25
49.05
45.18
41.91
39.26
37.12
35.41
34.08
33.09
32.24
31.28
29.84
27.62
24.41
20.18
15.05
9.24
3.04
-3.34
-9.82
-16.51
-23.78
-32.01
-41.37
-51.48
-61.27
-69.1
-73.16
-71.98
-64.95
-52.51
-36.03
-17.44
1.27
18.4
32.77
43.72
50.98
54.55
54.71
51.96
47.09
41.08
34.98
29.67
25.67
23.1
21.72
21.12
20.88
20.66
20.19
19.23
17.59
15.12
11.81
7.81
3.33
-1.42
-6.36
-11.59
-17.41
-24.21
-32.26
-41.48
-51.27
-60.38
-67.21
-70.07
-67.78
-60.02
-47.51
-31.76
-14.69
1.92
16.73
28.85
37.84
43.5
45.8
44.97
41.52
36.31
30.37
24.68
20.0
16.71
14.8
14.01
13.89
13.94
13.67
12.76
11.03
8.51
5.37
1.8
-2.12
-6.44
-11.39
-17.28
-24.41
-32.96
-42.75
-53.1
-62.73
-69.92
-72.9
-70.44
-62.28
-49.22
-32.93
-15.42
1.51
16.54
28.9
38.19
44.23
46.96
46.54
43.39
38.27
32.13
25.96
20.64
16.7
14.27
13.08
12.57
12.11
11.21
9.64
7.43
4.81
1.93
-1.21
-4.77
-9.06
-14.38
-20.98
-29.02
-38.53
-49.14
-60.03
-69.85
-76.82
-79.2
-75.81
-66.41
-51.87
-33.91
-14.57
4.18
20.94
34.83
45.41
52.53
56.16
56.51
54.04
49.54
44.0
38.46
33.76
30.34
28.27
27.34
27.14
27.21
27.11
26.44
24.9
22.31
18.69
14.24
9.22
3.87
-1.73
-7.71
-14.36
-22.06
-31.02
-41.01
-51.26
-60.33
-66.44
-67.87
-63.54
-53.37
-38.42
-20.54
-1.88
15.69
30.89
43.07
51.94
57.46
59.61
58.62
54.98
49.58
43.52
37.84
33.25
30.01
28.01
26.98
26.58
26.46
26.27
25.56
23.92
21.11
17.14
12.31
7.03
1.67
-3.63
-9.06
-15.04
-22.03
-30.38
-40.06
-50.48
-60.39
-68.06
-71.67
-69.83
-62.02
-48.84
-31.84
-13.11
5.22
21.42
34.36
43.46
48.64
50.14
48.53
44.55
39.11
33.13
27.42
22.56
18.91
16.54
15.28
14.81
14.73
14.6
14.04
12.78
10.63
7.56
3.64
-0.97
-6.06
-11.48
-17.13
-23.09
-29.54
-36.76
-44.82
-53.49
-61.98
-68.99
-72.91
-72.25
-66.09
-54.44
-38.4
-19.8
-0.85
16.51
30.92
41.71
48.68
51.97
51.85
48.77
43.49
37.02
30.48
24.83
20.64
18.03
16.79
16.53
16.81
17.17
17.09
16.1
13.83
10.16
5.3
-0.32
-6.24
-12.16
-18.02
-24.04
-30.69
-38.46
-47.65
-58.01
-68.52
-77.38
-82.4
-81.62
-74.01
-59.85
-40.66
-18.84
2.99
22.58
38.38
49.7
56.6
59.63
59.62
57.41
53.8
49.43
44.87
40.66
37.26
35.05
34.23
34.72
36.21
38.07
39.44
39.4
37.16
32.27
24.84
15.48
5.1
-5.43
-15.53
-25.06
-34.18
-43.19
-52.39
-61.87
-71.43
-80.4
-87.64
-91.6
-90.74
-83.99
-71.28
-53.61
-32.88
-11.3
9.16
27.15
41.94
53.23
60.96
65.23
66.34
64.9
61.78
57.98
54.35
51.46
49.47
48.19
47.28
46.4
45.4
44.28
43.16
42.06
40.84
39.11
36.44
32.47
27.13
20.65
13.47
6.1
-1.04
-7.69
-13.82
-19.59
-25.38
-31.73
-39.14
-47.93
-57.95
-68.4
-77.85
-84.47
-86.47
-82.61
-72.59
-57.21
-38.18
-17.7
2.05
19.36
33.19
43.17
49.36
52.05
51.77
49.12
44.89
39.96
35.2
31.31
28.65
27.24
26.74
26.71
26.74
26.63
26.35
25.9
25.15
23.76
21.29
17.41
12.12
5.81
-0.88
-7.35
-13.31
-18.83
-24.32
-30.26
-37.08
-44.88
-53.37
-61.67
-68.46
-72.18
-71.47
-65.61
-54.83
-40.21
-23.37
-6.04
10.29
24.46
35.64
43.31
47.25
47.65
45.15
40.71
35.43
30.18
25.56
21.86
19.14
17.37
16.46
16.26
16.45
16.61
16.21
14.83
12.2
8.32
3.46
-1.93
-7.42
-12.72
-17.81
-22.97
-28.62
-35.22
-43.1
-52.24
-62.2
-71.97
-80.09
-84.83
-84.65
-78.63
-66.85
-50.47
-31.45
-12.01
5.92
21.02
32.71
40.86
45.66
47.41
46.54
43.71
39.77
35.66
32.12
29.51
27.81
26.73
25.93
25.25
24.72
24.43
24.36
24.23
23.56
21.8
18.55
13.75
7.68
0.94
-5.82
-12.07
-17.59
-22.54
-27.4
-32.86
-39.51
-47.6
-56.82
-66.15
-74.04
-78.7
-78.61
-72.97
-61.92
-46.56
-28.58
-9.89
7.91
23.62
36.58
46.45
53.12
56.67
57.38
55.79
52.71
49.09
45.74
43.18
41.55
40.68
40.24
39.89
39.44
38.82
38.04
37.07
35.85
34.22
31.9
28.62
24.17
18.59
12.19
5.49
-0.97
-6.87
-12.21
-17.3
-22.61
-28.57
-35.48
-43.39
-52.01
-60.68
-68.24
-73.27
-74.31
-70.37
-61.26
-47.7
-31.16
-13.44
3.73
18.94
31.23
40.02
45.12
46.72
45.39
41.97
37.41
32.64
28.37
25.02
22.7
21.28
20.53
20.15
19.92
19.72
19.46
19.05
18.31
17.02
14.91
11.83
7.8
3.02
-2.18
-7.48
-12.69
-17.86
-23.32
-29.48
-36.67
-44.82
-53.26
-60.76
-65.82
-67.06
-63.73
-55.88
-44.36
-30.53
-15.88
-1.74
10.86
21.21
28.85
33.57
35.41
34.69
31.99
28.03
23.54
19.1
15.1
11.78
9.26
7.62
6.8
6.63
6.79
6.86
6.43
5.21
3.07
0.08
-3.61
-7.76
-12.21
-16.88
-21.9
-27.56
-34.28
-42.29
-51.36
-60.6
-68.59
-73.62
-74.33
-70.0
-60.87
-47.92
-32.63
-16.61
-1.31
12.1
22.84
30.48
34.98
36.59
35.75
33.03
29.01
24.33
19.59
15.38
12.12
9.99
8.85
8.39
8.18
7.84
7.07
5.66
3.45
0.34
-3.65
-8.36
-13.5
-18.83
-24.23
-29.85
-36.06
-43.28
-51.67
-60.94
-70.14
-77.78
-82.13
-81.69
-75.64
-64.15
-48.41
-30.25
-11.65
5.7
20.72
32.84
41.88
47.84
50.8
51.07
49.17
45.82
41.81
37.83
34.36
31.64
29.74
28.63
28.23
28.37
28.75
28.99
28.69
27.45
25.03
21.39
16.68
11.27
5.57
-0.05
-5.48
-10.94
-16.95
-24.14
-32.84
-42.79
-52.94
-61.64
-67.02
-67.57
-62.53
-52.15
-37.53
-20.32
-2.3
14.91
30.03
42.18
50.83
55.8
57.33
56.03
52.77
48.53
44.14
40.17
36.84
34.11
31.86
30.0
28.53
27.51
26.86
26.36
25.59
24.09
21.53
17.76
12.96
7.43
1.55
-4.43
-10.4
-16.47
-22.89
-30.03
-38.15
-47.23
-56.71
-65.45
-71.84
-74.3
-71.66
-63.65
-50.93
-34.93
-17.44
-0.18
15.45
28.49
38.36
44.8
47.86
47.86
45.36
41.08
35.79
30.24
25.1
20.9
17.97
16.4
15.96
16.24
16.7
16.87
16.41
15.17
13.12
10.3
6.74
2.51
-2.32
-7.69
-13.55
-19.98
-27.18
-35.27
-44.15
-53.19
-61.19
-66.59
-67.89
-64.1
-55.13
-41.81
-25.63
-8.36
8.36
23.24
35.38
44.21
49.41
51.01
49.34
45.12
39.34
33.03
27.07
22.03
18.18
15.55
14.01
13.35
13.26
13.3
12.97
11.83
9.63
6.39
2.28
-2.41
-7.48
-12.84
-18.53
-24.65
-31.38
-38.96
-47.55
-57.07
-66.92
-75.88
-82.22
-84.18
-80.46
-70.77
-55.88
-37.52
-17.75
1.45
18.55
32.61
43.14
50.05
53.51
53.94
51.96
48.4
44.13
39.88
36.15
33.18
30.99
29.48
28.57
28.16
28.07
27.98
27.46
26.09
23.63
20.08
15.65
10.67
5.41
0.02
-5.5
-11.34
-17.78
-25.18
-33.8
-43.55
-53.81
-63.26
-70.14
-72.66
-69.59
-60.66
-46.66
-29.24
-10.32
8.25
25.05
39.17
50.06
57.49
61.45
62.18
60.18
56.19
51.11
45.79
40.92
36.88
33.88
31.88
30.78
30.39
30.44
30.5
30.13
28.88
26.41
22.66
17.8
12.22
6.38
0.66
-4.78
-10.06
-15.61
-22.02
-29.78
-38.99
-49.11
-58.88
-66.56
-70.4
-69.06
-62.09
-50.01
-34.21
-16.53
1.12
17.12
30.31
40.03
46.08
48.6
48.02
44.99
40.32
34.86
29.42
24.66
21.0
18.59
17.34
16.94
16.97
16.96
16.52
15.34
13.29
10.39
6.72
2.44
-2.27
-7.24
-12.33
-17.51
-22.99
-29.1
-36.21
-44.35
-53.02
-61.0
-66.66
-68.4
-65.15
-56.78
-44.1
-28.61
-12.04
3.99
18.21
29.71
37.89
42.49
43.56
41.5
37.08
31.31
25.24
19.76
15.45
12.54
10.89
10.16
9.91
9.72
9.22
8.16
6.41
3.92
0.81
-2.81
-6.83
-11.28
-16.31
-22.25
-29.39
-37.88
-47.51
-57.55
-66.82
-73.73
-76.73
-74.61
-66.87
-53.95
-37.18
-18.51
0.03
16.67
30.26
40.26
46.61
49.55
49.5
47.01
42.75
37.51
32.1
27.21
23.34
20.63
19.02
18.2
17.77
17.29
16.34
14.66
12.11
8.75
4.73
0.2
-4.75
-10.07
-15.84
-22.23
-29.49
-37.93
-47.68
-58.47
-69.3
-78.56
-84.29
-84.74
-78.97
-67.14
-50.51
-31.01
-10.79
8.28
24.77
37.87
47.23
52.93
55.34
55.05
52.74
49.12
44.93
40.76
37.15
34.38
32.53
31.47
30.97
30.73
30.45
29.86
28.65
26.54
23.36
19.11
13.99
8.31
2.41
-3.49
-9.37
-15.43
-22.05
-29.68
-38.57
-48.55
-58.78
-67.74
-73.49
-74.21
-68.78
-57.22
-40.71
-21.28
-1.2
17.51
33.43
45.79
54.39
59.4
61.24
60.49
57.83
54.02
49.77
45.72
42.29
39.64
37.67
36.15
34.83
33.59
32.52
31.71
31.14
30.48
29.16
26.58
22.38
16.63
9.84
2.7
-4.14
-10.39
-16.14
-21.84
-28.09
-35.41
-43.94
-53.26
-62.29
-69.43
-72.99
-71.61
-64.66
-52.52
-36.39
-18.06
0.53
17.64
31.95
42.66
49.47
52.52
52.24
49.34
44.68
39.18
33.71
28.96
25.36
23.02
21.74
21.16
20.87
20.49
19.75
18.47
16.54
13.89
10.51
6.44
1.82
-3.19
-8.41
-13.77
-19.37
-25.52
-32.54
-40.59
-49.38
-58.03
-65.16
-69.15
-68.61
-62.8
-51.86
-36.89
-19.65
-2.21
13.51
26.12
34.91
39.82
41.27
39.9
36.47
31.71
26.38
21.2
16.73
13.3
10.93
9.46
8.66
8.29
8.16
8.02
7.55
6.37
4.17
0.86
-3.36
-8.22
-13.44
-18.87
-24.6
-30.82
-37.79
-45.78
-54.81
-64.55
-74.04
-81.76
-85.88
-84.8
-77.69
-64.84
-47.62
-28.04
-8.25
10.0
25.51
37.71
46.4
51.67
53.78
53.07
50.08
45.5
40.15
34.89
30.46
27.34
25.65
25.16
25.49
26.18
26.88
27.23
26.93
25.66
23.18
19.36
14.32
8.4
2.04
-4.36
-10.55
-16.53
-22.52
-28.97
-36.26
-44.48
-53.1
-60.9
-66.15
-67.07
-62.51
-52.45
-38.02
-21.21
-4.2
11.21
23.95
33.65
40.39
44.45
46.13
45.78
43.82
40.79
37.3
33.93
31.11
29.0
27.54
26.53
25.72
24.95
24.1
23.11
21.79
19.84
16.89
12.7
7.31
1.08
-5.46
-11.82
-17.76
-23.44
-29.35
-36.13
-44.21
-53.57
-63.44
-72.39
-78.5
-79.93
-75.46
-64.87
-49.03
-29.72
-9.11
10.76
28.28
42.37
52.54
58.66
60.99
60.07
56.67
51.72
46.12
40.68
35.96
32.29
29.77
28.34
27.79
27.81
28.04
28.07
27.5
25.98
23.3
19.39
14.4
8.62
2.5
-3.57
-9.38
-15.0
-20.79
-27.31
-35.02
-44.07
-54.0
-63.65
-71.39
-75.43
-74.34
-67.47
-55.18
-38.77
-20.19
-1.59
15.14
28.7
38.45
44.36
46.85
46.55
44.14
40.31
35.67
30.79
26.21
22.37
19.53
17.84
17.19
17.31
17.78
18.09
17.77
16.47
14.09
10.68
6.45
1.61
-3.7
-9.45
-15.6
-22.25
-29.52
-37.61
-46.58
-56.09
-65.21
-72.34
-75.69
-73.78
-66.04
-53.07
-36.43
-18.13
-0.05
16.39
30.28
41.09
48.51
52.39
52.82
50.23
45.33
39.05
32.4
26.21
21.15
17.56
15.52
14.77
14.88
15.25
15.34
14.66
12.89
9.91
5.76
0.68
-4.97
-10.81
-16.51
-21.98
-27.42
-33.35
-40.41
-49.08
-59.23
-69.86
-79.13
-84.78
-84.81
-78.15
-65.06
-47.02
-26.28
-5.16
14.42
31.15
44.23
53.31
58.31
59.54
57.7
53.79
48.93
44.04
39.73
36.23
33.56
31.63
30.33
29.61
29.34
29.35
29.38
29.13
28.29
26.54
23.61
19.37
13.92
7.57
0.8
-5.95
-12.47
-18.91
-25.81
-33.83
-43.36
-54.22
-65.41
-75.26
-81.81
-83.36
-78.93
-68.49
-52.96
-33.9
-13.21
7.18
25.58
40.66
51.56
57.97
60.1
58.57
54.33
48.39
41.77
35.36
29.84
25.61
22.8
21.27
20.66
20.54
20.54
20.32
19.63
18.29
16.17
13.18
9.34
4.78
-0.26
-5.51
-10.77
-16.06
-21.7
-28.21
-36.08
-45.37
-55.4
-64.72
-71.36
-73.44
-69.72
-60.04
-45.36
-27.46
-8.46
9.65
25.35
37.68
46.25
51.05
52.31
50.47
46.13
40.08
33.23
26.54
20.81
16.48
13.62
11.95
11.08
10.58
10.15
9.52
8.48
6.82
4.4
1.18
-2.76
-7.31
-12.41
-18.1
-24.57
-32.04
-40.67
-50.26
-60.08
-68.85
-74.87
-76.4
-72.25
-62.21
-47.16
-28.89
-9.53
8.95
25.1
38.07
47.44
53.05
54.98
53.5
49.18
42.84
35.48
28.09
21.54
16.41
12.94
11.03
10.28
10.16
10.09
9.65
8.55
6.65
3.84
0.09
-4.55
-9.89
-15.67
-21.71
-28.08
-35.16
-43.44
-53.2
-64.05
-74.76
-83.41
-87.88
-86.42
-78.25
-63.78
-44.48
-22.59
-0.49
19.65
36.3
48.63
56.45
60.01
59.9
56.9
51.96
46.06
40.14
34.93
30.79
27.79
25.81
24.63
24.05
23.87
23.78
23.33
22.02
19.5
15.65
10.73
5.17
-0.54
-6.12
-11.54
-17.05
-23.04
-30.0
-38.26
-47.79
-57.92
-67.26
-73.84
-75.58
-70.99
-59.68
-42.62
-21.9
-0.05
20.55
38.21
52.06
61.88
67.82
70.21
69.47
66.15
60.99
54.84
48.59
42.95
38.38
35.03
32.81
31.5
30.83
30.55
30.43
30.16
29.38
27.72
24.81
20.49
14.89
8.41
1.6
-5.03
-11.18
-16.94
-22.75
-29.3
-37.19
-46.54
-56.74
-66.34
-73.33
-75.7
-72.09
-62.29
-47.33
-29.11
-9.9
8.31
24.07
36.48
45.11
49.8
50.71
48.33
43.52
37.35
30.95
25.23
20.76
17.75
16.11
15.55
15.68
16.04
16.22
15.88
14.83
13.04
10.55
7.46
3.84
-0.27
-4.85
-9.94
-15.65
-22.21
-29.82
-38.48
-47.71
-56.48
-63.23
-66.33
-64.48
-57.22
-45.08
-29.48
-12.28
4.65
19.81
32.28
41.57
47.52
50.15
49.58
46.17
40.54
33.63
26.52
20.19
15.36
12.26
10.72
10.26
10.28
10.19
9.54
8.07
5.72
2.58
-1.12
-5.23
-9.63
-14.41
-19.76
-25.97
-33.35
-42.02
-51.74
-61.71
-70.53
-76.41
-77.6
-72.93
-62.3
-46.71
-28.1
-8.67
9.57
25.25
37.67
46.61
52.11
54.35
53.62
50.45
45.65
40.26
35.37
31.88
30.31
30.62
32.3
34.5
36.37
37.31
37.2
36.31
35.16
34.12
33.2
32.05
30.08
26.85
22.14
16.11
9.1
1.68
