0
15.3
15.81
16.73
17.84
18.86
19.51
19.61
19.08
17.97
16.43
14.68
12.94
11.37
10.02
8.82
7.64
6.37
4.91
3.25
1.38
-0.66
-2.77
-4.8
-6.53
-7.73
-8.31
-8.41
-8.39
-8.69
-9.66
-11.39
-13.64
-16.07
-18.36
-20.42
-22.38
-24.59
-27.38
-30.98
-35.32
-40.06
-44.54
-47.92
-49.38
-48.32
-44.67
-38.89
-31.86
-24.6
-17.98
-12.47
-8.14
-4.74
-1.91
0.66
3.15
5.67
8.22
10.77
13.25
15.49
17.28
18.4
18.76
18.48
17.85
17.29
17.09
17.34
17.92
18.56
19.05
19.29
19.26
18.96
18.32
17.26
15.74
13.94
12.1
10.52
9.38
8.65
8.15
7.66
6.99
6.04
4.81
3.32
1.66
-0.06
-1.77
-3.42
-5.05
-6.78
-8.66
-10.73
-12.91
-15.12
-17.3
-19.5
-21.8
-24.32
-27.11
-30.31
-34.01
-38.34
-43.22
-48.25
-52.64
-55.38
-55.59
-52.87
-47.57
-40.58
-33.1
-26.16
-20.35
-15.75
-12.07
-8.91
-5.86
-2.72
0.67
4.3
8.11
11.86
15.21
17.78
19.27
19.61
19.06
18.16
17.55
17.74
18.9
20.8
22.91
24.65
25.57
25.52
24.63
23.17
21.41
19.58
17.81
16.21
14.79
13.52
12.29
11.01
9.58
8.05
6.55
5.16
3.86
2.48
0.77
-1.5
-4.35
-7.64
-11.11
-14.45
-17.48
-20.15
-22.62
-25.19
-28.21
-32.06
-36.86
-42.39
-48.0
-52.74
-55.55
-55.6
-52.59
-46.86
-39.28
-31.03
-23.16
-16.39
-10.93
-6.56
-2.83
0.71
4.35
8.18
12.07
15.76
18.92
21.25
22.64
23.18
23.2
23.15
23.44
24.3
25.69
27.38
29.08
30.53
31.58
32.13
32.1
31.48
30.32
28.74
26.9
24.95
22.91
20.71
18.24
15.47
12.47
9.4
6.38
3.47
0.57
-2.44
-5.63
-8.96
-12.29
-15.47
-18.45
-21.32
-24.27
-27.55
-31.41
-36.08
-41.65
-47.97
-54.49
-60.29
-64.18
-65.07
-62.42
-56.42
-48.05
-38.68
-29.6
-21.63
-15.02
-9.53
-4.69
-0.07
4.6
9.43
14.32
19.06
23.32
26.83
29.43
31.15
32.17
32.76
33.15
33.51
33.91
34.45
35.14
36.0
36.88
37.5
37.54
36.71
34.9
32.25
29.07
25.79
22.75
20.16
18.01
16.03
13.83
11.06
7.51
3.27
-1.37
-6.01
-10.31
-14.11
-17.49
-20.72
-24.2
-28.41
-33.74
-40.34
-47.86
-55.44
-61.74
-65.4
-65.41
-61.59
-54.6
-45.68
-36.16
-27.04
-18.81
-11.48
-4.84
1.36
7.26
12.87
18.16
23.0
27.26
30.72
33.2
34.6
34.99
34.64
33.96
33.4
33.37
34.05
35.38
37.04
38.53
39.36
39.18
37.84
35.51
32.52
29.32
26.27
23.53
21.04
18.5
15.5
11.73
7.08
1.8
-3.65
-8.73
-13.14
-16.93
-20.51
-24.51
-29.53
-35.88
-43.41
-51.44
-58.84
-64.3
-66.55
-64.84
-59.12
-50.18
-39.36
-28.19
-17.93
-9.18
-1.97
4.13
9.64
14.93
20.11
25.11
29.7
33.6
36.55
38.38
39.08
38.88
38.26
37.72
37.67
38.22
39.18
40.2
40.86
40.88
40.14
38.64
36.46
33.73
30.54
26.96
23.06
18.84
14.35
9.66
4.9
0.22
-4.28
-8.58
-12.74
-16.97
-21.48
-26.52
-32.34
-39.02
-46.37
-53.71
-59.83
-63.29
-62.87
-58.04
-49.32
-38.11
-26.21
-15.23
-6.07
1.14
6.92
12.0
16.97
22.1
27.32
32.32
36.67
40.02
42.15
43.07
42.96
42.17
41.1
40.13
39.54
39.49
39.92
40.54
40.96
40.77
39.68
37.62
34.7
31.08
26.89
22.2
17.07
11.65
6.17
0.94
-3.8
-7.98
-11.77
-15.57
-19.86
-25.14
-31.75
-39.63
-48.19
-56.21
-62.15
-64.52
-62.46
-56.09
-46.5
-35.33
-24.22
-14.32
-6.06
0.7
6.43
11.66
16.8
22.04
27.36
32.47
36.89
40.15
41.94
42.26
41.41
39.9
38.2
36.69
35.57
34.87
34.57
34.57
34.7
34.69
34.23
33.0
30.73
27.33
22.89
17.73
12.3
7.07
2.37
-1.72
-5.36
-8.91
-12.74
-17.21
-22.53
-28.76
-35.68
-42.72
-48.89
-52.96
-53.8
-50.78
-44.1
-34.71
-23.99
-13.27
-3.43
5.2
12.68
19.17
24.78
29.49
33.31
36.3
38.62
40.43
41.74
42.43
42.38
41.54
40.09
38.42
36.98
36.11
35.92
36.19
36.5
36.38
35.48
33.65
31.07
28.03
24.89
21.86
18.95
15.96
12.62
8.74
4.27
-0.59
-5.56
-10.33
-14.72
-18.77
-22.75
-27.07
-32.18
-38.33
-45.38
-52.72
-59.28
-63.81
-65.2
-62.91
-57.1
-48.66
-38.87
-29.01
-20.01
-12.33
-5.94
-0.49
4.47
9.36
14.41
19.68
24.92
29.66
33.36
35.58
36.23
35.58
34.25
32.9
32.07
31.94
32.38
33.07
33.7
34.07
34.1
33.8
33.11
31.95
30.23
27.91
25.08
21.93
18.74
15.71
12.99
10.54
8.21
5.81
3.14
0.09
-3.35
-7.06
-10.81
-14.38
-17.62
-20.56
-23.38
-26.43
-30.13
-34.79
-40.51
-46.99
-53.5
-58.93
-62.03
-61.82
-57.92
-50.79
-41.63
-31.94
-23.02
-15.6
-9.71
-4.93
-0.72
3.31
7.34
11.43
15.5
19.44
23.02
25.93
27.89
28.76
28.69
28.02
27.18
26.5
26.15
26.13
26.38
26.74
27.04
27.08
26.65
25.67
24.16
22.27
20.21
18.11
16.02
13.93
11.82
9.69
7.54
5.38
3.13
0.73
-1.88
-4.72
-7.71
-10.77
-13.78
-16.71
-19.53
-22.31
-25.17
-28.31
-31.95
-36.26
-41.26
-46.67
-51.89
-55.98
-57.95
-57.01
-52.94
-46.18
-37.82
-29.14
-21.27
-14.76
-9.58
-5.31
-1.47
2.22
5.83
9.3
12.57
15.58
18.29
20.51
21.98
22.47
21.95
20.7
19.17
17.85
17.1
17.0
17.39
17.99
18.46
18.45
17.73
16.19
13.91
11.16
8.35
5.89
3.97
2.53
1.23
-0.34
-2.51
-5.32
-8.54
-11.82
-14.75
-17.15
-19.05
-20.7
-22.5
-24.88
-28.13
-32.3
-37.03
-41.57
-44.89
-46.0
-44.24
-39.58
-32.65
-24.57
-16.59
-9.65
-4.19
-0.11
3.03
5.75
8.38
11.05
13.71
16.21
18.38
20.04
21.03
21.2
20.54
19.22
17.55
15.91
14.61
13.78
13.4
13.33
13.37
13.35
13.14
12.62
11.73
10.47
8.89
7.11
5.24
3.32
1.33
-0.79
-3.05
-5.38
-7.68
-9.8
-11.67
-13.31
-14.84
-16.43
-18.38
-21.03
-24.67
-29.38
-34.82
-40.17
-44.29
-46.02
-44.61
-40.1
-33.25
-25.35
-17.71
-11.28
-6.41
-2.89
-0.22
2.18
4.69
7.42
10.24
12.87
15.0
16.38
16.94
16.76
16.06
15.2
14.47
14.09
14.12
14.54
15.23
16.12
17.15
18.23
19.23
19.94
20.12
19.68
18.66
17.28
15.8
14.43
13.24
12.17
11.15
10.08
8.86
7.36
5.4
2.94
0.05
-3.02
-5.96
-8.64
-11.18
-13.98
-17.52
-22.14
-27.85
-34.3
-40.76
-46.27
-49.79
-50.46
-47.85
-42.25
-34.62
-26.36
-18.84
-12.86
-8.55
-5.37
-2.6
0.31
3.5
6.84
10.05
12.94
15.39
17.36
18.73
19.38
19.24
18.43
17.3
16.34
16.02
16.61
18.04
19.96
21.81
23.07
23.35
22.59
21.01
18.99
16.93
15.05
13.39
11.81
10.19
8.48
6.68
4.86
3.0
0.99
-1.26
-3.79
-6.55
-9.44
-12.36
-15.31
-18.35
-21.53
-24.8
-28.05
-31.23
-34.46
-38.08
-42.55
-48.28
-55.26
-62.91
-70.1
-75.36
-77.35
-75.33
-69.47
-60.8
-50.84
-41.1
-32.57
-25.57
-19.83
-14.82
-10.12
-5.48
-0.83
3.82
8.45
12.99
17.21
20.79
23.36
24.77
25.18
25.05
24.92
25.24
26.21
27.76
29.64
31.59
33.37
34.77
35.59
35.67
34.89
33.27
30.99
28.37
25.75
23.42
21.48
19.85
18.32
16.63
14.61
12.16
9.33
6.21
2.91
-0.52
-4.06
-7.69
-11.3
-14.73
-17.77
-20.33
-22.44
-24.34
-26.35
-28.79
-31.88
-35.8
-40.7
-46.75
-54.01
-62.2
-70.53
-77.65
-82.01
-82.37
-78.22
-70.02
-59.03
-46.86
-34.97
-24.32
-15.27
-7.73
-1.29
4.48
9.93
15.22
20.36
25.22
29.56
33.16
35.89
37.74
38.85
39.45
39.89
40.48
41.44
42.83
44.54
46.41
48.23
49.84
51.08
51.77
51.7
50.75
48.93
46.43
43.6
40.71
37.96
35.35
32.72
29.87
26.68
23.15
19.36
15.53
11.85
8.48
5.41
2.5
-0.54
-4.01
-8.05
-12.55
-17.2
-21.6
-25.51
-28.97
-32.26
-35.82
-40.1
-45.43
-51.98
-59.58
-67.61
-74.97
-80.22
-81.95
-79.28
-72.22
-61.78
-49.6
-37.45
-26.68
-17.86
-10.86
-5.08
0.16
5.39
10.84
16.44
21.94
26.97
31.22
34.42
36.52
37.6
37.94
37.91
37.97
38.54
39.84
41.88
44.33
46.71
48.51
49.34
49.1
47.94
46.12
43.95
41.66
39.46
37.45
35.67
34.04
32.37
30.37
27.83
24.69
21.13
17.5
14.1
11.1
8.39
5.67
2.63
-0.97
-5.16
-9.8
-14.66
-19.51
-24.13
-28.43
-32.43
-36.33
-40.49
-45.36
-51.3
-58.32
-65.83
-72.68
-77.39
-78.56
-75.38
-67.9
-57.08
-44.48
-31.74
-20.17
-10.47
-2.69
3.55
8.78
13.44
17.82
22.01
26.02
29.74
33.03
35.69
37.57
38.64
39.02
39.01
39.0
39.27
39.91
40.84
41.8
42.56
42.96
42.92
42.45
41.53
40.17
38.38
36.21
33.7
30.87
27.79
24.5
21.16
17.99
15.14
12.64
10.31
7.81
4.8
1.06
-3.43
-8.46
-13.73
-18.92
-23.83
-28.39
-32.71
-37.1
-42.0
-47.76
-54.39
-61.35
-67.52
-71.47
-71.86
-67.99
-60.05
-49.1
-36.71
-24.47
-13.59
-4.63
2.44
8.04
12.68
16.77
20.51
23.86
26.68
28.81
30.21
30.96
31.28
31.4
31.55
31.86
32.31
32.83
33.37
33.93
34.54
35.16
35.62
35.59
34.74
32.85
29.98
26.45
22.77
19.34
16.37
13.73
11.08
8.07
4.48
0.33
-4.13
-8.62
-12.9
-16.85
-20.53
-24.08
-27.73
-31.76
-36.5
-42.27
-49.18
-56.89
-64.5
-70.64
-73.83
-72.93
-67.67
-58.73
-47.5
-35.64
-24.54
-15.01
-7.18
-0.7
4.98
10.42
15.93
21.56
27.04
31.93
35.77
38.27
39.44
39.59
39.23
38.88
38.92
39.5
40.59
42.0
43.43
44.58
45.19
45.04
44.08
42.35
40.08
37.53
34.94
32.49
30.18
27.89
25.41
22.54
19.17
15.39
11.44
7.58
3.97
0.62
-2.68
-6.19
-10.08
-14.34
-18.78
-23.14
-27.22
-30.99
-34.61
-38.47
-43.01
-48.67
-55.61
-63.45
-71.16
-77.24
-80.08
-78.58
-72.52
-62.67
-50.54
-37.78
-25.77
-15.26
-6.45
0.85
6.99
12.33
17.24
21.97
26.65
31.22
35.43
38.96
41.54
43.1
43.75
43.82
43.7
43.73
44.14
44.94
45.97
46.92
47.44
47.26
46.3
44.65
42.55
40.24
37.9
35.6
33.27
30.79
28.0
24.8
21.2
17.36
13.54
9.95
6.7
3.65
0.47
-3.15
-7.34
-11.99
-16.74
-21.25
-25.33
-29.01
-32.53
-36.29
-40.71
-46.17
-52.74
-60.03
-67.03
-72.26
-74.18
-71.79
-65.05
-54.97
-43.25
-31.66
-21.45
-13.09
-6.42
-0.89
4.04
8.79
13.62
18.62
23.68
28.57
32.84
36.11
38.16
39.03
39.03
38.63
38.23
38.11
38.34
38.87
39.55
40.22
40.67
40.72
40.23
39.06
37.2
34.66
31.53
27.94
24.12
20.33
16.8
13.66
10.85
8.2
5.45
2.39
-1.09
-4.87
-8.79
-12.63
-16.28
-19.73
-23.12
-26.68
-30.68
-35.4
-41.03
-47.52
-54.45
-60.98
-65.94
-68.1
-66.59
-61.22
-52.6
-41.97
-30.79
-20.34
-11.36
-4.04
1.91
6.96
11.55
15.9
19.97
23.54
26.37
28.3
29.35
29.68
29.49
29.0
28.34
27.66
27.09
26.79
26.86
27.27
27.87
28.35
28.37
27.65
26.08
23.74
20.86
17.78
14.81
12.17
9.83
7.55
4.98
1.83
-1.94
-6.15
-10.42
-14.36
-17.73
-20.58
-23.21
-26.08
-29.68
-34.43
-40.42
-47.38
-54.52
-60.66
-64.5
-64.96
-61.62
-54.81
-45.52
-35.08
-24.76
-15.44
-7.52
-1.02
4.36
8.97
13.2
17.32
21.44
25.44
29.04
31.94
33.91
34.93
35.15
34.9
34.51
34.29
34.4
34.89
35.64
36.39
36.83
36.69
35.88
34.46
32.59
30.41
28.02
25.39
22.5
19.41
16.26
13.24
10.44
7.8
5.17
2.34
-0.75
-4.08
-7.46
-10.75
-13.84
-16.8
-19.75
-22.86
-26.28
-30.2
-34.8
-40.29
-46.73
-53.88
-60.98
-66.84
-70.05
-69.48
-64.76
-56.49
-46.04
-35.1
-25.08
-16.71
-9.98
-4.45
0.47
5.16
9.82
14.49
19.17
23.83
28.3
32.28
35.37
37.29
37.99
37.77
37.13
36.54
36.32
36.58
37.2
38.01
38.76
39.2
39.08
38.2
36.58
34.43
32.1
29.91
28.04
26.43
24.86
23.17
21.27
19.24
17.16
15.07
12.92
10.65
8.21
5.57
2.65
-0.66
-4.46
-8.78
-13.45
-18.17
-22.62
-26.61
-30.18
-33.6
-37.26
-41.57
-46.78
-52.83
-59.24
-65.11
-69.25
-70.5
-68.19
-62.34
-53.77
-43.73
-33.48
-23.97
-15.64
-8.52
-2.42
2.97
7.96
12.86
17.89
23.1
28.28
33.0
36.76
39.23
40.38
40.39
39.62
38.43
37.09
35.76
34.55
33.49
32.57
31.68
30.71
29.55
28.14
26.46
24.52
22.36
20.01
17.59
15.21
13.01
11.03
9.23
7.43
5.41
2.96
-0.01
-3.49
-7.36
-11.45
-15.57
-19.51
-23.13
-26.38
-29.37
-32.36
-35.71
-39.74
-44.53
-49.81
-54.93
-58.98
-61.0
-60.22
-56.37
-49.79
-41.31
-32.09
-23.22
-15.45
-9.05
-3.82
0.61
4.63
8.43
11.97
15.12
17.72
19.71
21.1
21.99
22.47
22.71
22.82
22.92
23.08
23.34
23.69
24.07
24.38
24.51
24.33
23.7
22.6
21.05
19.15
17.06
14.86
12.6
10.26
7.85
5.37
2.92
0.5
-1.94
-4.53
-7.41
-10.6
-14.02
-17.44
-20.66
-23.56
-26.26
-29.01
-32.14
-35.95
-40.59
-45.96
-51.58
-56.61
-59.94
-60.52
-57.74
-51.72
-43.32
-33.88
-24.72
-16.71
-10.15
-4.81
-0.25
3.95
8.04
12.05
15.88
19.31
22.13
24.16
25.35
25.85
25.9
25.77
25.64
25.58
25.62
25.8
26.24
27.01
28.04
29.07
29.72
29.67
28.79
27.23
25.31
23.36
21.56
19.9
18.22
16.32
14.07
11.44
8.57
5.68
3.0
0.67
-1.31
-3.15
-5.15
-7.55
-10.47
-13.82
-17.32
-20.67
-23.6
-26.05
-28.17
-30.29
-32.88
-36.42
-41.22
-47.13
-53.44
-58.95
-62.24
-62.15
-58.25
-51.02
-41.68
-31.78
-22.66
-15.13
-9.38
-5.11
-1.8
1.12
4.08
7.33
10.94
14.81
18.63
22.07
24.83
26.73
27.76
28.11
28.06
27.95
28.08
28.65
29.69
31.02
32.38
33.41
33.9
33.7
32.85
31.48
29.78
27.93
26.11
24.49
23.11
21.92
20.77
19.4
17.6
15.28
12.5
9.53
6.67
4.18
2.16
0.43
-1.33
-3.5
-6.36
-9.92
-13.93
-17.98
-21.63
-24.65
-27.07
-29.21
-31.52
-34.48
-38.41
-43.39
-49.18
-55.21
-60.51
-63.93
-64.4
-61.3
-54.74
-45.64
-35.42
-25.6
-17.24
-10.77
-5.92
-2.11
1.31
4.72
8.3
11.96
15.55
18.9
21.82
24.17
25.84
26.8
27.13
26.97
26.59
26.26
26.22
26.61
27.4
28.39
29.27
29.68
29.41
28.42
26.89
25.1
23.41
22.01
20.96
20.17
19.39
18.38
16.97
15.11
12.9
10.53
8.24
6.21
4.5
3.03
1.57
-0.25
-2.75
-6.09
-10.15
-14.51
-18.66
-22.18
-25.02
-27.53
-30.33
-34.07
-39.04
-45.06
-51.42
-57.02
-60.64
-61.34
-58.69
-52.87
-44.68
-35.25
-25.76
-17.11
-9.81
-3.97
0.56
4.1
7.05
9.8
12.66
15.73
18.84
21.59
23.59
24.61
24.76
24.38
23.94
23.76
23.97
24.5
25.21
25.96
26.64
27.11
27.23
26.89
26.04
24.75
23.18
21.46
19.66
17.74
15.62
13.29
10.75
8.17
5.65
3.25
0.92
-1.5
-4.18
-7.24
-10.67
-14.31
-17.92
-21.33
-24.44
-27.36
-30.35
-33.8
-38.08
-43.34
-49.34
-55.37
-60.3
-62.92
-62.24
-57.92
-50.38
-40.71
-30.33
-20.59
-12.38
-6.04
-1.36
2.19
5.23
8.24
11.51
15.08
18.77
22.29
25.31
27.55
28.85
29.2
28.8
28.0
27.29
27.03
27.43
28.42
29.71
30.94
31.79
32.06
31.68
30.67
29.13
27.2
25.08
22.95
20.95
19.07
17.18
15.13
12.85
10.4
7.94
5.64
3.46
1.22
-1.38
-4.57
-8.33
-12.39
-16.32
-19.76
-22.54
-24.81
-26.97
-29.5
-32.85
-37.32
-42.89
-49.18
-55.42
-60.49
-63.2
-62.61
-58.36
-50.89
-41.29
-31.05
-21.51
-13.56
-7.41
-2.78
0.95
4.36
7.89
11.8
16.05
20.44
24.58
28.03
30.42
31.62
31.8
31.37
30.86
30.67
30.98
31.8
33.02
34.44
35.85
36.97
37.53
37.28
36.17
34.4
32.3
30.22
28.32
26.55
24.71
22.63
20.27
17.75
15.23
12.8
10.41
7.95
5.26
2.29
-0.98
-4.45
-8.0
-11.5
-14.85
-18.0
-21.02
-24.11
-27.56
-31.72
-36.8
-42.75
-49.11
-55.03
-59.33
-60.89
-58.95
-53.42
-45.01
-35.07
-25.12
-16.4
-9.48
-4.23
-0.05
3.81
7.83
12.1
16.39
20.32
23.56
25.94
27.48
28.29
28.57
28.56
28.47
28.51
28.8
29.35
30.04
30.69
31.15
31.3
31.06
30.37
29.19
27.48
25.3
22.75
20.02
17.28
14.67
12.24
9.96
7.69
5.26
2.51
-0.6
-3.97
-7.39
-10.56
-13.35
-15.82
-18.26
-21.08
-24.68
-29.23
-34.65
-40.57
-46.29
-50.92
-53.46
-53.08
-49.4
-42.74
-34.03
-24.63
-15.87
-8.61
-3.04
1.15
4.61
7.91
11.33
14.88
18.36
21.51
24.15
26.19
27.63
28.48
28.83
28.85
28.76
28.81
29.2
30.0
31.09
32.18
32.93
33.03
32.34
30.85
28.76
26.32
23.84
21.46
19.29
17.26
15.26
13.19
11.01
8.74
6.39
3.96
1.4
-1.32
-4.19
-7.15
-10.09
-12.93
-15.65
-18.27
-20.91
-23.64
-26.54
-29.78
-33.54
-38.01
-43.2
-48.75
-53.86
-57.38
-58.2
-55.67
-49.87
-41.68
-32.43
-23.49
-15.79
-9.65
-4.86
-0.96
2.51
5.84
9.17
12.62
16.25
20.05
23.83
27.2
29.73
31.12
31.33
30.72
29.78
29.0
28.67
28.78
29.19
29.66
30.02
30.14
29.98
29.49
28.69
27.6
26.31
24.92
23.53
22.18
20.88
19.5
17.91
15.93
13.45
10.52
7.34
4.2
1.35
-1.13
-3.37
-5.66
-8.3
-11.39
-14.8
-18.19
-21.21
-23.62
-25.44
-26.93
-28.44
-30.35
-32.98
-36.57
-41.15
-46.48
-51.88
-56.33
-58.62
-57.79
-53.47
-46.09
-36.77
-26.92
-17.79
-10.15
-4.18
0.35
3.92
6.99
9.94
12.98
16.18
19.47
22.66
25.48
27.66
28.99
29.4
29.02
28.13
27.13
26.44
26.36
26.99
28.18
29.58
30.78
31.39
31.17
30.11
28.35
26.21
24.01
22.0
20.27
18.75
17.22
15.49
13.42
11.01
8.45
5.99
3.89
2.23
0.97
-0.13
-1.43
-3.22
-5.65
-8.64
-11.92
-15.12
-17.99
-20.49
-22.87
-25.49
-28.7
-32.73
-37.59
-43.07
-48.76
-53.98
-57.82
-59.29
-57.65
-52.74
-45.16
-36.12
-27.05
-19.12
-12.83
-8.06
-4.32
-1.06
2.02
5.04
8.02
10.98
14.01
17.09
20.04
22.54
24.26
25.03
24.92
24.24
23.43
22.87
22.79
23.17
23.81
24.43
24.77
24.62
23.94
22.85
21.48
19.98
18.39
16.66
14.72
12.55
10.23
7.92
5.72
3.64
1.59
-0.56
-2.89
-5.41
-8.07
-10.78
-13.46
-16.05
-18.56
-21.01
-23.46
-26.07
-29.08
-32.71
-36.97
-41.58
-45.84
-48.81
-49.59
-47.6
-42.85
-35.93
-27.84
-19.66
-12.25
-6.04
-1.06
2.9
6.16
8.96
11.5
13.89
16.19
18.38
20.38
22.02
23.14
23.65
23.59
23.12
22.51
22.04
21.92
22.23
22.87
23.62
24.18
24.31
23.87
22.83
21.33
19.56
17.71
15.91
14.17
12.42
10.57
8.54
6.35
4.05
1.73
-0.58
-2.91
-5.35
-7.97
-10.74
-13.61
-16.49
-19.39
-22.35
-25.43
-28.7
-32.22
-36.11
-40.53
-45.6
-51.13
-56.54
-60.78
-62.69
-61.37
-56.65
-49.15
-40.1
-30.87
-22.47
-15.43
-9.73
-5.12
-1.25
2.16
5.34
8.51
11.84
15.37
18.98
22.36
25.11
26.96
27.81
27.82
27.35
26.85
26.7
27.09
27.99
29.13
30.2
30.91
31.15
30.95
30.4
29.57
28.49
27.09
25.37
23.4
21.28
19.07
16.71
14.14
11.3
8.28
5.32
2.62
0.25
-1.94
-4.25
-6.99
-10.32
-14.16
-18.24
-22.21
-25.75
-28.75
-31.34
-33.95
-37.11
-41.34
-46.85
-53.39
-60.11
-65.73
-68.88
-68.51
-64.24
-56.52
-46.47
-35.53
-25.11
-16.17
-9.1
-3.77
0.26
3.62
6.86
10.37
14.34
18.69
23.15
27.27
30.61
32.82
33.8
33.74
33.09
32.42
32.23
32.78
34.04
35.71
37.37
38.62
39.15
38.84
37.67
35.78
33.41
30.9
28.57
26.67
25.24
24.06
22.75
20.99
18.63
15.79
12.76
9.81
7.06
4.4
1.6
-1.55
-5.01
-8.61
-12.04
-15.13
-17.87
-20.49
-23.34
-26.7
-30.81
-35.71
-41.38
-47.63
-54.03
-59.76
-63.77
-64.96
-62.62
-56.73
-48.1
-38.06
-28.09
-19.28
-12.11
-6.45
-1.77
2.48
6.67
10.92
15.17
19.23
22.94
26.12
28.64
30.38
31.36
31.67
31.58
31.4
31.4
31.76
32.5
33.49
34.52
35.33
35.65
35.29
34.22
32.59
30.77
29.12
27.86
26.88
25.82
24.25
21.95
19.0
15.77
12.62
9.71
7.02
4.35
1.59
-1.22
-3.93
-6.44
-8.83
-11.29
-14.09
-17.39
-21.23
-25.6
-30.52
-35.99
-41.85
-47.66
-52.59
-55.65
-55.93
-53.03
-47.16
-39.18
-30.24
-21.46
-13.64
-7.08
-1.68
2.86
6.9
10.67
14.28
17.67
20.72
23.29
25.3
26.71
27.61
28.1
28.35
28.47
28.53
28.59
28.69
28.91
29.26
29.69
30.03
30.08
29.65
28.64
27.08
25.12
22.92
20.62
18.3
15.93
13.41
10.61
7.44
3.89
0.1
-3.7
-7.23
-10.37
-13.14
-15.75
-18.49
-21.68
-25.52
-30.13
-35.44
-41.2
-46.87
-51.61
-54.45
-54.51
-51.43
-45.46
-37.51
-28.78
-20.43
-13.19
-7.27
-2.42
1.8
5.77
9.72
13.65
17.47
20.97
23.96
26.31
27.9
28.74
28.97
28.8
28.53
28.41
28.6
29.14
29.91
30.71
31.34
31.57
31.26
30.38
28.98
27.24
25.36
23.53
21.75
19.9
17.8
15.29
12.42
9.38
6.46
3.81
1.4
-1.01
-3.68
-6.77
-10.17
-13.64
-16.91
-19.79
-22.3
-24.63
-27.12
-30.15
-34.03
-38.92
-44.64
-50.59
-55.79
-59.13
-59.68
-57.01
-51.37
-43.55
-34.68
-25.85
-17.93
-11.4
-6.32
-2.4
0.87
4.1
7.75
12.03
16.83
21.72
26.18
29.7
31.99
33.01
32.95
32.21
31.29
30.68
30.7
31.4
32.61
33.93
34.94
35.28
34.82
33.54
31.58
29.15
26.44
23.68
21.03
18.59
16.35
14.22
12.09
9.88
7.66
5.52
3.56
1.78
0.07
-1.78
-3.92
-6.45
-9.37
-12.59
-16.0
-19.46
-22.89
-26.24
-29.64
-33.28
-37.44
-42.28
-47.62
-52.9
-57.14
-59.25
-58.37
-54.23
-47.25
-38.43
-29.05
-20.24
-12.73
-6.71
-1.98
1.92
5.47
9.06
12.94
17.15
21.57
25.81
29.4
31.91
33.13
33.17
32.41
31.36
30.43
29.9
29.81
30.08
30.55
31.03
31.36
31.35
30.82
29.72
28.07
26.04
23.89
21.84
20.05
18.53
17.22
15.9
14.37
12.43
10.04
7.31
4.53
2.03
0.02
-1.46
-2.65
-3.87
-5.43
-7.52
-10.11
-13.04
-16.14
-19.23
-22.23
-25.11
-27.93
-30.85
-34.16
-38.16
-43.01
-48.54
-54.08
-58.59
-60.89
-60.09
-55.85
-48.63
-39.52
-29.86
-20.91
-13.47
-7.76
-3.51
-0.14
2.91
6.05
9.47
13.16
16.96
20.62
23.83
26.24
27.57
27.77
27.09
26.05
25.23
25.08
25.7
26.88
28.2
29.29
29.9
29.95
29.46
28.47
27.08
25.42
23.66
21.98
20.39
18.8
17.01
14.92
12.54
10.07
7.74
5.7
3.92
2.22
0.34
-1.9
-4.53
-7.49
-10.57
-13.55
-16.3
-18.7
-20.82
-22.83
-25.01
-27.69
-31.23
-35.81
-41.32
-47.2
-52.46
-55.88
-56.36
-53.37
-47.18
-38.79
-29.66
-21.1
-14.01
-8.59
-4.58
-1.43
1.35
4.11
6.98
9.95
12.91
15.66
17.93
19.53
20.35
20.51
20.31
20.16
20.39
21.17
22.5
24.15
25.82
27.16
27.86
27.69
26.58
24.66
22.24
19.72
17.44
15.58
14.03
12.56
10.92
8.97
6.72
4.31
1.79
-0.87
-3.76
-6.97
-10.44
-13.98
-17.3
-20.16
-22.5
-24.47
-26.41
-28.72
-31.76
-35.76
-40.67
-46.08
-51.19
-54.93
-56.22
-54.41
-49.48
-42.1
-33.48
-24.88
-17.32
-11.21
-6.47
-2.68
0.69
4.07
7.68
11.57
15.62
19.6
23.17
25.96
27.71
28.3
27.93
27.03
26.17
25.86
26.36
27.62
29.32
31.04
32.36
33.0
32.79
31.7
29.81
27.35
24.65
22.1
20.03
18.53
17.45
16.49
15.28
13.65
11.6
9.33
7.13
5.19
3.56
2.08
0.46
-1.63
-4.42
-7.93
-11.94
-16.09
-20.02
-23.5
-26.53
-29.31
-32.22
-35.67
-39.97
-45.19
-51.01
-56.59
-60.77
-62.34
-60.48
-55.08
-46.84
-37.07
-27.18
-18.3
-10.99
-5.25
-0.68
3.22
6.92
10.74
14.84
19.14
23.4
27.18
30.1
31.91
32.61
32.46
31.83
31.13
30.64
30.54
30.88
31.63
32.67
33.8
34.74
35.22
35.04
34.11
32.56
30.61
28.53
26.52
24.7
23.05
21.47
19.83
18.06
16.14
14.11
12.04
9.99
7.98
6.02
4.11
2.28
0.56
-1.09
-2.82
-4.81
-7.21
-10.05
-13.21
-16.44
-19.47
-22.17
-24.58
-26.92
-29.54
-32.79
-36.94
-42.07
-47.85
-53.57
-58.14
-60.36
-59.32
-54.74
-47.14
-37.71
-27.89
-18.92
-11.53
-5.83
-1.51
1.93
4.93
7.82
10.84
14.09
17.58
21.11
24.39
27.04
28.79
29.58
29.62
29.31
29.05
29.13
29.63
30.42
31.25
31.8
31.87
31.38
30.38
29.04
27.55
26.07
24.67
23.36
22.07
20.75
19.36
17.86
16.29
14.74
13.31
12.08
11.04
10.07
8.95
7.49
5.58
3.33
0.97
-1.27
-3.23
-4.99
-6.71
-8.62
-10.86
-13.42
-16.18
-18.95
-21.64
-24.24
-26.9
-29.88
-33.47
-37.86
-42.98
-48.4
-53.33
-56.71
-57.53
-55.19
-49.68
-41.73
-32.55
-23.49
-15.6
-9.46
-5.03
-1.88
0.55
2.74
4.99
7.46
10.2
13.16
16.18
18.94
21.06
22.2
22.29
21.58
20.59
19.83
19.69
20.26
21.35
22.65
23.86
24.69
24.95
24.54
23.42
21.71
19.65
17.54
15.65
14.08
12.81
11.73
10.67
9.51
8.16
6.59
4.85
3.06
1.37
-0.15
-1.6
-3.21
-5.25
-7.88
-10.99
-14.31
-17.49
-20.33
-22.9
-25.48
-28.46
-32.17
-36.72
-41.82
-46.8
-50.63
-52.24
-50.85
-46.34
-39.29
-30.87
-22.39
-14.85
-8.75
-4.07
-0.5
2.33
4.73
6.95
9.15
11.41
13.66
15.71
17.34
18.43
19.02
19.31
19.57
19.95
20.48
21.07
21.61
22.02
22.24
22.22
21.88
21.17
20.07
18.69
17.26
15.97
15.01
14.43
14.11
13.81
13.23
12.11
10.33
8.0
5.41
2.89
0.75
-0.95
-2.41
-3.97
-5.99
-8.65
-11.9
-15.49
-19.06
-22.3
-25.05
-27.39
-29.58
-32.12
-35.48
-39.97
-45.47
-51.31
-56.39
-59.41
-59.38
-55.93
-49.53
-41.28
-32.53
-24.51
-17.99
-13.15
-9.7
-7.07
-4.59
-1.77
1.66
5.67
10.04
14.38
18.29
21.45
23.66
24.88
25.26
25.12
24.89
24.95
25.54
26.64
28.02
29.33
30.28
30.71
30.61
30.06
29.11
27.81
26.19
24.37
22.51
20.84
19.45
18.29
17.16
15.8
14.0
11.72
9.11
6.39
3.82
1.53
-0.47
-2.33
-4.23
-6.39
-8.87
-11.69
-14.68
-17.68
-20.54
-23.23
-25.84
-28.56
-31.69
-35.53
-40.29
-45.97
-52.2
-58.19
-62.85
-65.02
-63.92
-59.38
-52.03
-43.03
-33.74
-25.3
-18.3
-12.81
-8.52
-4.96
-1.71
1.56
5.07
8.98
13.25
17.66
21.74
24.95
26.95
27.7
27.59
27.23
27.24
27.96
29.38
31.2
33.01
34.48
35.44
35.87
35.82
35.35
34.46
33.16
31.53
29.74
28.0
26.48
25.24
24.18
23.07
21.65
19.83
17.64
15.25
12.83
10.46
8.1
5.59
2.78
-0.46
-4.09
-8.02
-12.03
-15.89
-19.42
-22.55
-25.35
-28.08
-31.14
-35.0
-40.01
-46.17
-52.91
-59.15
-63.44
-64.5
-61.73
-55.39
-46.65
-37.02
-27.88
-20.05
-13.67
-8.48
-4.07
-0.11
3.62
7.31
11.15
15.26
19.58
23.73
27.17
29.39
30.17
29.74
28.68
27.67
27.27
27.72
28.93
30.55
32.16
33.36
33.94
33.82
33.07
31.87
30.4
28.82
27.25
25.72
24.22
22.73
21.17
19.44
17.47
15.21
12.65
9.87
6.88
3.73
0.43
-2.97
-6.32
-9.5
-12.43
-15.17
-17.99
-21.18
-25.1
-29.95
-35.73
-42.18
-48.74
-54.56
-58.57
-59.81
-57.64
-52.12
-43.99
-34.53
-25.07
-16.67
-9.84
-4.51
-0.26
3.46
7.12
10.98
15.09
19.26
23.15
26.36
28.6
29.75
29.97
29.6
29.08
28.76
28.9
29.61
30.8
32.29
33.7
34.64
34.75
33.87
32.1
29.8
27.39
25.24
23.5
22.08
20.73
19.15
17.15
14.7
11.95
9.17
6.61
4.43
2.61
0.93
-0.92
-3.23
-6.09
-9.42
-13.02
-16.7
-20.36
-24.0
-27.71
-31.61
-35.9
-40.79
-46.45
-52.72
-59.01
-64.23
-67.09
-66.5
-62.08
-54.33
-44.49
-34.11
-24.51
-16.45
-10.05
-4.96
-0.66
3.4
7.61
12.16
17.02
21.99
26.68
30.69
33.71
35.63
36.53
36.67
36.4
36.08
36.01
36.39
37.18
38.19
39.04
39.36
38.91
37.67
35.84
33.74
31.63
29.73
28.1
26.74
25.56
24.43
23.17
21.63
19.7
17.38
14.81
12.18
9.65
7.23
4.84
2.22
-0.83
-4.46
-8.59
-13.01
-17.37
-21.32
-24.68
-27.49
-30.03
-32.77
-36.21
-40.79
-46.66
-53.55
-60.72
-66.98
-70.91
-71.25
-67.4
-59.62
-49.1
-37.55
-26.69
-17.69
-10.91
-6.0
-2.2
1.25
4.89
8.95
13.41
18.08
22.71
26.95
30.44
32.9
34.18
34.38
33.84
33.05
32.49
32.49
33.15
34.28
35.5
36.4
36.6
35.92
34.43
32.35
30.02
27.74
25.7
23.97
22.41
20.84
19.06
16.97
14.57
11.94
9.23
6.53
3.9
1.29
-1.33
-4.03
-6.81
-9.66
-12.58
-15.56
-18.62
-21.8
-25.17
-28.84
-33.0
-37.85
-43.45
-49.52
-55.3
-59.67
-61.42
-59.75
-54.57
-46.6
-37.09
-27.44
-18.69
-11.34
-5.37
-0.4
3.99
8.15
12.21
16.17
19.86
23.07
25.57
27.23
28.06
28.22
27.97
27.65
27.53
27.8
28.53
29.66
30.95
32.07
32.66
32.48
31.42
29.63
27.44
25.24
23.32
21.71
20.24
18.6
16.52
13.92
10.94
7.89
5.02
2.42
-0.0
-2.51
-5.36
-8.63
-12.28
-16.06
-19.72
-23.1
-26.17
-29.07
-32.07
-35.54
-39.82
-45.1
-51.25
-57.66
-63.22
-66.58
-66.6
-62.74
-55.33
-45.48
-34.74
-24.57
-15.93
-9.13
-3.88
0.36
4.12
7.82
11.62
15.56
19.52
23.3
26.61
29.16
30.78
31.43
31.33
30.87
30.5
30.56
31.17
32.22
33.42
34.46
35.12
35.29
35.0
34.29
33.21
31.79
30.09
28.24
26.36
24.52
22.69
20.71
18.43
15.77
12.85
9.9
7.18
