0
3.99
4.68
5.98
7.59
9.29
10.99
12.62
14.07
15.11
15.43
14.83
13.25
10.85
7.95
4.93
2.06
-0.49
-2.69
-4.63
-6.45
-8.26
-10.17
-12.19
-14.24
-16.15
-17.78
-19.07
-20.08
-21.03
-22.25
-24.0
-26.47
-29.57
-32.92
-35.9
-37.67
-37.48
-34.77
-29.45
-21.92
-12.96
-3.58
5.26
12.83
18.7
22.74
25.02
25.73
25.13
23.47
21.02
18.11
15.1
12.41
10.4
9.32
9.21
9.96
11.28
12.88
14.52
16.03
17.28
18.1
18.26
17.51
15.69
12.79
9.08
5.04
1.23
-1.83
-3.9
-5.05
-5.6
-6.02
-6.66
-7.65
-8.85
-10.03
-10.94
-11.51
-11.84
-12.15
-12.67
-13.61
-15.15
-17.43
-20.42
-23.83
-27.05
-29.22
-29.45
-27.15
-22.25
-15.18
-6.79
1.93
10.06
16.91
22.05
25.33
26.82
26.75
25.41
23.15
20.25
17.02
13.78
10.92
8.78
7.62
7.49
8.27
9.69
11.48
13.38
15.17
16.64
17.59
17.79
17.16
15.71
13.6
11.08
8.36
5.57
2.72
-0.24
-3.31
-6.42
-9.39
-12.04
-14.24
-15.96
-17.32
-18.51
-19.81
-21.47
-23.64
-26.32
-29.17
-31.56
-32.63
-31.55
-27.85
-21.62
-13.47
-4.41
4.54
12.52
18.96
23.54
26.14
26.79
25.68
23.22
19.95
16.46
13.22
10.52
8.5
7.16
6.48
6.44
7.01
8.11
9.59
11.22
12.71
13.79
14.13
13.55
11.98
9.59
6.7
3.71
0.92
-1.6
-3.98
-6.44
-9.14
-12.06
-14.96
-17.56
-19.63
-21.14
-22.24
-23.27
-24.59
-26.46
-28.91
-31.66
-34.1
-35.33
-34.47
-30.9
-24.59
-16.12
-6.52
3.04
11.61
18.63
23.9
27.44
29.3
29.54
28.28
25.79
22.5
18.96
15.66
12.94
10.95
9.74
9.33
9.71
10.82
12.51
14.49
16.38
17.81
18.48
18.21
16.98
14.9
12.16
9.06
5.87
2.81
-0.02
-2.62
-5.09
-7.51
-9.87
-12.09
-14.03
-15.6
-16.82
-17.89
-19.16
-20.93
-23.38
-26.32
-29.19
-31.16
-31.32
-28.99
-23.98
-16.62
-7.74
1.58
10.32
17.67
23.17
26.66
28.2
28.0
26.34
23.58
20.19
16.68
13.5
11.02
9.41
8.68
8.74
9.43
10.6
12.03
13.47
14.66
15.37
15.46
14.94
13.9
12.49
10.81
8.86
6.58
3.95
0.99
-2.13
-5.16
-7.84
-9.96
-11.5
-12.56
-13.36
-14.17
-15.27
-16.81
-18.87
-21.28
-23.64
-25.31
-25.58
-23.83
-19.83
-13.77
-6.31
1.66
9.27
15.81
20.83
24.13
25.65
25.44
23.73
20.82
17.18
13.31
9.64
6.53
4.22
2.86
2.49
3.02
4.25
5.84
7.42
8.64
9.28
9.32
8.81
7.91
6.68
5.16
3.26
0.94
-1.81
-4.86
-7.97
-10.91
-13.47
-15.58
-17.27
-18.69
-20.03
-21.5
-23.26
-25.36
-27.66
-29.73
-30.96
-30.64
-28.22
-23.48
-16.67
-8.43
0.29
8.52
15.46
20.61
23.84
25.3
25.28
24.07
21.93
19.07
15.75
12.38
9.43
7.38
6.5
6.76
7.87
9.41
11.04
12.55
13.83
14.75
15.11
14.71
13.4
11.26
8.55
5.62
2.78
0.2
-2.1
-4.18
-6.16
-8.1
-10.03
-11.92
-13.71
-15.27
-16.48
-17.27
-17.73
-18.12
-18.83
-20.17
-22.18
-24.5
-26.44
-27.16
-25.92
-22.37
-16.63
-9.26
-1.11
6.84
13.69
18.8
21.81
22.76
21.95
19.86
16.97
13.72
10.47
7.56
5.35
4.13
4.03
4.98
6.66
8.67
10.67
12.49
14.13
15.63
16.92
17.85
18.16
17.66
16.27
14.06
11.28
8.2
5.14
2.33
-0.1
-2.17
-3.95
-5.6
-7.2
-8.77
-10.24
-11.47
-12.39
-12.99
-13.34
-13.66
-14.15
-15.03
-16.47
-18.52
-21.08
-23.84
-26.28
-27.72
-27.51
-25.2
-20.73
-14.43
-6.99
0.76
8.04
14.22
18.95
22.0
23.32
22.95
21.12
18.2
14.7
11.15
8.05
5.76
4.49
4.28
5.01
6.38
8.02
9.57
10.79
11.61
12.07
12.24
12.05
11.33
9.89
7.68
4.87
1.78
-1.22
-3.89
-6.21
-8.31
-10.35
-12.48
-14.68
-16.81
-18.68
-20.1
-20.98
-21.41
-21.66
-22.12
-23.19
-25.09
-27.73
-30.67
-33.14
-34.26
-33.27
-29.76
-23.85
-16.14
-7.58
0.79
8.12
13.92
18.03
20.52
21.56
21.33
20.05
17.98
15.52
13.1
11.15
9.94
9.59
10.02
11.04
12.4
13.86
15.23
16.4
17.33
17.98
18.29
18.15
17.46
16.11
14.14
11.66
8.85
5.95
3.14
0.51
-1.89
-4.08
-6.12
-8.07
-9.93
-11.69
-13.26
-14.58
-15.62
-16.48
-17.3
-18.3
-19.67
-21.56
-23.95
-26.64
-29.2
-31.02
-31.42
-29.8
-25.89
-19.81
-12.09
-3.56
4.87
12.4
18.48
22.78
25.18
25.76
24.74
22.52
19.56
16.34
13.28
10.67
8.64
7.29
6.62
6.66
7.37
8.6
10.12
11.59
12.72
13.28
13.19
12.45
11.12
9.27
6.99
4.46
1.89
-0.48
-2.51
-4.21
-5.72
-7.27
-9.04
-11.04
-13.15
-15.1
-16.67
-17.74
-18.4
-18.91
-19.62
-20.87
-22.85
-25.5
-28.48
-31.21
-33.02
-33.27
-31.59
-27.91
-22.52
-15.97
-8.97
-2.17
3.92
9.0
12.95
15.74
17.39
17.93
17.44
16.12
14.29
12.38
10.83
9.98
9.98
10.77
12.12
13.73
15.33
16.73
17.81
18.47
18.64
18.2
17.08
15.24
12.76
9.81
6.62
3.39
0.2
-2.94
-6.04
-9.09
-11.96
-14.5
-16.58
-18.27
-19.85
-21.71
-24.16
-27.21
-30.51
-33.32
-34.81
-34.22
-31.11
-25.51
-17.86
-8.99
0.12
8.45
15.21
19.97
22.65
23.52
23.03
21.61
19.57
17.14
14.47
11.74
9.19
7.12
5.8
5.44
6.08
7.63
9.84
12.35
14.74
16.63
17.69
17.76
16.8
14.93
12.36
9.35
6.15
2.98
-0.02
-2.82
-5.44
-7.96
-10.38
-12.7
-14.91
-17.0
-19.06
-21.24
-23.67
-26.45
-29.43
-32.23
-34.2
-34.56
-32.6
-27.93
-20.71
-11.62
-1.74
7.71
15.73
21.71
25.51
27.35
27.59
26.6
24.61
21.81
18.38
14.67
11.17
8.43
6.91
6.76
7.84
9.75
12.0
14.15
15.92
17.11
17.62
17.39
16.41
14.72
12.42
9.69
6.73
3.67
0.62
-2.39
-5.29
-8.08
-10.7
-13.15
-15.41
-17.51
-19.49
-21.47
-23.55
-25.79
-28.03
-29.84
-30.53
-29.36
-25.83
-19.92
-12.13
-3.36
5.41
13.36
19.96
24.89
28.0
29.21
28.54
26.22
22.64
18.38
14.07
10.33
7.61
6.22
6.22
7.36
9.19
11.17
12.79
13.82
14.28
14.37
14.24
13.87
12.99
11.35
8.79
5.4
1.55
-2.31
-5.76
-8.59
-10.82
-12.65
-14.38
-16.32
-18.72
-21.64
-24.85
-27.85
-29.88
-30.19
-28.19
-23.75
-17.23
-9.4
-1.17
6.57
13.16
18.27
21.7
23.44
23.48
21.96
19.16
15.58
11.79
8.37
5.75
4.17
3.64
4.04
5.15
6.68
8.32
9.76
10.77
11.17
10.9
9.98
8.46
6.45
4.07
1.45
-1.28
-4.0
-6.65
-9.17
-11.5
-13.54
-15.26
-16.69
-17.98
-19.44
-21.32
-23.75
-26.53
-29.15
-30.84
-30.82
-28.49
-23.66
-16.61
-8.05
1.06
9.73
17.16
22.83
26.57
28.46
28.74
27.66
25.53
22.62
19.24
15.75
12.54
10.0
8.44
8.0
8.61
10.05
12.01
14.14
16.17
17.84
18.91
19.15
18.4
16.61
13.97
10.82
7.6
4.64
2.03
-0.32
-2.67
-5.15
-7.75
-10.28
-12.5
-14.22
-15.45
-16.33
-17.19
-18.37
-20.17
-22.72
-25.86
-29.07
-31.5
-32.2
-30.41
-25.86
-18.91
-10.47
-1.7
6.34
12.93
17.77
20.88
22.45
22.66
21.68
19.68
16.9
13.71
10.57
7.96
6.28
5.72
6.25
7.58
9.31
11.04
12.49
13.52
14.12
14.27
13.92
12.97
11.39
9.27
6.83
4.32
1.94
-0.26
-2.35
-4.41
-6.43
-8.31
-9.9
-11.16
-12.17
-13.19
-14.5
-16.36
-18.81
-21.64
-24.39
-26.39
-26.92
-25.39
-21.56
-15.68
-8.45
-0.82
6.25
12.03
16.16
18.6
19.5
19.07
17.51
15.02
11.89
8.52
5.38
2.9
1.37
0.85
1.21
2.17
3.43
4.72
5.83
6.59
6.89
6.69
6.0
4.88
3.42
1.68
-0.28
-2.45
-4.77
-7.18
-9.61
-11.99
-14.26
-16.36
-18.26
-19.89
-21.28
-22.53
-23.81
-25.35
-27.24
-29.4
-31.42
-32.66
-32.38
-30.01
-25.34
-18.63
-10.59
-2.2
5.58
11.99
16.63
19.43
20.58
20.41
19.25
17.43
15.23
12.92
10.75
8.94
7.66
7.01
6.99
7.53
8.52
9.88
11.46
13.09
14.46
15.22
15.08
13.91
11.85
9.26
6.56
4.03
1.71
-0.54
-2.91
-5.46
-8.09
-10.56
-12.64
-14.14
-15.08
-15.59
-15.89
-16.28
-17.03
-18.38
-20.41
-22.96
-25.58
-27.56
-28.12
-26.61
-22.72
-16.6
-8.83
-0.32
7.92
14.96
20.2
23.37
24.6
24.22
22.65
20.31
17.53
14.62
11.83
9.49
7.88
7.22
7.55
8.73
10.45
12.32
14.04
15.4
16.32
16.73
16.59
15.83
14.41
12.38
9.94
7.35
4.83
2.48
0.2
-2.19
-4.86
-7.78
-10.77
-13.5
-15.71
-17.28
-18.33
-19.14
-20.08
-21.47
-23.48
-26.07
-28.98
-31.7
-33.57
-33.93
-32.29
-28.49
-22.82
-15.92
-8.64
-1.81
3.94
8.29
11.22
12.87
13.45
13.09
11.89
9.94
7.45
4.87
2.75
1.66
1.96
3.67
6.51
9.99
13.6
16.93
19.76
21.98
23.57
24.58
25.06
25.09
24.7
23.89
22.62
20.89
18.79
16.45
14.02
11.51
8.77
5.58
1.67
-3.07
-8.59
-14.56
-20.46
-25.63
-29.35
-30.96
-30.02
-26.47
-20.63
-13.22
-5.19
2.45
8.86
13.52
16.22
17.08
16.45
14.73
12.31
9.53
6.68
4.04
1.9
0.54
0.15
0.71
2.05
3.89
5.87
7.73
9.27
10.39
11.05
11.23
10.86
9.9
8.33
6.19
3.56
0.61
-2.5
-5.63
-8.61
-11.36
-13.77
-15.8
-17.48
-18.88
-20.16
-21.57
-23.37
-25.73
-28.61
-31.62
-34.04
-34.98
-33.61
-29.49
-22.73
-14.05
-4.49
4.82
12.97
19.42
23.94
26.58
27.53
27.03
25.41
23.0
20.1
17.06
14.19
11.81
10.2
9.52
9.8
10.84
12.34
13.92
15.3
16.29
16.83
16.9
16.44
15.38
13.68
11.39
8.62
5.61
2.53
-0.47
-3.34
-6.06
-8.64
-11.05
-13.21
-15.09
-16.72
-18.19
-19.75
-21.61
-23.96
-26.75
-29.58
-31.77
-32.46
-30.94
-26.89
-20.54
-12.61
-4.12
3.95
10.85
16.19
19.85
21.84
22.28
21.28
19.03
15.83
12.11
8.36
5.06
2.62
1.26
0.97
1.52
2.57
3.78
4.93
5.97
6.96
7.97
8.9
9.46
9.29
8.1
5.88
2.89
-0.4
-3.57
-6.35
-8.73
-10.8
-12.7
-14.57
-16.53
-18.75
-21.34
-24.27
-27.22
-29.51
-30.3
-28.8
-24.64
-18.0
-9.58
-0.42
8.37
15.89
21.56
25.16
26.75
26.6
25.09
22.57
19.38
15.84
12.22
8.86
6.1
4.23
3.38
3.5
4.37
5.66
7.08
8.41
9.53
10.36
10.79
10.65
9.82
8.21
5.9
3.08
0.03
-3.0
-5.79
-8.25
-10.32
-12.1
-13.73
-15.44
-17.47
-19.98
-23.0
-26.35
-29.62
-32.17
-33.29
-32.3
-28.83
-22.89
-15.03
-6.11
2.8
10.74
17.05
21.47
24.03
24.95
24.52
22.92
20.34
17.01
13.26
9.55
6.4
4.21
3.2
3.35
4.46
6.29
8.58
11.07
13.48
15.49
16.71
16.88
15.91
13.95
11.34
8.48
5.68
3.11
0.74
-1.55
-3.87
-6.24
-8.6
-10.78
-12.66
-14.25
-15.72
-17.36
-19.36
-21.65
-23.76
-24.86
-24.02
-20.47
-13.86
-4.46
6.92
18.92
29.89
38.08
41.99
40.73
34.29
23.61
10.37
-3.46
-16.1
-26.31
-33.43
-37.35
-38.29
-36.66
-33.07
-28.24
-22.96
-17.91
-13.48
-9.74
-6.53
-3.62
-0.92
1.43
3.14
3.92
3.66
2.48
0.67
-1.36
-3.27
-4.88
-6.15
-7.19
-8.27
-9.66
-11.59
-14.09
-16.81
-19.11
-20.15
-19.16
-15.75
-10.05
-2.72
5.33
13.14
19.93
25.2
28.67
30.28
30.09
28.3
25.24
21.32
17.0
12.81
9.23
6.67
5.39
5.35
6.26
7.64
9.01
10.09
10.8
11.2
11.34
11.13
10.34
8.81
6.49
3.53
0.22
-3.17
-6.42
-9.37
-11.93
-14.09
-15.93
-17.69
-19.7
-22.26
-25.43
-28.91
-32.06
-34.02
-34.0
-31.46
-26.28
-18.84
-9.9
-0.47
8.44
15.97
21.61
25.18
26.8
26.73
25.28
22.76
19.52
15.93
12.48
9.64
7.83
7.22
7.76
9.13
10.94
12.8
14.46
15.79
16.71
17.14
16.99
16.1
14.4
11.93
8.85
5.37
1.78
-1.73
-4.97
-7.82
-10.23
-12.22
-13.9
-15.47
-17.12
-19.04
-21.34
-24.04
-26.98
-29.8
-31.93
-32.64
-31.24
-27.31
-20.88
-12.51
-3.17
6.01
14.03
20.21
24.29
26.36
26.72
25.81
24.0
21.65
19.06
16.49
14.23
12.53
11.61
11.55
12.26
13.5
14.95
16.33
17.41
18.08
18.27
17.91
17.01
15.57
13.66
11.35
8.73
5.9
2.93
-0.08
-2.99
-5.62
-7.81
-9.49
-10.72
-11.72
-12.76
-14.14
-16.02
-18.44
-21.26
-24.21
-26.84
-28.63
-28.99
-27.42
-23.68
-17.9
-10.64
-2.72
4.9
11.44
16.47
19.88
21.82
22.5
22.1
20.7
18.43
15.45
12.12
8.9
6.32
4.79
4.52
5.46
7.28
9.47
11.5
12.98
13.69
13.62
12.84
11.43
9.42
6.82
3.72
0.3
-3.14
-6.33
-9.09
-11.44
-13.46
-15.3
-17.03
-18.69
-20.31
-21.97
-23.78
-25.75
-27.67
-29.13
-29.55
-28.38
-25.27
-20.24
-13.66
-6.17
1.49
8.62
14.62
19.12
21.92
23.01
22.51
20.66
17.79
14.28
10.6
7.23
4.6
3.01
2.6
3.28
4.78
6.69
8.63
10.25
11.32
11.7
11.36
10.32
8.7
6.66
4.38
2.03
-0.31
-2.65
-5.06
-7.55
-10.0
-12.23
-14.05
-15.39
-16.4
-17.35
-18.56
-20.28
-22.6
-25.4
-28.35
-30.86
-32.17
-31.47
-28.18
-22.25
-14.19
-5.05
3.97
11.82
17.89
21.98
24.26
24.93
24.22
22.34
19.53
16.16
12.72
9.7
7.53
6.46
6.5
7.44
8.93
10.61
12.19
13.54
14.66
15.54
16.1
16.17
15.57
14.24
12.25
9.8
7.13
4.39
1.63
-1.16
-3.93
-6.58
-8.93
-10.85
-12.26
-13.19
-13.79
-14.26
-14.87
-15.9
-17.53
-19.74
-22.24
-24.46
-25.74
-25.56
-23.69
-20.24
-15.61
-10.29
-4.75
0.66
5.68
10.05
13.55
15.94
17.04
16.8
15.39
13.15
10.59
8.18
6.33
5.21
4.81
4.99
5.58
6.4
7.29
8.11
8.7
8.94
8.78
8.18
7.18
5.78
3.97
1.77
-0.75
-3.48
-6.23
-8.84
-11.18
-13.24
-15.13
-17.05
-19.24
-21.89
-25.02
-28.31
-31.13
-32.69
-32.21
-29.23
-23.72
-16.14
-7.3
1.81
10.19
17.07
21.94
24.62
25.24
24.14
21.74
18.46
14.69
10.76
7.05
3.95
1.83
0.94
1.28
2.6
4.42
6.28
7.8
8.82
9.4
9.64
9.6
9.19
8.22
6.52
4.05
0.94
-2.53
-6.08
-9.48
-12.63
-15.49
-18.05
-20.34
-22.46
-24.6
-26.98
-29.7
-32.57
-35.0
-36.16
-35.19
-31.59
-25.34
-17.0
-7.47
2.2
11.09
18.5
24.01
27.48
28.93
28.56
26.63
23.48
19.58
15.45
11.67
8.76
7.09
6.73
7.53
9.1
11.05
13.01
14.74
16.08
16.92
17.18
16.84
15.87
14.24
11.9
8.85
5.14
0.99
-3.28
-7.3
-10.84
-13.79
-16.24
-18.41
-20.53
-22.85
-25.49
-28.41
-31.33
-33.71
-34.84
-33.98
-30.65
-24.78
-16.81
-7.55
1.98
10.8
18.19
23.69
27.13
28.5
27.94
25.66
22.03
17.61
13.1
9.22
6.52
5.26
5.33
6.36
7.94
9.72
11.48
13.1
14.48
15.48
15.95
15.72
14.66
12.75
10.03
6.71
3.09
-0.5
-3.78
-6.61
-8.99
-11.08
-13.07
-15.2
-17.58
-20.22
-22.91
-25.23
-26.57
-26.22
-23.68
-18.79
-11.91
-3.79
4.62
12.43
19.01
23.99
27.24
28.71
28.45
26.53
23.19
18.82
13.97
9.33
5.51
3.04
2.13
2.71
4.42
6.72
9.05
10.96
12.18
12.64
12.45
11.72
10.57
9.0
6.98
4.44
1.39
-1.99
-5.44
-8.58
-11.11
-12.88
-13.96
-14.66
-15.43
-16.7
-18.72
-21.38
-24.17
-26.24
-26.58
-24.34
-19.11
-11.09
-1.03
9.95
20.71
30.36
38.42
44.84
49.83
53.67
56.49
58.11
58.03
55.55
50.15
41.71
30.72
18.22
5.49
-6.27
-16.27
-24.18
-30.03
-34.08
-36.66
-38.07
-38.68
-38.89
-39.05
-39.4
-39.99
-40.62
-40.99
-40.84
-40.1
-38.85
-37.32
-35.73
-34.21
-32.79
-31.43
-30.14
-28.99
-28.17
-27.87
-28.17
-28.98
-29.91
-30.35
-29.51
-26.64
-21.28
-13.45
-3.75
6.79
16.98
25.76
32.52
37.06
39.49
40.07
39.06
36.7
33.31
29.32
25.27
21.71
19.05
17.52
17.08
17.53
18.65
20.19
21.93
23.61
24.95
25.62
25.38
24.11
21.91
19.05
15.84
12.54
9.23
5.87
2.37
-1.28
-4.99
-8.52
-11.58
-13.98
-15.63
-16.63
-17.2
-17.64
-18.28
-19.45
-21.34
-23.91
-26.75
-29.12
-30.05
-28.65
-24.46
-17.63
-8.96
0.36
9.08
16.28
21.5
24.73
26.2
26.21
24.97
22.61
19.31
15.35
11.2
7.46
4.68
3.2
3.06
4.01
5.61
7.41
9.13
10.6
11.77
12.57
12.8
12.18
10.48
7.66
3.92
-0.29
-4.41
-7.99
-10.81
-12.91
-14.53
-16.0
-17.59
-19.51
-21.83
-24.58
-27.6
-30.49
-32.58
-33.03
-31.08
-26.41
-19.29
-10.54
-1.3
7.35
14.66
20.28
24.14
26.25
26.64
25.38
22.66
18.82
14.43
10.11
6.44
3.86
2.58
2.57
3.63
5.39
7.47
9.52
11.3
12.62
13.36
13.43
12.79
11.47
9.55
7.2
4.52
1.57
-1.61
-4.96
-8.32
-11.42
-14.03
-16.03
-17.55
-18.93
-20.56
-22.71
-25.45
-28.56
-31.62
-34.06
-35.22
-34.45
-31.24
-25.38
-17.16
-7.34
2.94
12.4
20.06
25.34
28.16
28.81
27.77
25.51
22.42
18.91
15.35
12.14
9.63
8.05
7.5
7.91
9.06
10.65
12.34
13.81
14.84
15.35
15.33
14.85
13.97
12.65
10.79
8.29
5.15
1.55
-2.19
-5.76
-8.92
-11.64
-14.0
-16.12
-18.03
-19.7
-21.1
-22.3
-23.58
-25.22
-27.33
-29.64
-31.47
-31.9
-30.14
-25.83
-19.18
-10.93
-2.04
6.54
14.1
20.22
24.65
27.26
27.98
26.86
24.06
20.0
15.25
10.5
6.4
3.49
2.09
2.18
3.51
5.56
7.82
9.84
11.36
12.27
12.57
12.24
11.23
9.47
7.0
3.93
0.48
-3.09
-6.61
-9.95
-13.08
-15.98
-18.59
-20.91
-22.94
-24.85
-26.86
-29.17
-31.8
-34.43
-36.37
-36.69
-34.57
-29.56
-21.88
-12.32
-2.08
7.61
15.8
21.92
25.85
27.69
27.7
26.13
23.31
19.58
15.39
11.23
7.6
4.98
3.66
3.76
5.14
7.43
10.13
12.7
14.75
16.01
16.42
16.0
14.83
12.99
10.59
7.77
4.67
1.45
-1.79
-4.99
-8.15
-11.26
-14.27
-17.09
-19.64
-21.91
-24.0
-26.07
-28.33
-30.82
-33.26
-35.02
-35.22
-33.03
-27.97
-20.21
-10.53
-0.12
9.74
18.06
24.28
28.27
30.11
30.06
28.36
25.32
21.35
16.97
12.77
9.28
6.89
5.74
5.77
6.72
8.24
9.95
11.52
12.64
13.13
12.9
11.93
10.24
7.83
4.69
0.81
-3.69
-8.57
-13.45
-17.89
-21.56
-24.3
-26.14
-27.3
-28.08
-28.78
-29.61
-30.62
-31.62
-32.23
-31.88
-29.97
-26.05
-19.92
-11.79
-2.2
8.05
18.13
27.28
34.97
40.91
45.03
47.37
48.11
47.45
45.66
43.06
39.96
36.61
33.22
29.93
26.86
24.07
21.63
19.54
17.75
16.16
14.6
12.89
10.86
8.42
5.56
2.34
-1.11
-4.65
-8.13
-11.41
-14.38
-17.0
-19.38
-21.7
-24.18
-26.93
-29.77
-32.25
-33.62
-33.18
-30.44
-25.35
-18.28
-9.92
-1.1
7.38
14.81
20.65
24.51
26.26
25.95
23.9
20.59
16.55
12.35
8.48
5.3
3.09
1.97
1.94
2.87
4.57
6.78
9.24
11.64
13.64
14.84
14.84
13.37
10.4
6.17
1.21
-3.86
-8.47
-12.28
-15.21
-17.43
-19.32
-21.25
-23.53
-26.21
-28.98
-31.18
-31.96
-30.54
-26.53
-20.11
-11.96
-3.09
5.5
12.97
18.79
22.74
24.75
24.92
23.45
20.65
16.93
12.79
8.69
5.04
2.1
-0.0
-1.32
-2.01
-2.29
-2.43
-2.58
-2.88
-3.37
-4.07
-4.99
-6.14
-7.52
-9.11
-10.83
-12.57
-14.14
-15.33
-16.01
-16.17
-15.94
-15.61
-15.48
-15.79
-16.69
-18.1
-19.71
-20.98
-21.24
-19.82
-16.24
-10.4
-2.64
6.32
15.53
24.04
31.02
35.93
38.53
38.92
37.49
34.87
31.76
28.79
26.38
24.73
23.85
23.65
23.93
24.4
24.63
24.11
22.35
19.09
14.37
8.48
1.81
-5.34
-12.82
-20.63
-28.83
-37.34
-45.9
-54.01
-61.09
-66.5
-69.79
-70.76
-69.53
-66.48
-62.17
-57.17
-51.98
-46.97
-42.41
-38.44
-35.04
-31.97
-28.76
-24.83
-19.62
-12.84
-4.63
4.46
13.59
21.88
28.66
33.57
36.58
37.92
37.88
36.68
34.53
31.6
28.14
24.55
21.31
18.86
17.48
17.14
17.57
18.34
19.05
19.45
19.56
19.51
19.5
19.54
19.38
18.61
16.81
13.79
9.65
4.83
-0.12
-4.75
-8.79
-12.17
-14.92
-17.14
-18.98
-20.68
-22.42
-24.25
-25.91
-26.86
-26.38
-23.95
-19.41
-13.11
-5.78
1.75
8.71
14.59
19.07
21.97
23.24
22.97
21.36
18.72
15.47
12.07
8.98
6.6
5.24
5.05
5.93
7.61
9.64
11.6
13.13
13.99
14.09
13.4
11.97
9.93
7.47
4.82
2.13
-0.51
-3.09
-5.64
-8.16
-10.57
-12.76
-14.67
-16.33
-17.9
-19.59
-21.54
-23.83
-26.44
-29.24
-31.94
-34.13
-35.23
-34.62
-31.81
-26.62
-19.38
-10.81
-1.88
6.44
13.45
18.75
22.27
24.13
24.51
23.64
21.76
19.2
16.36
13.7
11.62
10.4
10.17
10.86
12.29
14.2
16.26
18.15
19.58
20.34
20.29
19.4
17.69
15.28
12.37
9.19
5.99
2.94
0.08
-2.7
-5.55
-8.5
-11.4
-13.92
-15.75
-16.75
-17.12
-17.28
-17.74
-18.91
-20.98
-23.84
-27.12
-30.22
-32.34
-32.63
-30.43
-25.47
-18.03
-8.9
0.82
9.97
17.67
23.39
26.96
28.5
28.28
26.65
24.01
20.77
17.34
14.16
11.57
9.81
8.98
9.03
9.78
11.05
12.63
14.35
16.08
17.6
18.68
19.03
18.43
16.82
14.32
11.27
8.05
5.02
2.31
-0.11
-2.4
-4.72
-7.08
-9.33
-11.24
-12.68
-13.7
-14.6
-15.78
-17.61
-20.28
-23.64
-27.22
-30.28
-31.96
-31.47
-28.32
-22.48
-14.48
-5.29
3.9
12.03
18.4
22.71
25.06
25.68
24.81
22.69
19.58
15.86
12.02
8.6
6.04
4.61
4.29
4.9
6.17
7.82
9.61
11.37
12.92
14.06
14.58
14.26
13.0
10.87
8.14
5.23
2.56
0.37
-1.38
-2.96
-4.75
-7.03
-9.89
-13.16
-16.52
-19.63
-22.24
-24.23
-25.64
-26.7
-27.79
-29.29
-31.51
-34.41
-37.49
-39.84
-40.31
-37.92
-32.26
-23.68
-13.22
-2.27
7.86
16.26
22.53
26.66
28.79
29.11
27.79
25.12
21.55
17.69
14.18
11.54
10.01
9.59
10.05
11.12
12.48
13.93
15.34
16.62
17.68
18.39
18.55
17.99
16.59
14.41
11.66
8.6
5.51
2.54
-0.23
-2.81
-5.24
-7.53
-9.71
-11.77
-13.69
-15.4
-16.85
-18.02
-18.98
-19.94
-21.2
-23.1
-25.86
-29.43
-33.39
-37.01
-39.3
-39.3
-36.31
-30.13
-21.17
-10.37
1.04
11.85
21.09
28.21
33.04
35.64
36.26
35.16
32.69
29.23
25.24
21.21
17.64
14.91
13.28
12.79
13.32
14.64
16.43
18.39
20.25
21.82
22.93
23.44
23.21
22.22
20.54
18.38
16.01
13.62
11.26
8.75
5.84
2.28
-2.02
-6.83
-11.72
-16.08
-19.45
-21.58
-22.62
-22.99
-23.25
-23.9
-25.19
-27.09
-29.3
-31.34
-32.56
-32.3
-29.99
-25.33
-18.45
-9.99
-0.96
7.55
14.65
19.83
22.9
23.92
23.03
20.48
16.64
12.06
7.4
3.34
0.35
-1.32
-1.65
-0.84
0.81
2.95
5.19
7.2
8.76
9.82
10.4
10.59
10.38
9.69
8.4
6.49
4.07
1.38
-1.33
-3.84
-6.08
-8.03
-9.72
-11.21
-12.54
-13.84
-15.37
-17.42
-20.25
-23.83
-27.69
-30.95
-32.56
-31.58
-27.62
-20.95
-12.42
-3.26
5.37
12.56
17.82
20.97
22.1
21.48
19.45
16.46
13.02
9.63
6.74
4.69
3.65
3.67
4.59
6.17
8.09
10.11
12.01
13.68
15.01
15.92
16.33
16.15
15.39
14.05
12.16
9.71
6.73
3.29
-0.48
-4.33
-8.03
-11.39
-14.34
-16.93
-19.23
-21.3
-23.22
-25.12
-27.17
-29.51
-32.1
-34.59
-36.29
-36.34
-34.03
-29.04
-21.65
-12.65
-3.15
5.74
13.13
18.52
21.78
23.02
22.55
20.74
18.01
14.77
11.44
8.36
5.86
4.16
3.43
3.73
4.98
6.94
9.24
11.52
13.48
14.95
15.87
16.19
15.84
14.71
12.81
10.27
7.41
4.58
2.03
-0.23
-2.33
-4.49
-6.8
-9.22
-11.63
-13.92
-16.12
-18.46
-21.18
-24.47
-28.27
-32.23
-35.66
-37.68
-37.45
-34.42
-28.59
-20.51
-11.24
-1.95
6.31
12.93
17.76
20.92
22.66
23.11
22.37
20.53
17.88
14.89
12.15
10.18
9.28
9.48
10.57
12.23
14.14
16.01
17.58
18.64
19.04
18.67
17.56
15.81
13.54
10.88
7.91
4.69
1.31
-2.11
-5.43
-8.52
-11.31
-13.76
-15.93
-17.9
-19.79
-21.77
-23.94
-26.31
-28.69
-30.66
-31.59
-30.82
-27.85
-22.56
-15.28
-6.79
1.9
9.78
16.06
20.34
22.58
23.01
22.03
20.0
17.23
13.97
10.5
7.19
4.51
2.87
2.52
3.38
5.09
7.15
9.04
10.46
11.31
11.64
11.54
11.02
10.04
8.57
6.61
4.21
1.49
-1.43
-4.46
-7.45
-10.23
-12.63
-14.53
-15.91
-16.89
-17.75
-18.78
-20.27
-22.36
-25.04
-28.03
-30.79
-32.58
-32.59
-30.14
-25.01
-17.5
-8.44
1.04
9.81
17.04
22.32
25.58
26.99
26.78
25.23
22.63
19.43
16.13
13.33
11.45
10.72
11.08
12.27
13.95
15.78
17.48
18.83
19.67
19.86
19.29
17.96
15.89
13.2
10.07
6.72
3.4
0.32
-2.39
-4.73
-6.81
-8.84
-10.9
-12.99
-14.93
-16.52
-17.64
-18.37
-18.93
-19.62
-20.73
-22.41
-24.65
-27.25
-29.73
-31.4
-31.46
-29.2
-24.3
-16.98
-8.05
1.37
10.18
17.56
23.16
26.99
29.23
30.03
29.48
27.6
24.57
20.75
16.74
13.18
10.65
9.43
9.53
10.68
12.49
14.56
16.52
18.11
19.17
19.58
19.29
18.29
16.6
14.25
11.34
8.0
4.42
0.79
-2.74
-6.04
-9.0
-11.52
-13.49
-14.86
-15.68
-16.17
-16.72
-17.75
-19.47
-21.79
-24.19
-25.81
-25.78
-23.47
-18.75
-12.03
-4.16
3.83
10.99
16.69
20.64
22.86
23.52
22.81
20.96
18.21
14.9
11.51
8.53
6.4
5.36
5.4
6.29
7.66
9.18
10.57
11.63
12.22
12.21
11.53
10.21
8.41
6.36
4.24
2.17
0.09
-2.08
-4.41
-6.87
-9.31
-11.56
-13.48
-15.02
-16.18
-17.06
-17.81
-18.62
-19.77
-21.47
-23.71
-26.22
-28.34
-29.28
-28.28
-24.97
-19.44
-12.28
-4.36
3.4
10.23
15.65
19.47
21.73
22.67
22.58
21.74
20.39
18.71
16.86
15.07
13.54
12.51
12.09
12.26
12.82
13.55
14.27
14.91
15.45
15.84
15.93
15.5
14.36
12.54
10.27
7.92
5.76
3.87
2.12
0.3
-1.75
-3.95
-6.05
-7.74
-8.79
-9.15
-8.98
-8.58
-8.3
-8.46
-9.21
-10.47
-11.85
-12.74
-12.41
-10.31
-6.29
-0.75
5.34
10.76
14.29
15.16
13.27
9.17
3.9
-1.39
-5.83
-8.99
-10.88
-11.83
-12.19
-12.21
-11.97
-11.43
-10.55
-9.33
-7.79
-5.93
-3.77
-1.37
1.11
3.36
5.04
5.84
5.64
4.57
2.91
1.03
-0.8
-2.44
-3.93
-5.37
-6.87
-8.41
-9.94
-11.32
-12.43
-13.23
-13.75
-14.1
-14.47
-15.05
-16.02
-17.46
-19.29
-21.23
-22.77
-23.32
-22.33
-19.52
-15.0
-9.26
-3.08
2.72
7.49
10.9
12.89
13.63
13.42
12.49
11.09
9.4
7.58
5.82
4.27
3.08
2.35
2.13
2.41
3.15
4.23
5.45
6.55
7.32
7.6
7.36
6.64
5.5
4.0
2.22
0.22
-1.88
-3.93
-5.83
-7.55
-9.13
-10.64
-12.1
-13.46
-14.67
-15.71
-16.69
-17.86
-19.48
-21.64
-24.14
-26.46
-27.85
-27.58
-25.17
-20.58
-14.23
-6.87
0.66
7.64
13.62
18.45
22.09
24.59
25.91
26.05
25.08
23.23
20.88
18.48
16.44
15.05
14.42
14.48
15.08
15.97
16.93
17.73
18.18
18.16
17.57
16.37
14.57
12.2
9.35
6.14
2.7
-0.8
-4.24
-7.51
-10.6
-13.51
-16.28
-18.89
-21.29
-23.34
-24.91
-25.93
-26.45
-26.71
-27.05
-27.84
-29.36
-31.69
-34.66
-37.77
-40.31
-41.46
-40.46
-36.94
-30.98
-23.17
-14.45
-5.8
1.94
8.26
12.99
16.15
17.86
18.23
17.4
15.59
13.14
10.57
8.38
7.05
6.81
7.63
9.26
11.27
13.3
15.11
16.65
17.99
19.18
20.14
20.65
20.46
19.39
17.48
14.97
12.18
9.43
6.85
4.42
1.98
-0.59
-3.3
-6.01
-8.48
-10.49
-11.93
-12.88
-13.53
-14.2
-15.17
-16.67
-18.84
-21.62
-24.75
-27.72
-29.82
-30.26
-28.44
-24.12
-17.6
-9.58
-1.05
7.03
13.93
19.22
22.72
24.49
24.68
23.53
21.33
18.44
15.23
12.12
9.52
7.8
7.21
7.82
9.44
11.73
14.23
16.55
18.41
19.63
20.15
19.88
18.81
16.97
14.54
11.75
8.84
5.91
2.96
-0.08
-3.24
-6.4
-9.38
-12.0
-14.17
-15.98
-17.65
-19.42
-21.52
-24.04
-26.87
-29.65
-31.77
-32.45
-30.98
-26.9
-20.32
-11.88
-2.65
6.2
13.65
19.11
22.43
23.75
23.41
21.76
19.16
16.01
12.69
9.65
7.23
5.68
5.07
5.37
6.43
8.05
9.98
11.91
13.55
14.65
15.07
14.81
13.98
12.65
10.88
8.65
5.97
2.86
-0.57
-4.18
-7.82
-11.31
-14.47
-17.18
-19.35
-21.06
-22.54
-24.16
-26.26
-29.0
-32.26
-35.52
-37.99
-38.76
-37.05
-32.4
-24.89
-15.15
-4.28
6.44
15.8
23.0
27.74
30.13
30.62
29.7
27.81
25.31
22.5
19.69
17.18
15.24
14.04
13.67
14.13
15.36
17.24
19.5
21.79
23.67
24.77
24.88
24.01
22.37
20.24
17.79
15.07
12.05
8.67
5.0
1.16
-2.61
-6.13
-9.25
-11.87
-14.01
-15.76
-17.32
-19.01
-21.14
-23.92
-27.2
-30.5
-32.99
-33.77
-32.12
-27.7
-20.71
-11.82
-2.02
7.57
15.91
22.27
26.34
28.21
28.32
27.14
25.06
22.32
19.05
15.49
12.02
9.17
7.44
7.08
7.98
9.73
11.79
13.66
15.05
15.88
16.17
15.99
15.37
14.28
12.67
10.5
7.8
4.66
1.28
-2.1
-5.27
-8.04
-10.33
-12.17
-13.73
-15.2
-16.85
-18.87
-21.34
-24.15
-26.94
-29.14
-30.08
-29.12
-25.9
-20.46
-13.3
-5.27
2.65
9.6
14.99
18.58
20.39
20.59
19.4
17.07
13.9
10.28
6.69
3.58
1.36
0.24
0.23
1.13
2.64
4.43
6.16
7.62
8.66
9.18
9.09
8.36
6.97
5.02
2.63
-0.01
-2.76
