0
40.97
45.87
47.44
46.19
42.71
37.56
31.32
24.66
18.27
12.85
8.99
6.94
6.61
7.57
9.18
10.87
12.28
13.38
14.25
14.96
15.28
14.77
12.96
9.63
5.07
-0.03
-4.85
-8.81
-11.76
-14.02
-16.15
-18.66
-21.87
-25.73
-29.86
-33.56
-35.94
-36.04
-33.08
-26.76
-17.34
-5.73
6.78
18.79
29.08
36.74
41.28
42.52
40.59
35.93
29.17
21.17
12.87
5.18
-1.13
-5.55
-7.85
-8.11
-6.69
-4.1
-0.94
2.2
4.82
6.52
7.1
6.45
4.65
1.93
-1.37
-4.86
-8.21
-11.29
-14.18
-17.15
-20.57
-24.72
-29.62
-34.92
-39.85
-43.32
-44.14
-41.42
-34.8
-24.66
-12.1
1.31
13.93
24.4
31.91
36.21
37.51
36.22
32.82
27.78
21.66
15.13
9.03
4.11
0.82
-0.82
-1.22
-0.95
-0.47
0.06
0.78
1.83
3.22
4.58
5.4
5.13
3.51
0.61
-3.17
-7.26
-11.09
-14.27
-16.72
-18.69
-20.68
-23.25
-26.86
-31.51
-36.73
-41.58
-44.81
-45.12
-41.58
-33.86
-22.45
-8.59
6.03
19.66
30.94
39.06
43.74
45.14
43.59
39.54
33.59
26.53
19.32
12.94
8.16
5.32
4.31
4.63
5.66
6.89
8.01
8.96
9.81
10.68
11.48
12.0
11.86
10.76
8.5
5.14
0.98
-3.52
-7.87
-11.68
-14.73
-17.08
-18.96
-20.77
-22.9
-25.65
-29.07
-32.74
-35.89
-37.38
-36.06
-31.16
-22.6
-11.14
1.78
14.46
25.4
33.69
39.0
41.4
41.07
38.19
33.04
26.14
18.39
10.96
4.91
0.93
-0.86
-0.79
0.54
2.6
5.03
7.58
10.03
12.1
13.43
13.66
12.5
9.86
5.92
1.1
-3.98
-8.72
-12.74
-16.02
-18.84
-21.69
-25.01
-28.99
-33.46
-37.88
-41.43
-43.09
-41.88
-37.16
-28.92
-17.86
-5.35
6.96
17.58
25.58
30.7
33.15
33.37
31.69
28.36
23.62
17.9
11.83
6.24
1.89
-0.72
-1.51
-0.76
1.01
3.26
5.57
7.72
9.6
11.03
11.75
11.38
9.6
6.36
1.98
-2.91
-7.61
-11.61
-14.77
-17.37
-19.91
-22.99
-27.04
-32.21
-38.23
-44.42
-49.71
-52.81
-52.47
-47.92
-39.13
-26.91
-12.74
1.59
14.49
24.79
31.98
36.03
37.24
36.05
32.96
28.38
22.78
16.73
10.87
5.89
2.38
0.7
0.88
2.59
5.25
8.24
11.06
13.42
15.22
16.4
16.85
16.39
14.75
11.78
7.56
2.4
-3.22
-8.74
-13.71
-17.81
-20.94
-23.19
-24.84
-26.36
-28.29
-31.06
-34.76
-38.98
-42.77
-44.85
-43.98
-39.37
-30.91
-19.25
-5.64
8.38
21.29
31.9
39.45
43.74
44.94
43.52
40.02
35.02
29.07
22.77
16.78
11.82
8.45
6.99
7.32
8.97
11.27
13.62
15.58
16.96
17.66
17.68
16.97
15.45
13.05
9.8
5.8
1.3
-3.35
-7.73
-11.47
-14.38
-16.51
-18.2
-19.91
-22.08
-24.94
-28.42
-32.1
-35.27
-37.04
-36.52
-32.97
-26.07
-16.06
-3.81
9.37
21.91
32.43
39.97
44.14
44.99
42.93
38.53
32.47
25.48
18.38
11.99
7.01
3.81
2.35
2.28
3.08
4.3
5.71
7.19
8.69
10.0
10.79
10.72
9.5
7.01
3.31
-1.38
-6.64
-11.98
-16.88
-20.95
-24.15
-26.82
-29.57
-33.02
-37.42
-42.43
-47.06
-49.96
-49.79
-45.62
-37.22
-25.17
-10.74
4.34
18.26
29.53
37.26
41.27
41.92
39.86
35.78
30.3
24.02
17.6
11.76
7.19
4.34
3.27
3.65
4.96
6.67
8.42
10.04
11.4
12.39
12.85
12.58
11.42
9.33
6.32
2.55
-1.73
-6.21
-10.56
-14.47
-17.83
-20.66
-23.19
-25.77
-28.76
-32.41
-36.74
-41.38
-45.57
-48.21
-48.06
-44.15
-36.05
-24.21
-9.92
5.04
18.85
30.07
37.95
42.42
43.8
42.61
39.35
34.5
28.58
22.27
16.31
11.42
8.12
6.57
6.63
7.94
10.04
12.5
14.93
17.02
18.51
19.22
19.06
18.01
16.17
13.66
10.64
7.22
3.45
-0.63
-4.97
-9.41
-13.68
-17.52
-20.7
-23.19
-25.19
-27.11
-29.44
-32.49
-36.23
-40.09
-43.03
-43.78
-41.21
-34.73
-24.5
-11.53
2.6
16.1
27.43
35.6
40.26
41.66
40.37
37.04
32.31
26.69
20.74
15.0
10.05
6.42
4.39
4.01
5.01
6.94
9.27
11.55
13.47
14.86
15.66
15.85
15.38
14.08
11.78
8.37
3.94
-1.17
-6.38
-11.11
-15.02
-18.08
-20.59
-23.05
-25.9
-29.29
-33.06
-36.63
-39.17
-39.73
-37.49
-31.95
-23.21
-12.02
0.35
12.43
22.89
30.87
36.04
38.44
38.23
35.59
30.75
24.12
16.45
8.81
2.3
-2.21
-4.39
-4.4
-2.82
-0.32
2.52
5.29
7.73
9.7
11.04
11.65
11.39
10.16
7.9
4.65
0.52
-4.16
-8.99
-13.53
-17.48
-20.77
-23.62
-26.41
-29.53
-33.22
-37.42
-41.7
-45.29
-47.21
-46.44
-42.28
-34.53
-23.71
-10.97
2.19
14.28
24.17
31.23
35.31
36.54
35.25
31.88
26.95
21.14
15.17
9.82
5.69
3.15
2.27
2.85
4.47
6.62
8.79
10.6
11.84
12.51
12.7
12.45
11.72
10.27
7.81
4.26
-0.23
-5.21
-10.12
-14.48
-18.08
-20.94
-23.32
-25.5
-27.79
-30.48
-33.77
-37.65
-41.67
-44.92
-46.19
-44.35
-38.79
-29.7
-18.05
-5.22
7.32
18.43
27.32
33.57
37.05
37.8
36.1
32.43
27.43
21.84
16.43
11.85
8.62
7.01
6.99
8.25
10.31
12.61
14.74
16.45
17.7
18.51
18.88
18.7
17.75
15.82
12.76
8.67
3.8
-1.35
-6.32
-10.72
-14.36
-17.35
-19.97
-22.57
-25.49
-28.85
-32.55
-36.2
-39.14
-40.54
-39.53
-35.5
-28.31
-18.39
-6.72
5.43
16.73
26.14
32.99
36.99
38.18
36.77
33.2
28.01
21.92
15.74
10.26
6.15
3.79
3.25
4.28
6.44
9.16
11.93
14.32
16.01
16.82
16.64
15.4
13.13
9.92
5.92
1.37
-3.47
-8.32
-12.99
-17.39
-21.58
-25.79
-30.35
-35.46
-41.07
-46.63
-51.09
-53.12
-51.55
-45.76
-36.0
-23.36
-9.46
3.97
15.58
24.58
30.74
34.19
35.18
33.91
30.57
25.5
19.31
12.88
7.25
3.19
1.07
0.71
1.57
3.02
4.62
6.16
7.65
9.07
10.25
10.85
10.49
8.92
6.08
2.15
-2.53
-7.55
-12.47
-16.99
-20.89
-24.21
-27.14
-30.07
-33.38
-37.32
-41.78
-46.11
-49.23
-49.85
-46.86
-39.74
-28.82
-15.24
-0.69
13.09
24.69
33.22
38.43
40.43
39.62
36.46
31.51
25.46
19.06
13.19
8.62
5.91
5.22
6.33
8.69
11.66
14.67
17.33
19.42
20.82
21.42
21.06
19.58
16.9
13.07
8.28
2.89
-2.65
-7.88
-12.41
-16.07
-18.88
-21.12
-23.17
-25.47
-28.34
-31.95
-36.23
-40.78
-44.82
-47.24
-46.8
-42.51
-34.03
-21.93
-7.62
7.01
20.17
30.52
37.49
41.13
41.86
40.23
36.8
32.08
26.65
21.19
16.4
12.93
11.2
11.32
13.1
16.1
19.68
23.23
26.18
28.17
29.04
28.85
27.73
25.84
23.25
19.96
15.94
11.26
6.1
0.8
-4.23
-8.7
-12.46
-15.53
-18.1
-20.39
-22.67
-25.22
-28.35
-32.22
-36.71
-41.25
-44.74
-45.81
-43.2
-36.21
-25.11
-11.09
4.03
18.29
30.11
38.58
43.42
44.86
43.37
39.49
33.78
26.9
19.64
12.9
7.53
4.15
2.94
3.59
5.49
7.97
10.53
12.96
15.19
17.14
18.5
18.75
17.36
14.08
9.02
2.78
-3.85
-10.07
-15.36
-19.61
-23.02
-26.11
-29.47
-33.55
-38.5
-43.96
-49.09
-52.64
-53.32
-50.1
-42.6
-31.23
-17.14
-1.93
12.65
25.16
34.63
40.59
43.05
42.3
38.78
33.04
25.79
17.89
10.3
3.96
-0.41
-2.51
-2.51
-0.98
1.36
3.82
5.99
7.71
8.96
9.77
10.03
9.46
7.75
4.71
0.41
-4.78
-10.27
-15.47
-19.97
-23.67
-26.8
-29.81
-33.18
-37.27
-42.14
-47.39
-52.23
-55.44
-55.75
-52.08
-43.95
-31.7
-16.5
-0.13
15.48
28.7
38.46
44.38
46.59
45.54
41.8
35.97
28.74
20.96
13.59
7.58
3.64
2.02
2.52
4.57
7.47
10.59
13.49
15.87
17.6
18.57
18.67
17.81
15.86
12.71
8.38
3.07
-2.81
-8.69
-14.06
-18.64
-22.52
-26.13
-30.0
-34.62
-40.11
-46.13
-51.81
-55.91
-56.99
-53.81
-45.74
-33.05
-17.02
0.34
16.83
30.63
40.67
46.65
48.85
47.79
44.05
38.21
30.94
23.17
15.89
10.0
6.04
4.1
3.89
4.95
6.89
9.42
12.32
15.21
17.58
18.77
18.27
15.86
11.8
6.68
1.25
-3.83
-8.17
-11.64
-14.38
-16.71
-19.09
-22.02
-25.85
-30.56
-35.58
-39.71
-41.35
-39.01
-31.76
-19.78
-4.31
12.56
28.46
41.46
50.41
55.06
55.85
53.5
48.68
41.96
33.85
24.96
16.08
8.11
1.84
-2.21
-3.91
-3.48
-1.36
1.83
5.42
8.72
11.04
11.86
10.92
8.28
4.3
-0.52
-5.68
-10.82
-15.74
-20.44
-25.13
-30.14
-35.77
-42.07
-48.47
-53.7
-56.02
-53.72
-45.8
-32.52
-15.42
3.05
20.33
34.41
44.24
49.63
50.94
48.75
43.7
36.48
27.91
19.04
10.97
4.62
0.55
-1.19
-0.97
0.61
2.96
5.6
8.17
10.41
12.03
12.66
11.94
9.66
5.82
0.79
-4.84
-10.43
-15.5
-19.91
-23.85
-27.85
-32.46
-38.07
-44.61
-51.37
-57.02
-59.83
-58.11
-50.83
-38.02
-20.97
-1.87
16.81
32.95
45.26
53.34
57.39
57.84
55.16
49.81
42.42
33.93
25.53
18.39
13.37
10.76
10.34
11.48
13.52
15.9
18.31
20.57
22.5
23.81
24.1
22.9
19.87
14.98
8.59
1.39
-5.76
-12.06
-17.12
-21.03
-24.3
-27.71
-31.94
-37.31
-43.56
-49.77
-54.58
-56.41
-53.93
-46.41
-34.05
-17.99
-0.1
17.49
32.87
44.7
52.34
55.73
55.28
51.63
45.56
37.95
29.79
22.03
15.47
10.67
7.8
6.74
7.11
8.49
10.45
12.7
14.98
17.02
18.48
18.91
17.92
15.31
11.19
6.02
0.44
-4.88
-9.46
-13.19
-16.29
-19.3
-22.86
-27.46
-33.21
-39.58
-45.44
-49.26
-49.49
-45.07
-35.81
-22.51
-6.79
9.29
23.76
35.15
42.67
46.19
46.05
42.82
37.15
29.75
21.42
13.11
5.78
0.29
-2.9
-3.8
-2.82
-0.57
2.33
5.38
8.14
10.18
11.04
10.35
7.96
4.08
-0.75
-5.91
-10.83
-15.24
-19.18
-22.97
-26.99
-31.66
-37.16
-43.33
-49.46
-54.39
-56.62
-54.83
-48.3
-37.22
-22.73
-6.63
9.1
22.79
33.32
40.22
43.51
43.56
40.84
35.92
29.4
22.02
14.6
8.02
3.01
0.03
-0.94
-0.24
1.59
4.05
6.8
9.63
12.3
14.43
15.5
15.01
12.66
8.55
3.08
-3.06
-9.15
-14.63
-19.2
-22.84
-25.87
-28.75
-32.07
-36.19
-41.06
-46.01
-49.78
-50.84
-47.82
-40.14
-28.2
-13.4
2.3
16.96
29.12
37.99
43.42
45.62
44.93
41.7
36.38
29.57
22.08
14.81
8.64
4.21
1.76
1.14
1.9
3.49
5.42
7.46
9.51
11.54
13.36
14.58
14.72
13.41
10.56
6.5
1.84
-2.73
-6.68
-9.82
-12.32
-14.59
-17.12
-20.29
-24.29
-28.92
-33.63
-37.55
-39.64
-38.92
-34.72
-26.9
-15.98
-3.07
10.3
22.51
32.16
38.41
41.02
40.31
36.97
31.81
25.54
18.81
12.19
6.25
1.53
-1.53
-2.78
-2.42
-0.88
1.29
3.65
5.93
7.95
9.52
10.36
10.14
8.59
5.65
1.54
-3.29
-8.29
-13.0
-17.19
-20.89
-24.44
-28.28
-32.78
-37.95
-43.21
-47.47
-49.3
-47.42
-41.18
-30.87
-17.63
-3.2
10.62
22.36
31.11
36.5
38.57
37.63
34.12
28.65
21.93
14.78
8.03
2.42
-1.53
-3.63
-4.0
-2.99
-1.03
1.49
4.3
7.22
10.02
12.3
13.53
13.13
10.79
6.63
1.2
-4.67
-10.19
-14.9
-18.75
-22.07
-25.35
-29.03
-33.31
-38.04
-42.69
-46.37
-47.96
-46.4
-41.01
-31.81
-19.62
-5.88
7.66
19.46
28.49
34.33
37.11
37.24
35.21
31.53
26.67
21.16
15.6
10.59
6.67
4.18
3.21
3.56
4.84
6.61
8.5
10.28
11.84
13.09
13.91
14.06
13.28
11.37
8.34
4.43
0.11
-4.11
-7.78
-10.7
-12.91
-14.66
-16.32
-18.24
-20.72
-23.9
-27.69
-31.73
-35.25
-37.29
-36.8
-33.03
-25.78
-15.56
-3.49
8.93
20.28
29.45
35.86
39.37
40.16
38.53
34.82
29.41
22.82
15.77
9.14
3.84
0.6
-0.32
0.86
3.49
6.74
9.86
12.4
14.2
15.29
15.72
15.4
14.15
11.8
8.35
4.02
-0.74
-5.45
-9.72
-13.37
-16.43
-19.06
-21.53
-24.05
-26.83
-29.96
-33.28
-36.38
-38.53
-38.81
-36.43
-30.96
-22.53
-11.87
-0.15
11.34
21.46
29.4
34.74
37.34
37.35
35.04
30.83
25.28
19.07
12.92
7.54
3.5
1.15
0.5
1.25
2.94
4.98
6.91
8.46
9.54
10.19
10.37
9.94
8.69
6.42
3.09
-1.1
-5.81
-10.64
-15.21
-19.32
-22.84
-25.86
-28.57
-31.33
-34.53
-38.45
-43.05
-47.84
-51.84
-53.83
-52.66
-47.59
-38.6
-26.44
-12.39
1.93
14.97
25.58
33.13
37.48
38.89
37.8
34.7
30.11
24.63
18.92
13.69
9.56
6.95
6.0
6.56
8.32
10.9
13.87
16.82
19.29
20.87
21.17
20.01
17.42
13.71
9.4
5.04
1.11
-2.14
-4.77
-7.06
-9.35
-11.92
-14.82
-17.88
-20.82
-23.44
-25.75
-27.98
-30.55
-33.82
-37.92
-42.5
-46.74
-49.49
-49.49
-45.8
-38.06
-26.67
-12.74
2.17
16.39
28.47
37.42
42.77
44.55
43.16
39.31
33.81
27.53
21.25
15.68
11.33
8.57
7.53
8.13
10.1
13.05
16.54
20.16
23.55
26.34
28.19
28.74
27.78
25.34
21.72
17.45
13.07
8.91
5.02
1.18
-2.94
-7.49
-12.41
-17.4
-22.06
-26.02
-29.09
-31.33
-32.98
-34.42
-36.1
-38.29
-40.99
-43.77
-45.79
-45.95
-43.23
-36.98
-27.22
-14.69
-0.71
13.12
25.26
34.62
40.64
43.34
43.1
40.46
35.99
30.12
23.35
16.24
9.55
4.08
0.53
-0.75
0.15
2.66
6.05
9.54
12.61
14.97
16.45
16.99
16.54
15.11
12.8
9.82
6.46
2.97
-0.54
-4.06
-7.63
-11.24
-14.81
-18.22
-21.41
-24.42
-27.34
-30.34
-33.57
-37.02
-40.49
-43.44
-45.04
-44.23
-40.11
-32.23
-20.89
-7.26
6.98
19.98
30.3
37.16
40.51
40.78
38.64
34.65
29.29
23.01
16.29
9.77
4.11
-0.11
-2.54
-3.1
-2.0
0.34
3.36
6.44
9.02
10.66
11.18
10.55
8.95
6.55
3.59
0.23
-3.34
-6.99
-10.56
-14.0
-17.3
-20.48
-23.57
-26.5
-29.25
-31.82
-34.36
-37.12
-40.38
-44.16
-48.09
-51.33
-52.7
-51.01
-45.45
-35.89
-23.03
-8.23
6.84
20.59
31.79
39.78
44.34
45.62
44.01
40.07
34.45
27.97
21.45
15.71
11.42
8.97
8.46
9.68
12.16
15.32
18.57
21.44
23.58
24.8
24.98
24.09
22.08
19.04
15.07
10.42
5.37
0.22
-4.78
-9.46
-13.74
-17.59
-20.98
-23.92
-26.43
-28.68
-30.95
-33.61
-36.87
-40.61
-44.22
-46.57
-46.37
-42.57
-34.75
-23.46
-9.98
3.97
16.79
27.37
35.19
40.18
42.51
42.35
39.84
35.25
29.04
21.98
15.03
9.21
5.3
3.71
4.38
6.76
10.08
13.51
16.4
18.5
19.8
20.42
20.37
19.45
17.39
14.02
9.46
4.18
-1.23
-6.26
-10.66
-14.48
-17.95
-21.33
-24.86
-28.69
-32.91
-37.37
-41.67
-44.93
-45.99
-43.74
-37.53
-27.49
-14.59
-0.39
13.43
25.41
34.6
40.55
43.17
42.64
39.31
33.73
26.66
19.04
11.85
6.0
2.08
0.34
0.56
2.23
4.69
7.38
9.98
12.37
14.51
16.22
17.1
16.62
14.31
10.11
4.41
-2.0
-8.27
-13.77
-18.36
-22.32
-26.18
-30.45
-35.46
-41.24
-47.44
-53.28
-57.65
-59.25
-56.94
-50.1
-38.97
-24.64
-8.8
6.67
20.16
30.6
37.47
40.73
40.64
37.68
32.48
25.82
18.62
11.81
6.26
2.56
1.03
1.53
3.6
6.56
9.68
12.42
14.46
15.74
16.32
16.27
15.49
13.75
10.81
6.56
1.14
-5.02
-11.3
-17.09
-21.97
-25.81
-28.74
-31.2
-33.77
-37.01
-41.26
-46.31
-51.3
-54.82
-55.23
-51.26
-42.46
-29.45
-13.68
2.92
18.52
31.67
41.48
47.58
50.11
49.49
46.38
41.58
35.87
29.99
24.6
20.26
17.46
16.43
17.15
19.28
22.26
25.44
28.23
30.18
31.01
30.56
28.78
25.86
22.09
17.86
13.5
9.2
4.95
0.67
-3.72
-8.13
-12.35
-16.12
-19.24
-21.75
-23.88
-25.95
-28.35
-31.39
-35.2
-39.64
-44.14
-47.66
-48.84
-46.31
-39.13
-27.3
-11.85
5.32
21.92
35.95
46.1
52.0
53.95
52.68
48.98
43.58
37.17
30.42
24.09
18.96
15.69
14.6
15.62
18.19
21.47
24.56
26.74
27.69
27.46
26.34
24.6
22.34
19.43
15.69
11.09
5.87
0.53
-4.44
-8.78
-12.53
-15.9
-19.08
-22.07
-24.74
-27.02
-29.07
-31.38
-34.5
-38.71
-43.67
-48.33
-51.16
-50.57
-45.43
-35.49
-21.5
-5.02
11.93
27.39
39.89
48.65
53.55
54.87
53.09
48.7
42.26
34.47
26.25
18.6
12.54
8.73
7.34
8.09
10.33
13.32
16.38
19.02
20.87
21.62
21.05
19.0
15.49
10.73
5.16
-0.67
-6.17
-10.91
-14.72
-17.7
-20.22
-22.72
-25.53
-28.75
-32.11
-35.15
-37.36
-38.47
-38.58
-38.22
-38.16
-39.21
-41.91
-46.28
-51.72
-56.97
-60.34
-60.07
-54.78
-44.01
-28.46
-9.88
9.35
26.89
40.98
50.74
56.11
57.54
55.63
51.03
44.45
36.76
29.09
22.6
18.27
16.56
17.28
19.76
23.06
26.33
28.98
30.76
31.63
31.67
30.94
29.49
27.3
24.3
20.4
15.63
10.14
4.33
-1.24
-5.99
-9.55
-11.93
-13.47
-14.71
-16.15
-17.98
-20.13
-22.33
-24.27
-25.83
-27.04
-28.19
-29.61
-31.73
-34.9
-39.31
-44.81
-50.78
-56.12
-59.32
-58.85
-53.58
-43.23
-28.49
-10.94
7.36
24.33
38.3
48.26
53.85
55.28
53.17
48.31
41.65
34.16
26.79
20.38
15.6
12.83
12.08
13.01
15.07
17.64
20.27
22.65
24.62
25.99
26.45
25.66
23.39
19.68
14.92
9.71
4.67
0.27
-3.38
-6.39
-9.08
-11.71
-14.46
-17.3
-20.04
-22.4
-24.18
-25.36
-26.16
-27.12
-28.79
-31.71
-36.03
-41.34
-46.68
-50.56
-51.4
-47.92
-39.64
-27.02
-11.49
4.99
20.41
33.16
42.33
47.67
49.42
48.05
44.13
38.21
30.97
23.2
15.82
9.7
5.44
3.27
2.97
4.06
6.0
8.39
10.95
13.42
15.53
16.86
17.01
15.75
13.18
9.71
5.88
2.14
-1.32
-4.59
-7.96
-11.63
-15.69
-19.98
-24.19
-27.99
-31.16
-33.66
-35.66
-37.45
-39.41
-41.87
-44.99
-48.65
-52.29
-54.95
-55.41
-52.49
-45.44
-34.28
-19.91
-3.9
11.84
25.61
36.23
43.22
46.71
47.15
45.11
41.11
35.65
29.29
22.73
16.75
12.12
9.32
8.48
9.34
11.41
14.18
17.24
20.31
23.12
25.36
26.66
26.68
25.2
22.23
18.04
13.08
7.91
2.99
-1.4
-5.28
-8.86
-12.47
-16.29
-20.26
-24.0
-27.08
-29.21
-30.41
-31.06
-31.68
-32.82
-34.86
-38.02
-42.25
-47.22
-52.07
-55.49
-55.93
-52.06
-43.3
-30.22
-14.37
2.16
17.36
29.79
38.74
44.05
45.92
44.7
40.94
35.3
28.62
21.77
15.48
10.32
6.62
4.53
4.02
4.92
6.91
9.66
12.8
16.03
18.97
21.24
22.39
22.04
20.07
16.7
12.44
7.89
3.49
-0.57
-4.36
-8.1
-11.94
-15.91
-19.87
-23.59
-26.84
-29.4
-31.28
-32.69
-33.98
-35.62
-37.97
-41.09
-44.59
-47.56
-48.77
-46.95
-41.24
-31.55
-18.72
-4.33
9.81
22.14
31.7
38.24
41.93
43.08
41.94
38.66
33.44
26.74
19.26
11.92
5.65
1.17
-1.17
-1.44
-0.07
2.28
4.94
7.42
9.46
10.93
11.72
11.57
10.19
7.36
3.14
-2.12
-7.82
-13.34
-18.26
-22.45
-26.06
-29.42
-32.95
-37.02
-41.85
-47.4
-53.2
-58.39
-61.77
-62.11
-58.5
-50.6
-38.84
-24.32
-8.62
6.52
19.63
29.65
36.18
39.31
39.5
37.25
33.06
27.38
20.74
13.85
7.57
2.65
-0.39
-1.44
-0.76
1.2
3.99
7.23
10.62
13.82
16.42
17.96
18.04
16.43
13.15
8.43
2.66
-3.66
-10.04
-16.11
-21.65
-26.66
-31.33
-36.04
-41.27
-47.43
-54.58
-62.24
-69.22
-73.76
-74.01
-68.63
-57.28
-40.86
-21.25
-0.86
18.07
33.86
45.6
53.04
56.41
56.15
52.82
47.14
39.94
32.22
25.01
19.22
15.47
14.0
14.65
16.93
20.21
23.83
27.2
29.91
31.73
32.55
32.3
30.84
27.93
23.36
17.08
9.36
0.82
-7.73
-15.54
-22.17
-27.55
-31.97
-35.92
-40.0
-44.7
-50.27
-56.49
-62.47
-66.7
-67.32
-62.75
-52.22
-36.22
-16.41
4.77
24.79
41.54
53.79
61.14
63.88
62.67
58.29
51.59
43.43
34.74
26.57
19.99
15.85
14.55
15.89
19.13
23.21
27.12
30.22
32.26
33.29
33.41
32.59
30.56
27.0
21.69
14.74
6.69
-1.61
-9.27
-15.58
-20.32
-23.78
-26.62
-29.62
-33.45
-38.37
-44.16
-50.12
-55.05
-57.5
-56.02
-49.58
-37.94
-21.86
-3.06
16.22
33.69
47.63
57.07
61.87
62.4
59.26
53.14
44.84
35.33
25.87
17.79
12.23
9.74
10.13
12.55
15.84
18.97
21.36
22.91
23.76
24.0
23.44
21.67
18.27
13.05
6.22
-1.56
-9.45
-16.59
-22.41
-26.79
-30.16
-33.31
-37.15
-42.34
-48.95
-56.23
-62.66
-66.29
-65.26
-58.41
-45.67
-28.16
-7.95
12.49
30.83
45.38
55.29
60.48
61.37
58.59
52.84
44.89
35.63
26.17
17.75
11.5
8.16
7.88
10.15
13.99
18.29
22.09
24.82
26.25
26.43
25.45
23.36
20.11
15.66
10.02
3.38
-3.87
-11.18
-18.01
-23.94
-28.79
-32.66
-35.88
-38.95
-42.33
-46.38
-51.18
-56.37
-61.1
-64.01
-63.5
-58.15
-47.28
-31.34
-11.94
8.51
27.43
42.81
53.52
59.43
61.07
59.3
54.96
48.8
41.6
34.16
27.44
22.32
19.42
18.97
20.73
24.04
28.02
31.78
34.6
36.04
35.99
34.53
31.86
28.16
23.59
18.24
12.26
5.85
-0.73
-7.2
-13.3
-18.82
-23.59
-27.48
-30.44
-32.57
-34.2
-35.83
-38.02
-41.14
-45.12
-49.35
-52.64
-53.5
-50.53
-42.82
-30.39
-14.26
3.68
21.1
35.84
46.41
52.27
53.75
51.72
47.23
41.2
34.37
27.37
20.94
15.82
12.7
11.96
13.49
16.69
20.71
24.64
27.79
29.74
30.34
29.58
27.5
24.1
19.41
13.51
6.59
-1.04
-8.93
-16.58
-23.56
-29.58
-34.56
-38.68
-42.26
-45.69
-49.28
-53.21
-57.43
-61.61
-65.02
-66.59
-65.02
-59.13
-48.4
-33.27
-15.21
3.63
21.01
35.18
45.23
51.04
52.95
51.49
47.23
40.77
32.97
24.88
17.64
12.17
8.99
8.1
9.1
11.38
14.32
17.39
20.17
22.33
23.6
23.74
22.56
19.99
16.1
11.14
5.58
-0.03
-5.2
-9.66
-13.46
-16.88
-20.24
-23.66
-26.97
-29.81
-31.86
-33.03
-33.55
-33.89
-34.67
-36.39
-39.37
-43.54
-48.33
-52.56
-54.62
-52.86
-46.12
-34.33
-18.61
-1.04
15.94
30.28
40.72
46.92
49.23
48.35
45.11
40.32
34.75
29.15
24.17
20.31
17.83
16.78
16.95
18.05
19.75
21.8
24.0
26.21
28.22
29.7
30.22
29.34
26.79
22.64
17.34
11.63
6.25
1.66
-2.07
-5.21
-8.24
-11.49
-15.08
-18.79
-22.3
-25.29
-27.62
-29.37
-30.84
-32.46
-34.69
-37.85
-41.95
-46.49
-50.49
-52.57
-51.43
-46.18
-36.8
-24.13
-9.71
4.66
17.43
27.53
34.47
38.25
39.09
37.33
33.4
27.83
21.35
14.78
9.01
4.8
2.61
2.54
4.24
7.11
10.36
13.27
15.31
16.2
15.94
14.63
12.43
9.49
5.93
1.91
-2.43
-6.89
-11.32
-15.55
-19.46
-22.9
-25.79
-28.09
-29.91
-31.51
-33.25
-35.49
-38.49
-42.18
-46.06
-49.2
-50.38
-48.45
-42.7
-33.12
-20.52
-6.32
7.77
20.2
29.84
36.18
39.26
39.46
37.37
33.52
28.41
22.46
16.17
10.09
4.84
1.03
-0.96
-1.01
0.65
3.57
7.14
10.71
13.64
15.44
15.78
14.65
12.25
8.96
5.18
1.23
-2.75
-6.72
-10.68
-14.65
-18.6
-22.43
-26.03
-29.24
-31.89
-33.94
-35.51
-37.0
-38.85
-41.37
-44.37
-47.04
-48.06
-46.08
-40.14
-30.11
-16.78
-1.62
13.52
26.94
37.34
44.02
46.91
46.41
43.22
38.17
32.03
25.46
19.05
13.34
8.83
5.96
4.92
5.6
7.6
10.39
13.4
16.2
18.47
19.98
20.55
20.04
18.44
15.86
12.55
8.76
4.73
0.56
-3.68
-7.97
-12.23
-16.3
-20.0
-23.2
-25.93
-28.39
-30.99
-34.14
-38.07
-42.6
-46.97
-49.96
-50.22
-46.69
-39.02
-27.76
-14.2
-0.03
13.14
24.16
32.43
37.79
40.35
40.26
37.75
33.16
27.07
20.29
13.76
8.33
4.59
2.73
2.62
3.82
5.84
8.24
10.7
13.03
15.07
16.62
17.39
17.02
15.23
11.9
7.23
1.7
-4.07
-9.45
-14.04
-17.69
-20.58
-23.13
-25.85
-29.27
-33.68
-38.99
-44.54
-49.13
-51.33
-49.84
-44.0
-34.05
-21.09
-6.76
7.21
19.39
28.91
35.38
38.79
39.3
37.16
32.69
26.36
18.86
11.08
4.06
-1.28
-4.27
-4.79
-3.19
-0.21
3.35
6.87
10.07
12.89
15.34
17.27
18.27
17.85
15.62
11.52
5.94
-0.41
-6.74
-12.42
-17.2
-21.15
-24.56
-27.8
-31.19
-34.96
-39.22
-43.87
-48.46
-52.1
-53.54
-51.5
-45.15
-34.46
-20.37
-4.51
11.16
24.91
35.53
42.5
45.85
45.95
43.3
38.49
32.1
24.87
17.61
11.29
6.72
4.4
4.35
6.08
8.79
11.7
14.31
16.43
18.09
19.39
20.22
20.36
19.49
17.4
14.04
9.62
4.5
-0.83
-5.9
-10.33
-14.0
-17.07
-19.91
-22.97
-26.56
-30.77
-35.33
-39.66
-42.93
-44.19
-42.49
-37.22
-28.29
-16.36
-2.69
11.05
23.21
32.6
38.64
41.31
40.95
38.01
33.01
26.51
19.26
12.17
6.17
1.98
-0.08
-0.16
1.29
3.66
6.46
9.38
12.16
14.58
16.31
16.99
16.32
14.17
10.71
6.34
1.62
-2.94
-6.99
-10.45
-13.56
-16.76
-20.53
-25.12
-30.45
-35.92
-40.49
-42.89
-41.91
-36.82
-27.62
-15.11
-0.79
13.52
26.1
35.63
41.49
43.67
42.6
38.97
33.43
26.64
19.19
11.72
4.86
-0.72
-4.52
-6.26
-5.98
-3.99
-0.77
3.08
6.91
10.07
11.87
11.79
9.65
5.7
0.61
-4.73
-9.57
-13.5
-16.67
-19.58
-22.95
-27.37
-33.06
-39.74
-46.51
-51.98
-54.56
-52.82
-46.02
-34.38
-19.18
-2.43
13.61
27.08
36.8
42.42
44.17
42.65
38.48
32.37
25.05
17.41
10.43
4.97
1.63
0.54
1.34
3.39
5.95
8.5
10.75
12.59
13.96
14.69
14.46
12.92
9.84
5.26
-0.45
-6.64
-12.62
-17.83
-22.06
-25.51
-28.73
-32.4
-37.01
-42.62
-48.65
-53.98
-57.09
-56.51
-51.22
-41.04
-26.77
-10.06
7.0
22.42
34.74
43.26
47.93
49.16
47.47
43.43
37.59
30.72
23.71
17.63
13.38
11.5
11.97
14.33
17.76
21.45
24.72
27.14
28.47
28.64
27.6
25.33
21.85
17.23
11.63
5.35
-1.22
-7.64
-13.5
-18.6
-22.94
-26.7
-30.15
-33.52
-37.01
-40.74
-44.74
-48.82
-52.38
-54.38
-53.52
-48.64
-39.25
-25.83
-9.85
6.67
21.73
33.83
42.27
46.96
48.22
46.51
42.28
36.08
28.6
20.75
13.58
8.11
5.07
4.73
6.81
10.54
14.88
18.84
21.74
23.28
23.52
22.66
20.78
17.8
13.51
7.89
1.23
-5.86
-12.64
-18.53
-23.34
-27.29
-30.79
-34.28
-38.03
-42.16
-46.68
-51.37
-55.72
-58.79
-59.32
-56.03
-48.1
-35.54
-19.38
-1.46
16.03
31.13
42.54
49.72
52.87
52.6
49.63
44.65
38.27
31.07
23.79
17.29
12.48
10.06
10.24
12.71
16.69
21.14
25.13
27.96
29.28
28.99
27.16
23.97
19.64
14.44
8.67
2.59
-3.55
-9.55
-15.24
-20.45
-24.98
-28.73
-31.67
-33.95
-35.87
-37.83
-40.27
-43.52
-47.66
-52.32
-56.63
-59.23
-58.53
-53.25
-42.81
-27.73
-9.56
9.5
27.14
41.56
51.72
57.37
58.85
56.83
52.12
45.59
38.21
30.93
24.64
20.07
17.62
17.36
18.95
21.85
25.37
28.89
31.97
34.31
35.68
35.82
34.49
31.53
27.04
21.43
15.37
9.52
4.25
-0.44
-4.89
-9.45
-14.28
-19.15
-23.63
-27.23
-29.69
-31.08
-31.8
-32.52
-33.96
-36.7
-40.9
-46.05
-50.96
-53.86
-52.94
-46.93
-35.6
-19.88
-1.69
16.62
32.86
45.4
53.44
56.93
56.38
52.59
46.48
38.91
30.75
22.85
16.11
11.33
9.03
9.29
11.65
15.25
19.1
22.43
24.85
26.27
26.81
26.5
25.26
22.97
19.57
15.15
9.94
4.21
-1.8
-7.85
-13.67
-18.96
-23.41
-26.84
-29.32
-31.21
-33.05
-35.37
-38.59
-42.76
-47.49
-51.97
-54.96
-55.05
-50.96
-42.09
-28.78
-12.4
4.94
20.94
33.75
42.36
46.68
47.29
45.01
40.61
34.69
27.76
20.38
13.25
7.14
2.71
0.35
0.1
1.63
4.41
7.77
11.07
13.78
15.5
15.98
15.14
13.04
9.89
5.93
1.49
-3.15
-7.76
-12.23
-16.52
-20.65
-24.61
-28.35
-31.74
-34.7
-37.19
-39.39
-41.59
-44.2
-47.52
-51.49
-55.51
-58.46
-58.87
-55.38
-47.24
-34.64
-18.76
-1.49
15.12
29.32
40.01
46.78
49.72
49.21
45.84
40.28
33.31
25.74
18.42
12.06
7.25
4.31
3.39
4.35
6.85
10.39
14.33
18.04
20.98
22.76
23.18
22.21
19.96
16.66
12.65
8.29
3.89
-0.41
-4.6
-8.81
-13.12
-17.53
-21.83
-25.71
-28.88
-31.28
-33.13
-34.89
-37.13
-40.26
-44.29
-48.75
-52.64
-54.66
-53.44
-47.98
-38.01
-24.17
-7.88
8.89
24.18
36.45
44.84
49.19
49.89
47.59
43.03
36.92
29.91
22.66
15.86
10.17
6.17
4.24
4.48
6.62
10.05
13.96
17.47
19.89
20.89
20.45
18.81
16.3
13.18
9.57
5.54
1.18
-3.36
-7.84
-12.08
-15.94
-19.38
-22.43
-25.17
-27.77
-30.51
-33.7
-37.55
-41.95
-46.28
-49.42
-50.02
-46.91
-39.52
-28.14
-13.87
1.64
16.61
29.52
39.3
45.47
48.07
47.47
44.2
38.87
32.05
24.35
16.53
9.43
3.92
0.67
-0.08
1.34
4.2
7.55
10.65
13.03
14.49
15.0
14.5
12.95
10.25
6.45
1.69
-3.73
-9.47
-15.15
-20.43
-25.08
-29.05
-32.44
-35.52
-38.66
-42.17
-46.27
-50.88
-55.63
-59.79
-62.27
-61.8
-57.27
-48.06
-34.41
-17.51
0.73
18.18
32.97
43.91
50.64
53.36
52.65
49.19
43.64
36.67
29.01
21.5
14.99
10.19
7.56
7.13
8.59
11.32
14.62
17.82
20.47
22.34
23.39
23.64
23.06
21.55
19.0
15.4
10.9
5.82
0.48
-4.87
-10.08
-15.06
-19.71
-23.92
-27.61
-30.94
-34.3
-38.12
-42.68
-47.72
-52.38
-55.28
-54.92
-50.2
-40.79
-27.33
-11.22
5.65
21.44
34.68
44.51
50.65
53.29
52.79
49.64
44.31
37.34
29.49
21.7
14.95
10.13
7.72
7.68
9.51
12.45
15.74
18.8
21.3
23.07
24.02
24.08
23.12
21.05
17.84
13.56
8.42
2.77
-2.96
-8.3
-12.88
-16.59
-19.59
-22.21
-24.91
-28.06
