0
4.8
2.65
0.48
-2.05
-5.15
-8.89
-13.09
-17.49
-21.77
-25.72
-29.21
-32.34
-35.31
-38.46
-42.15
-46.7
-52.27
-58.68
-65.3
-71.01
-74.42
-74.22
-69.78
-61.41
-50.35
-38.42
-27.36
-18.36
-11.7
-6.97
-3.39
-0.14
3.37
7.45
12.15
17.25
22.35
26.93
30.53
32.9
34.1
34.45
34.36
34.23
34.31
34.76
35.59
36.76
38.09
39.29
40.02
40.01
39.11
37.43
35.25
32.88
30.57
28.45
26.48
24.54
22.5
20.25
17.76
15.1
12.36
9.74
7.38
5.34
3.54
1.79
-0.2
-2.65
-5.71
-9.36
-13.44
-17.68
-21.8
-25.61
-29.05
-32.29
-35.68
-39.66
-44.63
-50.67
-57.41
-63.96
-69.02
-71.28
-69.81
-64.43
-55.8
-45.25
-34.29
-24.2
-15.72
-8.96
-3.61
0.84
4.84
8.7
12.64
16.72
20.86
24.83
28.24
30.73
32.12
32.49
32.23
31.89
31.93
32.59
33.82
35.36
36.87
38.06
38.71
38.69
37.98
36.59
34.67
32.39
29.9
27.33
24.75
22.14
19.51
16.86
14.22
11.61
8.99
6.3
3.44
0.33
-3.08
-6.76
-10.65
-14.66
-18.67
-22.58
-26.35
-30.02
-33.77
-37.87
-42.62
-48.12
-54.1
-59.78
-64.0
-65.5
-63.33
-57.34
-48.24
-37.43
-26.54
-16.87
-9.06
-3.07
1.62
5.66
9.54
13.48
17.45
21.3
24.85
27.92
30.38
32.17
33.29
33.86
34.09
34.29
34.69
35.43
36.43
37.49
38.34
38.69
38.36
37.26
35.49
33.25
30.8
28.41
26.21
24.19
22.15
19.88
17.29
14.5
11.74
9.27
7.17
5.28
3.27
0.81
-2.31
-6.13
-10.51
-15.21
-19.94
-24.39
-28.38
-31.88
-35.14
-38.59
-42.81
-48.22
-54.89
-62.29
-69.34
-74.58
-76.6
-74.51
-68.27
-58.75
-47.46
-36.07
-25.94
-17.69
-11.28
-6.18
-1.71
2.67
7.32
12.34
17.64
22.96
27.84
31.79
34.4
35.54
35.46
34.71
33.97
33.78
34.37
35.66
37.36
39.08
40.45
41.2
41.1
40.05
38.15
35.65
32.92
30.34
28.14
26.34
24.76
23.1
21.08
18.59
15.66
12.52
9.41
6.51
3.84
1.23
-1.54
-4.63
-8.1
-11.8
-15.57
-19.25
-22.83
-26.37
-30.02
-33.92
-38.31
-43.45
-49.58
-56.66
-64.16
-70.97
-75.66
-76.83
-73.77
-66.65
-56.57
-45.11
-33.8
-23.69
-15.18
-8.16
-2.23
3.06
8.03
12.94
17.86
22.71
27.28
31.25
34.29
36.23
37.09
37.13
36.77
36.44
36.49
37.08
38.21
39.65
41.06
42.09
42.42
41.88
40.45
38.31
35.79
33.25
30.93
28.92
27.07
25.12
22.85
20.23
17.38
14.52
11.78
9.09
6.28
3.09
-0.56
-4.58
-8.73
-12.74
-16.46
-19.87
-23.07
-26.19
-29.43
-33.05
-37.38
-42.66
-48.85
-55.42
-61.32
-65.19
-65.86
-62.69
-55.93
-46.6
-36.15
-26.01
-17.14
-9.89
-4.11
0.63
4.82
8.82
12.81
16.82
20.71
24.32
27.43
29.91
31.71
32.89
33.6
34.0
34.22
34.35
34.48
34.66
34.93
35.23
35.4
35.24
34.48
32.95
30.65
27.71
24.42
21.05
17.81
14.74
11.73
8.62
5.24
1.58
-2.27
-6.12
-9.81
-13.28
-16.53
-19.65
-22.84
-26.34
-30.5
-35.63
-41.78
-48.52
-54.89
-59.51
-61.07
-58.82
-52.81
-43.98
-33.79
-23.7
-14.82
-7.63
-2.04
2.47
6.5
10.59
14.95
19.52
24.0
27.98
31.09
33.13
34.08
34.08
33.42
32.5
31.73
31.5
31.99
33.18
34.78
36.37
37.5
37.87
37.36
36.03
34.07
31.78
29.43
27.2
25.15
23.2
21.15
18.8
16.1
13.04
9.79
6.49
3.25
0.06
-3.11
-6.31
-9.57
-12.86
-16.16
-19.46
-22.75
-26.11
-29.62
-33.47
-37.88
-43.03
-48.94
-55.31
-61.4
-66.11
-68.29
-67.1
-62.36
-54.65
-45.18
-35.41
-26.57
-19.33
-13.71
-9.25
-5.3
-1.29
3.09
7.91
13.02
18.14
22.9
26.96
30.05
32.05
33.13
33.61
33.94
34.47
35.37
36.58
37.88
38.99
39.69
39.87
39.44
38.41
36.83
34.84
32.6
30.28
27.96
25.63
23.17
20.48
17.49
14.25
10.92
7.73
4.89
2.51
0.49
-1.44
-3.69
-6.6
-10.25
-14.4
-18.57
-22.3
-25.37
-27.92
-30.38
-33.31
-37.17
-42.19
-48.28
-54.93
-61.29
-66.18
-68.4
-67.08
-62.05
-53.95
-44.05
-33.84
-24.59
-16.97
-11.05
-6.45
-2.59
1.08
4.98
9.29
13.96
18.72
23.18
26.89
29.54
30.99
31.37
30.98
30.24
29.57
29.33
29.66
30.47
31.46
32.17
32.22
31.4
29.82
27.77
25.64
23.72
22.03
20.39
18.55
16.32
13.71
10.93
8.24
5.83
3.69
1.66
-0.49
-2.97
-5.84
-9.02
-12.4
-15.83
-19.21
-22.43
-25.43
-28.24
-31.09
-34.39
-38.59
-43.93
-50.08
-56.03
-60.32
-61.55
-58.92
-52.59
-43.62
-33.53
-23.74
-15.18
-8.18
-2.62
1.81
5.46
8.64
11.63
14.65
17.84
21.09
24.13
26.58
28.16
28.77
28.58
27.94
27.29
26.98
27.24
28.07
29.31
30.61
31.59
31.95
31.51
30.3
28.48
26.28
23.92
21.57
19.32
17.18
15.15
13.14
11.09
8.97
6.84
4.81
2.99
1.32
-0.37
-2.36
-4.89
-8.04
-11.67
-15.47
-19.14
-22.5
-25.52
-28.36
-31.25
-34.51
-38.49
-43.42
-49.36
-55.89
-62.07
-66.62
-68.28
-66.24
-60.51
-51.95
-41.95
-32.01
-23.23
-16.11
-10.55
-6.08
-2.12
1.79
5.95
10.43
15.11
19.79
24.15
27.88
30.74
32.59
33.46
33.58
33.27
32.93
32.85
33.21
33.99
35.03
36.08
36.89
37.21
36.9
35.92
34.39
32.47
30.37
28.28
26.3
24.45
22.68
20.88
18.98
16.86
14.48
11.85
9.06
6.25
3.55
1.0
-1.48
-4.03
-6.81
-9.87
-13.15
-16.49
-19.74
-22.79
-25.64
-28.39
-31.26
-34.53
-38.46
-43.22
-48.74
-54.55
-59.73
-63.16
-63.76
-60.89
-54.63
-45.76
-35.62
-25.59
-16.8
-9.83
-4.69
-0.96
1.97
4.69
7.64
11.03
14.86
18.88
22.73
26.04
28.46
29.88
30.4
30.36
30.16
30.17
30.57
31.29
32.07
32.6
32.66
32.17
31.18
29.83
28.23
26.47
24.6
22.68
20.76
18.86
16.94
14.94
12.75
10.33
7.67
4.83
1.85
-1.23
-4.39
-7.58
-10.69
-13.57
-16.11
-18.32
-20.35
-22.52
-25.22
-28.79
-33.36
-38.64
-43.91
-48.06
-49.94
-48.73
-44.27
-37.14
-28.47
-19.56
-11.43
-4.68
0.56
4.5
7.48
9.85
11.92
13.89
15.85
17.73
19.33
20.47
21.1
21.31
21.33
21.39
21.6
21.96
22.39
22.81
23.22
23.58
23.84
23.89
23.58
22.74
21.29
19.26
16.78
14.1
11.5
9.16
7.2
5.56
4.07
2.49
0.64
-1.6
-4.21
-7.13
-10.2
-13.25
-16.11
-18.7
-21.03
-23.28
-25.79
-28.9
-32.83
-37.5
-42.37
-46.53
-48.93
-48.71
-45.51
-39.63
-31.92
-23.55
-15.62
-8.92
-3.76
-0.02
2.68
4.86
6.95
9.25
11.84
14.66
17.5
20.14
22.35
23.93
24.8
24.98
24.64
24.04
23.5
23.29
23.49
23.98
24.44
24.5
23.89
22.57
20.74
18.69
16.71
14.97
13.42
11.92
10.32
8.55
6.68
4.9
3.39
2.18
1.16
0.07
-1.4
-3.49
-6.22
-9.47
-12.91
-16.21
-19.12
-21.56
-23.63
-25.67
-28.06
-31.2
-35.23
-39.96
-44.76
-48.66
-50.58
-49.67
-45.64
-38.86
-30.35
-21.43
-13.36
-7.0
-2.59
0.16
1.87
3.24
4.81
6.85
9.47
12.52
15.72
18.69
21.01
22.38
22.67
22.06
20.92
19.73
18.87
18.58
18.86
19.58
20.51
21.41
22.02
22.13
21.58
20.29
18.3
15.75
12.9
10.06
7.5
5.42
3.84
2.54
1.17
-0.64
-3.09
-6.11
-9.39
-12.49
-15.05
-16.99
-18.46
-19.85
-21.59
-24.04
-27.35
-31.45
-35.92
-40.04
-42.88
-43.55
-41.53
-36.87
-30.28
-22.87
-15.78
-9.83
-5.31
-2.05
0.4
2.53
4.68
7.0
9.5
12.04
14.41
16.3
17.51
17.92
17.64
16.93
16.13
15.55
15.32
15.44
15.84
16.4
16.98
17.38
17.35
16.66
15.22
13.16
10.8
8.57
6.75
5.37
4.2
2.93
1.3
-0.74
-3.1
-5.6
-8.13
-10.62
-13.11
-15.65
-18.3
-21.15
-24.33
-27.98
-32.22
-36.98
-41.9
-46.27
-49.17
-49.68
-47.29
-42.11
-34.91
-26.89
-19.27
-12.89
-8.03
-4.41
-1.47
1.3
4.22
7.34
10.5
13.44
15.95
17.86
19.07
19.62
19.61
19.25
18.81
18.54
18.68
19.29
20.29
21.47
22.52
23.15
23.14
22.43
21.1
19.35
17.39
15.38
13.42
11.5
9.63
7.8
6.04
4.38
2.77
1.13
-0.69
-2.85
-5.39
-8.29
-11.43
-14.61
-17.73
-20.67
-23.47
-26.25
-29.24
-32.76
-37.09
-42.33
-48.18
-53.91
-58.46
-60.74
-60.03
-56.2
-49.81
-41.84
-33.39
-25.37
-18.36
-12.59
-8.01
-4.34
-1.19
1.94
5.46
9.53
14.06
18.64
22.76
25.94
27.94
28.75
28.64
28.05
27.47
27.37
27.99
29.32
31.1
32.91
34.31
34.99
34.83
33.92
32.51
30.88
29.26
27.78
26.38
24.87
23.04
20.78
18.13
15.32
12.58
10.02
7.58
5.06
2.28
-0.88
-4.37
-8.08
-11.84
-15.54
-19.1
-22.5
-25.85
-29.29
-33.12
-37.6
-42.91
-48.92
-55.07
-60.39
-63.72
-64.0
-60.67
-53.95
-44.85
-34.88
-25.56
-17.93
-12.21
-7.96
-4.36
-0.61
3.72
8.69
14.05
19.41
24.41
28.66
31.88
33.91
34.81
34.86
34.51
34.26
34.42
35.11
36.18
37.35
38.3
38.75
38.53
37.61
36.11
34.25
32.29
30.35
28.45
26.41
24.09
21.4
18.45
15.42
12.47
9.62
6.73
3.62
0.16
-3.59
-7.45
-11.16
-14.51
-17.43
-20.07
-22.72
-25.82
-29.82
-35.02
-41.34
-48.16
-54.34
-58.5
-59.42
-56.53
-50.08
-41.15
-31.19
-21.62
-13.34
-6.68
-1.35
3.15
7.37
11.66
16.11
20.56
24.68
28.08
30.47
31.68
31.84
31.25
30.37
29.67
29.49
29.97
31.0
32.34
33.7
34.83
35.51
35.62
35.03
33.64
31.43
28.55
25.32
22.13
19.33
16.96
14.82
12.48
9.57
5.93
1.68
-2.81
-7.15
-11.02
-14.32
-17.17
-19.85
-22.78
-26.4
-31.05
-36.85
-43.53
-50.37
-56.29
-60.09
-60.76
-57.84
-51.53
-42.72
-32.72
-22.82
-13.99
-6.68
-0.77
4.17
8.7
13.22
17.93
22.7
27.24
31.17
34.15
35.99
36.7
36.51
35.8
35.01
34.53
34.58
35.13
35.99
36.84
37.38
37.42
36.89
35.85
34.41
32.7
30.85
28.93
27.04
25.18
23.28
21.28
19.11
16.74
14.22
11.64
9.04
6.34
3.37
-0.04
-3.96
-8.33
-12.92
-17.41
-21.52
-25.11
-28.29
-31.38
-34.9
-39.35
-45.01
-51.67
-58.51
-64.26
-67.47
-67.03
-62.57
-54.62
-44.43
-33.56
-23.42
-14.86
-8.08
-2.78
1.62
5.71
9.86
14.25
18.85
23.44
27.73
31.37
34.06
35.57
35.91
35.34
34.33
33.43
33.07
33.44
34.41
35.66
36.77
37.43
37.41
36.66
35.24
33.32
31.15
28.98
27.0
25.32
23.86
22.4
20.72
18.65
16.13
13.3
10.43
7.78
5.57
3.82
2.31
0.68
-1.42
-4.19
-7.57
-11.26
-14.9
-18.22
-21.18
-23.98
-26.94
-30.43
-34.74
-39.95
-45.9
-52.07
-57.6
-61.44
-62.65
-60.64
-55.45
-47.72
-38.55
-29.12
-20.44
-13.11
-7.26
-2.69
1.05
4.45
7.94
11.8
16.01
20.31
24.26
27.4
29.39
30.22
30.12
29.52
28.85
28.38
28.21
28.34
28.72
29.28
29.91
30.39
30.43
29.78
28.35
26.27
23.88
21.5
19.29
17.22
15.13
12.86
10.44
8.02
5.77
3.76
1.87
-0.09
-2.34
-4.95
-7.85
-10.87
-13.78
-16.47
-18.93
-21.3
-23.81
-26.8
-30.52
-35.08
-40.25
-45.43
-49.7
-52.05
-51.68
-48.25
-42.09
-34.05
-25.34
-17.09
-10.05
-4.5
-0.24
3.12
5.99
8.63
11.19
13.72
16.21
18.6
20.68
22.22
23.02
23.08
22.63
22.1
21.87
22.13
22.8
23.57
24.12
24.24
23.92
23.22
22.22
20.91
19.26
17.25
14.94
12.5
10.08
7.82
5.75
3.8
1.85
-0.25
-2.63
-5.34
-8.31
-11.43
-14.48
-17.28
-19.74
-21.92
-23.98
-26.18
-28.76
-31.94
-35.79
-40.24
-44.91
-49.09
-51.84
-52.24
-49.66
-44.16
-36.47
-27.81
-19.41
-12.2
-6.5
-2.15
1.27
4.19
6.91
9.6
12.31
15.04
17.63
19.9
21.61
22.64
23.03
23.0
22.84
22.8
22.99
23.46
24.17
25.08
26.06
26.9
27.31
27.07
26.08
24.46
22.5
20.45
18.43
16.41
14.29
11.98
9.56
7.18
4.99
3.03
1.23
-0.58
-2.52
-4.7
-7.17
-9.91
-12.86
-15.9
-18.88
-21.61
-23.98
-25.99
-27.81
-29.76
-32.23
-35.58
-39.91
-44.95
-49.89
-53.62
-54.98
-53.22
-48.29
-40.94
-32.41
-24.05
-16.82
-11.18
-7.03
-3.97
-1.47
0.92
3.58
6.73
10.42
14.46
18.43
21.81
24.17
25.33
25.41
24.78
23.94
23.31
23.16
23.56
24.45
25.63
26.84
27.76
28.11
27.62
26.25
24.15
21.7
19.31
17.34
15.92
14.92
14.03
12.91
11.31
9.23
6.82
4.33
1.93
-0.31
-2.44
-4.6
-6.85
-9.17
-11.48
-13.69
-15.79
-17.91
-20.21
-22.81
-25.79
-29.18
-33.01
-37.33
-42.03
-46.72
-50.63
-52.77
-52.24
-48.66
-42.37
-34.38
-26.0
-18.37
-12.13
-7.34
-3.66
-0.62
2.2
5.07
8.1
11.3
14.53
17.59
20.24
22.29
23.62
24.28
24.38
24.1
23.71
23.45
23.58
24.22
25.32
26.59
27.54
27.75
26.98
25.34
23.19
21.0
19.19
17.89
17.03
16.35
15.49
14.16
12.26
9.91
7.37
4.94
2.84
1.0
-0.81
-2.92
-5.5
-8.44
-11.48
-14.29
-16.73
-18.91
-21.09
-23.52
-26.35
-29.64
-33.41
-37.64
-42.16
-46.52
-49.93
-51.43
-50.24
-46.1
-39.45
-31.27
-22.78
-15.01
-8.55
-3.56
0.16
3.0
5.35
7.53
9.72
11.95
14.09
15.94
17.31
18.11
18.36
18.19
17.84
17.56
17.61
18.12
19.13
20.47
21.85
22.92
23.4
23.09
21.93
20.0
17.49
14.78
12.31
10.5
9.54
9.28
9.24
8.78
7.37
4.84
1.39
-2.5
-6.38
-9.95
-13.11
-15.93
-18.48
-20.85
-23.2
-25.8
-28.95
-32.92
-37.64
-42.59
-46.83
-49.26
-48.96
-45.57
-39.44
-31.61
-23.33
-15.78
-9.59
-4.83
-1.09
2.19
5.46
8.84
12.21
15.35
18.08
20.35
22.13
23.41
24.13
24.23
23.78
23.01
22.33
22.09
22.48
23.45
24.72
25.92
26.74
27.02
26.7
25.85
24.57
22.97
21.17
19.21
17.14
15.0
12.82
10.68
8.65
6.72
4.72
2.46
-0.25
-3.43
-6.87
-10.26
-13.3
-15.9
-18.21
-20.48
-23.05
-26.2
-30.17
-35.1
-40.91
-47.14
-52.85
-56.84
-58.0
-55.75
-50.28
-42.55
-33.87
-25.52
-18.29
-12.47
-7.9
-4.2
-0.95
2.24
5.6
9.24
13.12
17.06
20.79
24.03
26.6
28.41
29.57
30.3
30.9
31.61
32.53
33.6
34.62
35.38
35.78
35.82
35.62
35.29
34.84
34.19
33.24
31.89
30.12
27.93
25.33
22.36
19.12
15.77
12.55
9.57
6.75
3.81
0.42
-3.57
-8.02
-12.48
-16.5
-19.81
-22.53
-25.09
-28.06
-31.96
-37.02
-43.14
-49.74
-55.96
-60.65
-62.73
-61.5
-56.88
-49.51
-40.53
-31.2
-22.55
-15.1
-8.92
-3.74
0.8
5.01
9.13
13.26
17.37
21.28
24.73
27.43
29.21
30.07
30.2
29.93
29.64
29.62
30.04
30.86
31.89
32.83
33.36
33.31
32.66
31.55
30.17
28.67
27.09
25.42
23.6
21.61
19.49
17.35
15.25
13.25
11.29
9.24
6.91
4.15
0.91
-2.7
-6.45
-10.09
-13.51
-16.74
-19.99
-23.54
-27.66
-32.56
-38.29
-44.61
-50.96
-56.4
-59.81
-60.18
-57.04
-50.62
-41.92
-32.25
-22.9
-14.68
-7.84
-2.19
2.6
6.86
10.78
14.46
17.93
21.18
24.07
26.41
27.97
28.67
28.62
28.12
27.6
27.37
27.58
28.22
29.11
30.06
30.8
31.04
30.53
29.08
26.71
23.71
20.49
17.44
14.76
12.38
10.05
7.52
4.68
1.62
-1.48
-4.4
-7.01
-9.32
-11.49
-13.83
-16.72
-20.53
-25.5
-31.54
-38.11
-44.27
-48.84
-50.76
-49.39
-44.79
-37.67
-29.2
-20.64
-12.95
-6.56
-1.45
2.73
6.42
9.9
13.28
16.56
19.65
22.48
24.97
26.97
28.39
29.18
29.44
29.41
29.38
29.58
30.03
30.63
31.14
31.41
31.34
30.95
30.28
29.35
28.11
26.47
24.37
21.82
18.93
15.88
12.95
10.31
7.98
5.77
3.38
0.52
-2.93
-6.84
-10.87
-14.67
-18.05
-21.03
-23.81
-26.76
-30.22
-34.46
-39.54
-45.16
-50.6
-54.76
-56.49
-54.92
-49.92
-42.14
-32.83
-23.41
-14.98
-8.11
-2.83
1.21
4.46
7.36
10.2
13.15
16.24
19.33
22.16
24.46
26.02
26.81
26.96
26.74
26.46
26.41
26.79
27.65
28.85
30.12
31.09
31.48
31.1
30.01
28.39
26.51
24.58
22.75
21.08
19.49
17.87
16.03
13.88
11.39
8.73
6.12
3.69
1.44
-0.84
-3.37
-6.27
-9.43
-12.57
-15.42
-17.84
-20.0
-22.2
-24.87
-28.29
-32.65
-37.88
-43.58
-49.03
-53.2
-55.07
-53.87
-49.48
-42.49
-34.09
-25.57
-18.02
-11.97
-7.4
-3.9
-0.93
1.96
5.1
8.56
12.25
15.9
19.19
21.75
23.37
24.02
23.87
23.29
22.64
22.25
22.29
22.79
23.67
24.7
25.7
26.49
26.95
27.04
26.75
26.06
25.0
23.65
22.11
20.56
19.1
17.72
16.29
14.62
12.62
10.33
7.97
5.77
3.87
2.19
0.51
-1.41
-3.73
-6.45
-9.45
-12.58
-15.67
-18.56
-21.15
-23.44
-25.52
-27.67
-30.23
-33.56
-37.81
-42.76
-47.79
-51.89
-53.95
-53.09
-49.05
-42.28
-33.88
-25.21
-17.46
-11.29
-6.75
-3.48
-0.92
1.4
3.79
6.41
9.32
12.43
15.56
18.34
20.42
21.54
21.69
21.1
20.16
19.3
18.8
18.84
19.42
20.43
21.64
22.74
23.39
23.38
22.67
21.45
19.97
18.49
17.08
15.71
14.25
12.58
10.73
8.83
7.01
5.37
3.93
2.6
1.21
-0.46
-2.54
-5.08
-7.97
-10.98
-13.85
-16.42
-18.69
-20.8
-22.95
-25.34
-28.2
-31.72
-36.03
-41.0
-46.11
-50.41
-52.76
-52.21
-48.47
-41.99
-33.89
-25.49
-17.87
-11.64
-6.84
-3.13
-0.06
2.77
5.65
8.64
11.63
14.36
16.55
18.01
18.73
18.88
18.73
18.57
18.59
18.88
19.45
20.26
21.2
22.13
22.83
23.1
22.82
21.99
20.72
19.2
17.55
15.87
14.13
12.3
10.35
8.32
6.23
4.15
2.07
-0.02
-2.21
-4.56
-7.19
-10.14
-13.38
-16.76
-20.0
-22.82
-24.98
-26.47
-27.52
-28.62
-30.4
-33.4
-37.88
-43.56
-49.63
-54.84
-57.9
-57.82
-54.37
-48.01
-39.85
-31.14
-22.97
-16.02
-10.54
-6.44
-3.39
-0.95
1.42
4.16
7.54
11.47
15.5
19.02
21.56
22.94
23.39
23.39
23.4
23.7
24.4
25.46
26.8
28.34
29.88
31.19
31.97
32.0
31.21
29.74
27.86
25.86
23.97
22.3
20.82
19.41
17.91
16.09
13.81
11.04
7.94
4.82
2.03
-0.26
-2.12
-3.83
-5.78
-8.24
-11.31
-14.86
-18.64
-22.43
-26.12
-29.69
-33.22
-36.87
-40.86
-45.43
-50.78
-56.86
-63.2
-68.79
-72.3
-72.46
-68.57
-60.87
-50.5
-39.15
-28.48
-19.56
-12.67
-7.48
-3.37
0.25
3.73
7.24
10.88
14.73
18.81
22.98
26.89
30.12
32.29
33.27
33.27
32.73
32.2
32.12
32.73
33.96
35.52
37.0
38.03
38.35
37.95
37.0
35.71
34.28
32.8
31.19
29.34
27.14
24.56
21.62
18.44
15.15
11.92
8.89
6.13
3.57
1.02
-1.81
-5.14
-9.01
-13.3
-17.71
-21.97
-25.9
-29.48
-32.86
-36.32
-40.3
-45.23
-51.38
-58.63
-66.25
-72.98
-77.25
-77.73
-73.83
-65.94
-55.29
-43.59
-32.37
-22.67
-14.86
-8.74
-3.74
0.77
5.35
10.33
15.75
21.42
26.92
31.8
35.65
38.26
39.7
40.2
40.19
40.11
40.27
40.82
41.73
42.85
43.95
44.79
45.12
44.75
43.54
41.56
39.07
36.47
34.16
32.25
30.61
28.84
26.57
23.68
20.37
17.06
14.13
11.67
9.45
7.01
3.92
-0.0
-4.62
-9.56
-14.39
-18.85
-22.87
-26.66
-30.52
-34.87
-40.0
-46.09
-53.09
-60.62
-67.87
-73.71
-76.84
-76.17
-71.25
-62.49
-51.13
-38.88
-27.39
-17.72
-10.15
-4.32
0.54
5.11
9.84
14.76
19.69
24.32
28.35
31.57
33.94
35.49
36.35
36.75
36.89
37.0
37.25
37.71
38.42
39.3
40.15
40.71
40.69
39.84
38.09
35.51
32.31
28.79
25.21
21.78
18.58
15.57
12.63
9.57
6.22
2.47
-1.63
-5.96
-10.35
-14.64
-18.82
-23.0
-27.4
-32.29
-37.99
-44.69
-52.39
-60.68
-68.63
-74.89
-77.97
-76.74
-70.92
-61.24
-49.19
-36.6
-24.95
-15.08
-7.02
-0.34
5.56
11.13
16.56
21.85
26.86
31.4
35.28
38.32
40.39
41.52
41.87
41.75
41.57
41.7
42.35
43.54
45.07
46.55
47.57
47.79
47.09
45.58
43.55
41.31
39.09
36.95
34.81
32.51
29.91
26.97
23.72
20.28
16.77
13.3
9.89
6.43
2.73
-1.38
-5.96
-10.9
-15.95
-20.83
-25.37
-29.6
-33.79
-38.39
-43.87
-50.58
-58.47
-66.87
-74.53
-79.77
-81.0
-77.34
-68.98
-57.2
-43.88
-30.9
-19.57
-10.41
-3.3
2.26
6.84
10.98
15.14
19.64
24.63
29.98
35.25
39.92
43.51
45.84
47.03
47.44
47.51
47.6
48.0
48.79
49.93
51.22
52.33
52.87
52.51
51.1
48.75
45.78
42.58
39.49
36.67
34.09
31.55
28.85
25.83
22.5
18.97
15.49
12.23
9.27
6.43
3.42
-0.12
-4.4
-9.37
-14.73
-20.07
-25.0
-29.29
-32.97
-36.31
-39.82
-44.07
-49.63
-56.66
-64.78
-72.92
-79.46
-82.69
-81.39
-75.29
-65.16
-52.6
-39.49
-27.38
-17.19
-9.06
-2.58
2.95
8.17
13.49
19.03
24.64
30.03
34.85
38.82
41.74
43.53
44.25
44.1
43.44
42.76
42.49
42.93
44.04
45.53
46.89
47.62
47.39
46.13
44.04
41.47
38.81
36.35
34.19
32.25
30.26
27.98
25.24
22.08
18.7
15.4
12.42
9.8
7.39
4.95
2.16
-1.18
-5.1
-9.52
-14.19
-18.8
-23.1
-26.96
-30.47
-33.97
-37.98
-43.0
-49.29
-56.68
-64.32
-70.89
-74.83
-74.86
-70.45
-62.07
-51.03
-39.1
-27.91
-18.45
-10.97
-5.06
-0.04
4.68
9.45
14.34
19.2
23.81
27.86
31.11
33.33
34.45
34.53
33.85
32.8
31.81
31.21
31.17
31.66
32.49
33.36
33.97
34.04
33.41
32.04
30.0
27.48
24.68
21.79
18.97
16.31
13.84
11.52
9.2
6.68
3.72
0.21
-3.82
-8.17
-12.52
-16.62
-20.35
-23.86
-27.48
-31.65
-36.71
-42.82
-49.71
-56.64
-62.46
-65.79
-65.46
-60.99
-52.81
-42.2
-30.83
-20.2
-11.21
-4.03
1.69
6.51
10.95
15.28
19.61
23.78
27.46
30.28
31.92
32.29
31.62
30.37
29.06
28.09
27.65
27.72
28.22
29.0
29.91
30.69
31.08
30.83
29.8
27.97
25.51
22.64
19.65
16.82
14.34
12.29
10.55
8.83
6.72
3.85
0.14
-4.24
-8.88
-13.32
-17.25
-20.64
-23.72
-26.83
-30.31
-34.47
-39.54
-45.62
-52.59
-59.89
-66.46
-70.94
-72.01
-68.91
-61.82
-51.83
-40.56
-29.65
-20.21
-12.64
-6.71
-1.83
2.59
6.97
11.52
16.24
20.99
25.49
29.38
32.31
34.0
34.39
33.66
32.3
30.93
30.11
30.19
31.13
32.56
33.98
34.87
34.96
34.15
32.59
30.45
27.96
25.29
22.57
19.88
17.29
14.83
12.49
10.21
7.84
5.25
2.3
-1.03
-4.66
-8.43
-12.14
-15.64
-18.87
-21.91
-24.86
-27.92
-31.32
-35.37
-40.34
-46.36
-53.16
-59.93
-65.39
-68.12
-67.03
-61.81
-53.15
-42.51
-31.65
-22.08
-14.61
-9.33
-5.71
-2.95
-0.23
3.07
7.3
12.48
18.33
24.3
29.72
33.99
36.74
37.94
37.92
37.15
36.18
35.36
34.88
34.66
34.52
34.24
33.59
32.42
30.63
28.2
25.22
21.93
18.67
15.84
13.74
12.45
11.77
11.29
10.52
9.09
6.81
3.75
0.14
-3.69
-7.4
-10.75
-13.62
-16.15
-18.65
-21.61
-25.5
-30.59
-36.73
-43.31
-49.2
-53.13
-53.94
-51.07
-44.77
-36.05
-26.38
-17.23
-9.61
-3.82
0.43
3.77
6.86
10.11
13.63
17.28
20.83
24.03
26.64
28.49
29.45
29.53
28.83
27.62
26.28
25.16
24.52
24.44
24.74
25.08
25.03
24.22
22.44
19.77
16.55
13.29
10.42
8.15
6.33
4.58
2.46
-0.25
-3.54
-7.11
-10.6
-13.78
-16.63
-19.34
-22.24
-25.66
-29.89
-35.02
-40.84
-46.71
-51.61
-54.33
-53.92
-50.04
-43.14
-34.36
-25.11
-16.61
-9.56
-4.07
0.24
3.86
7.28
10.71
14.15
17.4
20.19
22.3
23.66
24.33
24.48
24.3
23.97
23.66
23.56
23.83
24.54
25.62
26.8
27.66
27.84
27.11
25.47
23.16
20.5
17.82
15.33
13.11
11.13
9.29
7.36
5.16
2.51
-0.65
-4.25
-8.06
-11.79
-15.15
-18.03
-20.47
-22.78
-25.4
-28.81
-33.34
-38.98
-45.22
-51.11
-55.45
-57.09
-55.38
-50.37
-42.87
-34.11
-25.46
-17.89
-11.84
-7.17
-3.39
0.08
3.69
7.61
11.8
16.07
20.13
23.72
26.55
28.41
29.17
28.94
27.99
26.76
25.74
25.26
25.44
26.13
27.03
27.79
28.14
27.91
27.08
25.68
23.86
21.76
19.59
17.45
15.39
13.39
11.37
9.34
7.35
5.47
3.69
1.86
-0.24
-2.82
-5.94
-9.46
-13.08
-16.51
-19.57
-22.3
-24.88
-27.64
-30.91
-34.98
-39.93
-45.54
-51.14
-55.72
-58.13
-57.5
-53.58
-46.85
-38.39
-29.55
-21.46
-14.79
-9.61
-5.61
-2.23
1.01
4.45
8.17
12.09
15.96
19.46
22.32
24.33
25.45
25.76
25.54
25.08
24.67
24.52
24.69
25.12
25.64
26.04
26.11
25.68
24.68
23.17
21.29
19.28
17.31
15.47
13.68
11.74
9.51
6.97
4.31
1.8
-0.39
-2.27
-4.06
-6.02
-8.31
-10.82
-13.29
-15.44
-17.13
-18.5
-19.89
-21.74
-24.43
-28.18
-32.92
-38.24
-43.38
-47.33
-49.07
-47.92
-43.79
-37.27
-29.45
-21.51
-14.39
-8.52
-3.9
-0.24
2.84
5.63
8.34
11.02
13.63
16.0
17.95
19.25
19.81
19.7
19.09
18.28
17.48
16.84
16.44
16.29
16.42
16.81
17.36
17.87
18.05
17.66
16.56
14.82
12.7
10.53
8.59
6.99
5.57
4.04
2.13
-0.34
-3.28
-6.48
-9.64
-12.55
-15.16
-17.54
-19.87
-22.37
-25.26
-28.76
-32.96
-37.71
-42.49
-46.39
-48.38
-47.64
-43.95
-37.77
-30.18
-22.41
-15.47
-9.82
-5.4
-1.82
1.39
4.56
7.81
11.1
14.25
17.05
19.3
20.87
21.76
22.12
22.22
22.35
22.71
23.34
24.12
24.83
25.26
25.33
25.04
24.49
23.76
22.92
21.95
20.82
19.5
17.97
16.24
14.33
12.24
9.9
7.33
4.58
1.77
-0.96
-3.53
-5.97
-8.38
-10.88
-13.54
-16.32
-19.24
-22.33
-25.68
-29.42
-33.59
-38.08
-42.66
-46.99
-50.6
-52.94
-53.45
-51.66
-47.48
-41.26
-33.77
-26.02
-18.84
-12.69
-7.63
-3.34
0.53
4.26
7.95
11.62
15.19
18.54
21.45
23.67
25.04
25.52
25.29
24.69
24.09
23.72
23.69
23.95
24.38
24.88
25.37
25.73
25.82
25.51
24.67
23.3
21.55
19.65
17.84
16.22
14.76
13.31
11.69
9.81
7.69
5.49
3.38
1.49
-0.17
-1.7
-3.28
-5.08
-7.24
-9.76
-12.57
-15.49
-18.34
-20.96
-23.33
-25.61
-28.12
-31.3
-35.48
-40.66
-46.37
-51.61
-55.14
-55.84
-53.15
-47.34
-39.39
-30.73
-22.69
-16.12
-11.2
-7.59
-4.67
-1.89
1.09
4.38
7.93
11.55
15.0
18.01
20.31
21.77
22.45
22.63
22.69
22.98
23.65
24.67
25.87
27.04
27.97
28.53
28.6
28.05
26.84
25.01
22.77
20.37
18.06
15.99
14.15
12.45
10.75
8.96
6.97
4.69
2.05
-0.94
-4.14
-7.28
-10.04
-12.26
-14.05
-15.82
-18.1
-21.33
-25.62
-30.77
-36.23
-41.25
-44.99
-46.66
-45.71
-41.98
-35.83
-28.1
-19.92
-12.37
-6.12
-1.34
2.29
5.32
8.26
11.38
14.69
17.93
20.8
23.01
24.44
25.2
25.55
25.79
26.16
26.65
27.14
27.43
27.42
27.16
26.85
26.62
26.46
26.17
25.47
24.14
22.17
19.75
17.15
14.65
12.4
10.37
8.44
6.45
4.3
1.89
-0.79
-3.7
-6.78
-9.95
-13.09
-16.11
-18.97
-21.67
-24.38
-27.34
-30.85
-35.14
-40.09
-45.19
-49.49
-51.88
-51.45
-47.86
-41.48
-33.25
-24.37
-15.92
-8.6
-2.7
1.83
5.29
8.06
10.57
13.17
16.04
19.1
22.07
24.57
26.27
27.04
26.89
26.05
24.85
23.65
22.86
22.77
23.51
24.93
26.64
28.12
28.94
28.89
28.07
26.73
25.18
23.64
22.16
20.66
18.98
17.0
14.73
12.33
10.01
7.96
6.21
4.64
2.99
1.03
-1.37
-4.24
-7.51
-11.05
-14.77
-18.52
-22.13
-25.52
-28.79
-32.24
-36.21
-40.85
-45.8
-50.19
-52.85
-52.79
-49.64
-43.8
-36.27
-28.21
-20.6
-13.95
-8.36
-3.67
0.35
3.9
7.18
10.34
13.5
16.64
19.62
22.18
24.11
25.25
25.62
25.38
24.79
24.13
23.66
23.6
24.02
24.81
25.72
26.45
26.67
26.24
25.19
23.65
21.83
19.89
17.88
15.77
13.56
11.26
8.9
6.58
4.34
2.23
0.3
-1.46
-3.13
-4.91
-7.05
-9.8
-13.18
-16.95
-20.65
-23.8
-26.13
-27.76
-29.19
-31.14
-34.2
-38.62
-44.09
-49.8
-54.55
-57.15
-56.72
-53.03
-46.57
-38.41
-29.83
-21.96
-15.47
-10.51
-6.81
-3.9
-1.3
1.36
4.28
7.42
10.59
13.5
15.84
17.44
18.32
18.66
18.79
18.99
19.47
20.32
21.52
22.93
24.37
25.61
26.44
26.74
26.45
25.58
24.22
22.43
20.28
17.83
15.21
12.57
10.09
7.84
5.8
3.77
1.53
-1.11
-4.17
-7.52
-10.92
-14.14
-17.07
-19.72
-22.25
-24.9
-27.96
-31.68
-36.24
-41.58
-47.31
-52.63
-56.44
-57.64
-55.51
-49.98
-41.8
-32.24
-22.72
-14.35
-7.67
-2.65
1.14
4.28
7.28
10.47
13.99
17.71
21.32
24.42
26.67
27.93
28.37
28.32
28.18
28.19
28.45
28.94
29.58
30.34
31.12
31.77
32.08
31.8
30.87
29.36
27.49
25.49
23.48
21.42
19.23
16.85
14.3
11.68
9.11
6.64
4.2
1.65
-1.22
-4.53
-8.28
-12.31
-16.32
-20.01
-23.15
-25.75
-28.06
-30.55
-33.76
-38.17
-43.93
-50.75
-57.81
-63.89
-67.59
-67.74
-63.86
-56.33
-46.39
-35.65
-25.71
-17.61
-11.59
-7.29
-3.96
-0.82
2.69
6.8
11.48
16.49
21.41
25.77
29.12
31.22
32.08
32.07
31.73
31.68
32.33
33.76
35.76
37.88
39.61
40.56
40.54
39.56
37.85
35.66
33.33
31.12
29.18
27.58
26.24
24.95
23.45
21.54
19.14
16.36
13.39
10.42
7.52
4.57
1.37
-2.27
-6.38
-10.85
-15.46
-20.0
-24.34
-28.46
-32.51
-36.74
-41.51
-47.11
-53.63
-60.67
-67.26
-71.97
-73.37
-70.57
-63.69
-53.84
-42.75
-32.1
-22.98
-15.71
-9.98
-5.18
-0.8
3.56
8.15
13.1
18.38
23.75
28.71
32.67
35.18
36.17
36.01
35.33
34.82
34.97
35.9
