0
5.69
4.5
3.19
1.75
0.27
-1.07
-2.16
-2.99
-3.72
-4.6
-5.84
-7.51
-9.51
-11.62
-13.53
-14.95
-15.61
-15.32
-13.97
-11.66
-8.64
-5.33
-2.14
0.65
2.92
4.75
6.24
7.48
8.44
9.09
9.37
9.33
9.1
8.86
8.77
8.91
9.27
9.72
10.12
10.35
10.36
10.19
9.93
9.67
9.43
9.16
8.75
8.09
7.14
5.95
4.7
3.54
2.61
1.9
1.33
0.73
-0.06
-1.12
-2.47
-4.09
-5.93
-7.95
-10.1
-12.2
-13.94
-14.92
-14.78
-13.37
-10.84
-7.65
-4.42
-1.64
0.45
1.95
3.15
4.33
5.61
6.88
7.94
8.65
9.0
9.15
9.27
9.49
9.79
10.1
10.35
10.49
10.56
10.59
10.57
10.44
10.15
9.64
8.91
8.02
7.08
6.17
5.3
4.44
3.55
2.59
1.57
0.55
-0.41
-1.34
-2.34
-3.62
-5.32
-7.47
-9.86
-12.09
-13.66
-14.14
-13.32
-11.27
-8.3
-4.87
-1.47
1.53
3.89
5.51
6.48
6.91
7.04
7.05
7.11
7.31
7.61
7.92
8.15
8.28
8.33
8.37
8.41
8.45
8.46
8.44
8.45
8.59
8.85
9.16
9.28
8.97
8.1
6.69
4.98
3.27
1.83
0.78
0.12
-0.27
-0.52
-0.8
-1.25
-1.99
-3.15
-4.82
-6.98
-9.45
-11.92
-13.99
-15.33
-15.7
-15.07
-13.54
-11.32
-8.66
-5.81
-3.07
-0.66
1.25
2.66
3.71
4.63
5.58
6.6
7.56
8.3
8.72
8.84
8.81
8.76
8.77
8.79
8.75
8.57
8.27
7.92
7.61
7.37
7.15
6.88
6.45
5.85
5.15
4.49
3.95
3.55
3.21
2.78
2.15
1.31
0.33
-0.65
-1.53
-2.31
-3.06
-3.84
-4.71
-5.74
-6.99
-8.52
-10.3
-12.18
-13.82
-14.8
-14.78
-13.63
-11.52
-8.85
-6.05
-3.49
-1.33
0.42
1.82
2.97
3.9
4.61
5.07
5.29
5.32
5.28
5.32
5.51
5.89
6.38
6.85
7.22
7.46
7.54
7.45
7.18
6.73
6.18
5.61
5.12
4.72
4.36
3.94
3.39
2.73
1.98
1.21
0.4
-0.43
-1.28
-2.1
-2.83
-3.45
-4.0
-4.55
-5.14
-5.81
-6.61
-7.61
-8.91
-10.55
-12.41
-14.17
-15.39
-15.66
-14.77
-12.81
-10.11
-7.13
-4.31
-1.94
-0.1
1.28
2.34
3.2
3.89
4.33
4.44
4.24
3.85
3.49
3.37
3.58
4.03
4.52
4.84
4.9
4.73
4.45
4.17
3.96
3.78
3.55
3.16
2.51
1.63
0.61
-0.39
-1.24
-1.96
-2.61
-3.33
-4.15
-4.97
-5.6
-5.84
-5.7
-5.37
-5.18
-5.46
-6.36
-7.79
-9.41
-10.81
-11.63
-11.64
-10.78
-9.18
-7.11
-4.85
-2.66
-0.74
0.82
2.02
2.91
3.58
4.14
4.66
5.14
5.54
5.74
5.73
5.52
5.19
4.81
4.43
4.08
3.83
3.76
3.94
4.35
4.84
5.14
5.01
4.4
3.39
2.27
1.28
0.62
0.25
0.05
-0.18
-0.6
-1.32
-2.35
-3.61
-4.95
-6.19
-7.21
-7.92
-8.34
-8.57
-8.74
-8.97
-9.36
-9.98
-10.72
-11.35
-11.53
-10.97
-9.52
-7.32
-4.76
-2.28
-0.25
1.22
2.19
2.84
3.32
3.69
3.95
4.1
4.19
4.32
4.55
4.9
5.27
5.52
5.56
5.35
4.96
4.52
4.15
3.9
3.71
3.51
3.16
2.6
1.79
0.8
-0.22
-1.09
-1.62
-1.76
-1.59
-1.36
-1.31
-1.56
-2.05
-2.61
-3.04
-3.29
-3.45
-3.74
-4.33
-5.3
-6.67
-8.3
-10.05
-11.64
-12.7
-12.88
-11.98
-10.05
-7.5
-4.81
-2.46
-0.64
0.71
1.75
2.63
3.35
3.83
3.96
3.78
3.39
2.94
2.6
2.41
2.39
2.53
2.78
3.12
3.48
3.8
4.03
4.14
4.12
4.02
3.87
3.68
3.49
3.27
3.0
2.63
2.14
1.5
0.68
-0.34
-1.49
-2.71
-3.85
-4.74
-5.31
-5.6
-5.77
-6.02
-6.45
-7.12
-7.96
-8.88
-9.75
-10.42
-10.66
-10.25
-9.02
-7.02
-4.51
-1.95
0.23
1.78
2.73
3.33
3.8
4.29
4.81
5.25
5.54
5.68
5.72
5.71
5.7
5.66
5.59
5.54
5.54
5.66
5.88
6.1
6.13
5.83
5.09
3.97
2.64
1.33
0.23
-0.57
-1.06
-1.34
-1.56
-1.89
-2.4
-3.09
-3.9
-4.71
-5.46
-6.15
-6.85
-7.69
-8.69
-9.79
-10.81
-11.52
-11.66
-11.09
-9.82
-8.0
-5.87
-3.69
-1.67
0.05
1.42
2.45
3.18
3.64
3.87
3.95
4.01
4.18
4.57
5.21
6.0
6.77
7.34
7.59
7.46
7.02
6.39
5.72
5.08
4.49
3.91
3.25
2.47
1.66
0.91
0.36
0.01
-0.22
-0.54
-1.1
-1.94
-2.96
-3.92
-4.63
-4.97
-5.03
-5.0
-5.11
-5.55
-6.39
-7.6
-8.95
-10.18
-10.97
-11.04
-10.23
-8.56
-6.25
-3.7
-1.35
0.49
1.73
2.56
3.22
3.95
4.75
5.44
5.77
5.59
5.06
4.49
4.27
4.59
5.36
6.23
6.79
6.83
6.37
5.7
5.15
4.9
4.92
4.91
4.58
3.78
2.6
1.33
0.29
-0.36
-0.71
-0.99
-1.41
-2.03
-2.69
-3.19
-3.39
-3.36
-3.33
-3.6
-4.34
-5.54
-7.05
-8.65
-10.14
-11.38
-12.22
-12.5
-12.04
-10.78
-8.75
-6.21
-3.52
-1.07
0.88
2.27
3.2
3.85
4.39
4.85
5.22
5.41
5.41
5.29
5.23
5.36
5.74
6.27
6.79
7.09
7.05
6.66
6.02
5.24
4.48
3.79
3.17
2.56
1.88
1.15
0.44
-0.15
-0.51
-0.67
-0.77
-1.0
-1.49
-2.24
-3.16
-4.14
-5.13
-6.18
-7.33
-8.59
-9.77
-10.61
-10.82
-10.2
-8.72
-6.56
-4.07
-1.67
0.3
1.69
2.55
3.06
3.42
3.7
3.89
3.93
3.82
3.65
3.52
3.53
3.67
3.88
4.12
4.4
4.75
5.15
5.5
5.63
5.44
4.93
4.2
3.41
2.72
2.16
1.67
1.16
0.57
-0.12
-0.87
-1.66
-2.42
-3.14
-3.81
-4.48
-5.21
-6.07
-7.11
-8.37
-9.82
-11.33
-12.68
-13.55
-13.64
-12.72
-10.84
-8.24
-5.31
-2.43
0.17
2.4
4.27
5.76
6.82
7.41
7.57
7.39
7.09
6.8
6.6
6.47
6.33
6.2
6.1
6.17
6.43
6.85
7.31
7.62
7.61
7.23
6.51
5.58
4.59
3.66
2.85
2.13
1.47
0.83
0.19
-0.45
-1.09
-1.75
-2.45
-3.2
-3.96
-4.69
-5.37
-6.03
-6.76
-7.7
-8.96
-10.53
-12.23
-13.74
-14.65
-14.61
-13.45
-11.28
-8.46
-5.46
-2.74
-0.58
0.95
1.96
2.65
3.21
3.77
4.39
4.97
5.44
5.68
5.7
5.58
5.5
5.6
5.92
6.37
6.74
6.88
6.7
6.29
5.83
5.45
5.19
4.93
4.51
3.75
2.65
1.35
0.09
-0.86
-1.42
-1.64
-1.74
-1.96
-2.45
-3.24
-4.26
-5.43
-6.72
-8.13
-9.64
-11.1
-12.22
-12.69
-12.28
-11.01
-9.07
-6.81
-4.53
-2.43
-0.56
1.12
2.64
3.96
5.03
5.78
6.21
6.33
6.22
5.94
5.55
5.12
4.72
4.42
4.32
4.46
4.85
5.37
5.86
6.16
6.16
5.8
5.14
4.27
3.31
2.33
1.35
0.45
-0.33
-0.97
-1.46
-1.9
-2.39
-3.02
-3.8
-4.7
-5.63
-6.55
-7.52
-8.61
-9.88
-11.22
-12.4
-13.02
-12.78
-11.55
-9.47
-6.9
-4.23
-1.81
0.23
1.88
3.23
4.34
5.19
5.76
6.01
5.97
5.77
5.57
5.48
5.58
5.8
6.04
6.14
6.08
5.89
5.73
5.7
5.82
5.95
5.91
5.55
4.88
4.07
3.33
2.84
2.61
2.5
2.31
1.85
1.06
-0.0
-1.15
-2.26
-3.2
-3.98
-4.67
-5.37
-6.2
-7.25
-8.6
-10.26
-12.13
-13.95
-15.33
-15.86
-15.23
-13.43
-10.72
-7.57
-4.47
-1.78
0.36
2.01
3.29
4.34
5.22
5.93
6.47
6.85
7.14
7.4
7.72
8.09
8.45
8.72
8.83
8.78
8.63
8.43
8.23
7.98
7.65
7.15
6.45
5.55
4.52
3.43
2.35
1.36
0.47
-0.36
-1.2
-2.15
-3.17
-4.18
-5.04
-5.68
-6.16
-6.68
-7.48
-8.69
-10.34
-12.22
-14.04
-15.45
-16.12
-15.83
-14.51
-12.32
-9.58
-6.73
-4.16
-2.11
-0.57
0.65
1.76
2.89
4.02
5.04
5.82
6.25
6.37
6.28
6.14
6.11
6.28
6.62
7.02
7.32
7.47
7.52
7.57
7.71
7.87
7.88
7.54
6.8
5.76
4.62
3.54
2.55
1.58
0.54
-0.56
-1.62
-2.58
-3.47
-4.53
-5.97
-7.96
-10.39
-12.95
-15.15
-16.52
-16.68
-15.51
-13.16
-10.02
-6.63
-3.51
-1.04
0.71
1.85
2.65
3.35
4.09
4.83
5.48
5.89
6.0
5.86
5.57
5.27
5.04
4.89
4.8
4.72
4.71
4.82
5.04
5.26
5.26
4.79
3.7
2.07
0.13
-1.79
-3.45
-4.8
-5.9
-6.85
-7.7
-8.44
-9.04
-9.56
-10.18
-11.17
-12.76
-15.05
-17.96
-21.31
-24.81
-28.15
-31.04
-33.16
-34.27
-34.19
-32.93
-30.67
-27.71
-24.4
-21.01
-17.69
-14.46
-11.26
-8.05
-4.79
-1.48
1.89
5.32
8.89
12.67
16.72
21.03
25.43
29.58
33.1
35.69
37.23
37.96
38.24
38.5
38.98
39.67
40.33
40.67
40.45
39.54
37.96
35.77
33.06
29.94
26.47
22.76
18.96
15.21
11.7
8.58
5.96
3.81
2.0
0.26
-1.67
-4.0
-6.76
-9.75
-12.59
-14.77
-15.87
-15.56
-13.81
-10.82
-7.04
-3.01
0.74
3.8
5.91
7.05
7.32
6.93
6.17
5.28
4.45
3.8
3.36
3.14
3.13
3.33
3.69
4.09
4.39
4.43
4.14
3.58
2.88
2.21
1.67
1.27
0.98
0.71
0.39
0.02
-0.42
-0.94
-1.59
-2.41
-3.38
-4.42
-5.4
-6.19
-6.75
-7.16
-7.61
-8.24
-9.15
-10.38
-11.87
-13.56
-15.32
-16.86
-17.79
-17.68
-16.25
-13.6
-10.22
-6.75
-3.79
-1.61
-0.06
1.14
2.28
3.43
4.44
5.09
5.25
4.99
4.57
4.29
4.37
4.87
5.67
6.5
7.17
7.55
7.72
7.79
7.84
7.85
7.66
7.17
6.31
5.18
3.93
2.72
1.62
0.66
-0.14
-0.77
-1.25
-1.64
-2.08
-2.68
-3.5
-4.52
-5.71
-7.11
-8.79
-10.76
-12.82
-14.58
-15.54
-15.31
-13.82
-11.32
-8.26
-5.11
-2.21
0.28
2.35
4.06
5.52
6.78
7.84
8.65
9.07
9.01
8.53
7.82
7.2
6.95
7.15
7.68
8.31
8.8
9.06
9.09
8.98
8.74
8.33
7.72
6.9
5.97
5.06
4.27
3.56
2.8
1.86
0.7
-0.59
-1.82
-2.78
-3.39
-3.64
-3.7
-3.77
-4.03
-4.66
-5.74
-7.31
-9.3
-11.49
-13.53
-15.01
-15.54
-14.97
-13.38
-11.08
-8.52
-6.07
-3.98
-2.27
-0.83
0.52
1.95
3.46
4.94
6.18
6.99
7.29
7.17
6.85
6.61
6.62
6.93
7.39
7.85
8.17
8.31
8.28
8.11
7.79
7.26
6.52
5.62
4.69
3.89
3.31
2.93
2.67
2.37
1.92
1.23
0.31
-0.78
-1.93
-3.01
-3.95
-4.7
-5.36
-6.05
-6.96
-8.25
-9.94
-11.89
-13.75
-15.0
-15.22
-14.19
-12.02
-9.13
-6.05
-3.25
-0.94
0.88
2.35
3.6
4.68
5.52
6.05
6.21
6.05
5.69
5.25
4.82
4.48
4.22
4.05
3.98
4.05
4.34
4.86
5.5
6.09
6.41
6.32
5.82
5.03
4.16
3.34
2.62
1.95
1.21
0.36
-0.56
-1.51
-2.37
-3.1
-3.71
-4.27
-4.89
-5.66
-6.66
-7.94
-9.45
-11.05
-12.48
-13.43
-13.59
-12.77
-11.0
-8.5
-5.67
-2.88
-0.44
1.55
3.11
4.37
5.43
6.37
7.17
7.78
8.11
8.11
7.77
7.2
6.54
6.0
5.71
5.72
5.97
6.36
6.81
7.28
7.74
8.15
8.39
8.33
7.85
6.91
5.66
4.33
3.16
2.29
1.69
1.23
0.73
0.05
-0.82
-1.82
-2.8
-3.72
-4.55
-5.35
-6.2
-7.15
-8.27
-9.6
-11.17
-12.93
-14.69
-16.11
-16.82
-16.54
-15.19
-12.95
-10.2
-7.39
-4.86
-2.81
-1.29
-0.23
0.43
0.76
0.84
0.72
0.51
0.33
0.26
0.33
0.48
0.62
0.62
0.42
0.07
-0.3
-0.5
-0.41
-0.02
0.53
1.04
1.34
1.36
1.19
0.94
0.73
0.59
0.49
0.37
0.21
0.04
-0.03
0.09
0.44
1.02
1.71
2.39
2.91
3.13
2.98
2.45
1.62
0.7
0.06
0.05
0.99
2.91
5.56
8.49
11.14
13.13
14.3
14.77
14.75
14.45
13.97
13.29
12.38
11.25
10.02
8.84
7.9
7.28
6.96
6.82
6.63
6.22
5.49
4.47
3.34
2.29
1.44
0.81
0.29
-0.3
-1.03
-1.91
-2.86
-3.76
-4.53
-5.19
-5.75
-6.25
-6.72
-7.15
-7.55
-7.94
-8.34
-8.77
-9.24
-9.71
-10.19
-10.76
-11.5
-12.46
-13.56
-14.56
-15.09
-14.79
-13.51
-11.34
-8.62
-5.79
-3.2
-1.08
0.58
1.82
2.75
3.38
3.74
3.82
3.66
3.32
2.9
2.56
2.44
2.65
3.21
4.03
4.85
5.44
5.59
5.29
4.65
3.89
3.21
2.71
2.41
2.22
2.02
1.74
1.34
0.86
0.35
-0.19
-0.84
-1.72
-2.91
-4.35
-5.79
-6.9
-7.49
-7.57
-7.35
-7.22
-7.44
-8.12
-9.22
-10.58
-11.97
-13.06
-13.46
-12.86
-11.08
-8.28
-4.95
-1.71
0.91
2.68
3.7
4.25
4.63
4.99
5.32
5.53
5.5
5.2
4.74
4.23
3.82
3.54
3.33
3.05
2.61
2.03
1.45
1.02
0.78
0.6
0.23
-0.5
-1.54
-2.64
-3.51
-4.0
-4.18
-4.27
-4.41
-4.54
-4.41
-3.74
-2.48
-0.85
0.76
1.99
2.73
3.1
3.35
3.61
3.84
3.81
3.25
2.1
0.59
-0.85
-1.71
-1.7
-0.79
0.72
2.4
3.88
4.92
5.48
5.63
5.45
5.03
4.45
3.81
3.2
2.73
2.44
2.31
2.28
2.32
2.41
2.55
2.73
2.89
3.0
2.99
2.84
2.56
2.18
1.72
1.22
0.74
0.31
-0.1
-0.54
-1.09
-1.79
-2.62
-3.49
-4.26
-4.84
-5.2
-5.39
-5.5
-5.63
-5.88
-6.4
-7.33
-8.77
-10.71
-12.9
-14.89
-16.11
-16.12
-14.72
-12.09
-8.71
-5.17
-2.02
0.43
2.1
3.1
3.64
3.95
4.19
4.44
4.73
5.04
5.34
5.61
5.84
5.97
5.94
5.68
5.2
4.57
4.0
3.64
3.53
3.6
3.65
3.51
3.11
2.55
1.97
1.48
1.08
0.74
0.37
-0.02
-0.44
-0.83
-1.2
-1.6
-2.1
-2.74
-3.55
-4.54
-5.72
-7.13
-8.75
-10.47
-12.02
-13.1
-13.37
-12.62
-10.9
-8.45
-5.67
-3.0
-0.76
0.92
2.06
2.78
3.25
3.57
3.85
4.12
4.43
4.77
5.11
5.41
5.65
5.82
5.91
5.88
5.68
5.27
4.73
4.19
3.89
3.94
4.35
4.9
5.32
5.4
5.07
4.43
3.66
2.91
2.27
1.74
1.23
0.71
0.13
-0.53
-1.3
-2.19
-3.18
-4.24
-5.36
-6.53
-7.81
-9.26
-10.9
-12.63
-14.27
-15.49
-16.01
-15.58
-14.13
-11.79
-8.84
-5.67
-2.64
-0.07
1.92
3.28
4.14
4.67
5.09
5.48
5.88
6.18
6.28
6.15
5.85
5.55
5.4
5.43
5.6
5.75
5.78
5.66
5.44
5.18
4.89
4.57
4.21
3.81
3.4
2.99
2.55
2.01
1.3
0.41
-0.62
-1.76
-2.92
-4.04
-5.04
-5.87
-6.56
-7.27
-8.17
-9.45
-11.03
-12.59
-13.65
-13.77
-12.8
-10.92
-8.51
-5.99
-3.62
-1.51
0.32
1.87
3.1
3.96
4.51
4.82
4.99
5.08
5.08
5.0
4.91
4.9
5.06
5.41
5.87
6.38
6.83
7.21
7.48
7.61
7.56
7.29
6.83
6.27
5.7
5.17
4.62
3.92
2.98
1.76
0.35
-1.13
-2.58
-3.92
-5.14
-6.22
-7.16
-7.97
-8.74
-9.6
-10.68
-11.98
-13.35
-14.46
-14.92
-14.45
-12.96
-10.65
-7.9
-5.13
-2.68
-0.72
0.74
1.8
2.55
3.07
3.4
3.54
3.58
3.64
3.88
4.39
5.16
6.06
6.86
7.41
7.63
7.62
7.52
7.47
7.5
7.54
7.43
7.07
6.46
5.73
5.04
4.55
4.26
4.06
3.78
3.27
2.5
1.53
0.46
-0.62
-1.69
-2.8
-3.97
-5.21
-6.51
-7.89
-9.47
-11.36
-13.61
-16.09
-18.41
-20.03
-20.47
-19.49
-17.13
-13.76
-9.95
-6.24
-3.09
-0.68
1.0
2.14
2.98
3.74
4.52
5.28
5.93
6.38
6.62
6.68
6.68
6.75
6.96
7.35
7.93
8.63
9.33
9.95
10.37
10.57
10.57
10.4
10.02
9.43
8.59
7.54
6.4
5.35
4.55
4.04
3.75
3.5
3.07
2.28
1.1
-0.36
-1.9
-3.28
-4.39
-5.26
-6.03
-6.89
-7.98
-9.39
-11.15
-13.22
-15.46
-17.54
-19.0
-19.32
-18.21
-15.74
-12.41
-8.94
-5.95
-3.73
-2.16
-0.91
0.33
1.65
2.96
4.1
4.96
5.57
6.03
6.48
7.02
7.65
8.31
8.9
9.32
9.51
9.51
9.45
9.47
9.64
9.89
10.04
9.84
9.18
8.07
6.68
5.25
3.96
2.87
1.93
1.04
0.15
-0.75
-1.59
-2.28
-2.81
-3.31
-4.0
-5.14
-6.87
-9.13
-11.61
-13.85
-15.4
-15.97
-15.49
-14.08
-11.98
-9.45
-6.71
-3.93
-1.31
1.01
2.9
4.33
5.37
6.12
6.73
7.24
7.66
7.95
8.06
7.99
7.81
7.6
7.46
7.46
7.64
8.02
8.56
9.16
9.68
9.91
9.73
9.08
8.08
6.99
6.05
5.45
5.21
5.16
5.05
4.63
3.78
2.49
0.9
-0.81
-2.47
-4.01
-5.44
-6.86
-8.37
-10.07
-11.95
-13.87
-15.61
-16.84
-17.3
-16.76
-15.18
-12.68
-9.54
-6.18
-3.0
-0.29
1.86
3.55
5.01
6.4
7.74
8.94
9.86
10.45
10.75
10.92
11.06
11.22
11.34
11.42
11.45
11.51
11.66
11.86
11.99
11.91
11.55
10.9
10.1
9.23
8.4
7.6
6.8
5.99
5.14
4.29
3.45
2.59
1.65
0.56
-0.7
-2.08
-3.45
-4.65
-5.56
-6.18
-6.67
-7.27
-8.28
-9.86
-11.98
-14.37
-16.62
-18.22
-18.72
-17.87
-15.66
-12.42
-8.67
-5.06
-2.02
0.24
1.85
3.07
4.2
5.41
6.69
7.94
9.0
9.72
10.03
9.93
9.55
9.06
8.69
8.57
8.75
9.18
9.73
10.29
10.74
10.93
10.77
10.21
9.37
8.47
7.75
7.35
7.27
7.27
7.13
6.71
6.04
5.2
4.27
3.24
2.08
0.71
-0.82
-2.37
-3.76
-4.86
-5.6
-6.08
-6.47
-7.05
-8.1
-9.77
-12.02
-14.57
-16.95
-18.65
-19.27
-18.61
-16.75
-13.95
-10.59
-7.11
-3.88
-1.21
0.79
2.13
3.02
3.69
4.37
5.22
6.27
7.42
8.51
9.3
9.62
9.44
8.89
8.28
7.97
8.18
8.95
10.09
11.27
12.13
12.45
12.13
11.23
9.95
8.49
7.02
5.71
4.66
3.94
3.55
3.41
3.38
3.24
2.76
1.78
0.32
-1.38
-3.01
-4.27
-5.07
-5.55
-6.04
-6.88
-8.26
-10.15
-12.3
-14.35
-15.94
-16.79
-16.74
-15.76
-13.93
-11.39
-8.42
-5.36
-2.53
-0.21
1.43
2.38
2.83
3.06
3.32
3.81
4.55
5.43
6.36
7.24
8.1
8.93
9.68
10.23
10.44
10.24
9.76
9.23
8.88
8.84
9.02
9.17
9.08
8.63
7.86
6.93
5.98
5.13
4.37
3.73
3.21
2.82
2.57
2.39
2.15
1.75
1.07
0.12
-1.06
-2.35
-3.64
-4.83
-5.87
-6.76
-7.59
-8.52
-9.71
-11.22
-13.04
-14.97
-16.7
-17.88
-18.15
-17.32
-15.38
-12.53
-9.17
-5.72
-2.54
0.19
2.44
4.28
5.78
6.9
7.6
7.87
7.76
7.48
7.25
7.26
7.52
7.88
8.11
7.97
7.43
6.61
5.82
5.37
5.4
5.86
6.45
6.84
6.76
6.15
5.12
3.9
2.73
1.77
1.05
0.52
0.1
-0.36
-0.94
-1.73
-2.7
-3.74
-4.76
-5.72
-6.67
-7.72
-8.98
-10.49
-12.19
-13.95
-15.54
-16.74
-17.28
-16.91
-15.55
-13.27
-10.34
-7.2
-4.26
-1.82
0.03
1.4
2.47
3.42
4.33
5.22
6.03
6.64
7.03
7.19
7.21
7.19
7.25
7.39
7.55
7.61
7.51
7.24
6.81
6.31
5.72
5.03
4.2
3.27
2.35
1.54
0.93
0.5
0.14
-0.28
-0.91
-1.78
-2.86
-4.02
-5.06
-5.87
-6.45
-6.97
-7.75
-9.06
-10.97
-13.25
-15.43
-16.97
-17.42
-16.59
-14.61
-11.8
-8.58
-5.32
-2.29
0.33
2.48
4.13
5.31
6.1
6.59
6.88
7.03
7.08
7.01
6.79
6.39
5.83
5.21
4.67
4.34
4.27
4.46
4.81
5.22
5.56
5.74
5.65
5.25
4.6
3.83
3.08
2.46
1.96
1.46
0.85
0.02
-0.99
-2.11
-3.22
-4.22
-5.08
-5.84
-6.56
-7.37
-8.39
-9.73
-11.37
-13.13
-14.67
-15.57
-15.48
-14.26
-11.98
-8.99
-5.77
-2.75
-0.24
1.65
3.03
4.08
4.96
5.77
6.47
7.0
7.29
7.32
7.15
6.84
6.47
6.08
5.7
5.38
5.14
5.04
5.1
5.34
5.71
6.09
6.32
6.24
5.74
4.86
3.74
2.64
1.77
1.23
0.96
0.78
0.44
-0.2
-1.18
-2.39
-3.67
-4.84
-5.81
-6.61
-7.31
-8.05
-8.93
-10.0
-11.25
-12.59
-13.86
-14.86
-15.34
-15.07
-13.89
-11.85
-9.2
-6.32
-3.59
-1.28
0.5
1.84
2.88
3.79
4.59
5.27
5.74
5.96
5.91
5.66
5.36
5.15
5.15
5.4
5.89
6.51
7.16
7.76
8.25
8.58
8.62
8.3
7.55
6.42
5.08
3.77
2.71
1.99
1.55
1.16
0.58
-0.32
-1.49
-2.75
-3.86
-4.67
-5.22
-5.7
-6.38
-7.48
-8.99
-10.74
-12.4
-13.67
-14.3
-14.17
-13.29
-11.73
-9.62
-7.17
-4.66
-2.33
-0.4
1.08
2.18
3.06
3.88
4.72
5.52
6.16
6.54
6.66
6.61
6.54
6.54
6.61
6.64
6.53
6.28
5.96
5.74
5.7
5.81
5.87
5.72
5.22
4.43
3.5
2.61
1.87
1.29
0.84
0.49
0.2
-0.09
-0.47
-1.05
-1.85
-2.83
-3.81
-4.68
-5.41
-6.1
-6.98
-8.21
-9.86
-11.77
-13.62
-14.96
-15.37
-14.63
-12.76
-10.09
-7.1
-4.27
-1.92
-0.11
1.29
2.48
3.57
4.57
5.43
6.07
6.55
6.96
7.37
7.8
8.23
8.57
8.76
8.78
8.67
8.53
8.43
8.4
8.37
8.22
7.8
7.09
6.15
5.14
4.2
3.42
2.8
2.33
1.96
1.69
1.57
1.59
1.69
1.75
1.55
0.95
-0.1
-1.54
-3.15
-4.65
-5.84
-6.65
-7.18
-7.65
-8.32
-9.4
-10.95
-12.88
-14.98
-16.93
-18.36
-18.86
-18.14
-16.14
-13.08
-9.44
-5.82
-2.68
-0.27
1.48
2.82
4.03
5.32
6.67
7.93
8.88
9.31
9.14
8.5
7.59
6.69
6.05
5.76
5.83
6.16
6.65
7.21
7.76
8.16
8.3
8.09
7.51
6.61
5.54
4.44
3.45
2.68
2.16
1.88
1.71
1.48
1.02
0.24
-0.81
-1.99
-3.08
-3.9
-4.4
-4.67
-4.92
-5.36
-6.2
-7.53
-9.27
-11.26
-13.23
-14.86
-15.89
-16.09
-15.34
-13.7
-11.34
-8.58
-5.79
-3.28
-1.22
0.4
1.72
2.88
4.0
5.11
6.13
6.95
7.44
7.57
7.38
7.05
6.79
6.79
7.1
7.62
8.17
8.55
8.69
8.67
8.62
8.66
8.73
8.69
8.35
7.62
6.55
5.33
4.18
3.25
2.6
2.19
1.89
1.53
0.95
0.06
-1.14
-2.53
-3.91
-5.09
-5.91
-6.34
-6.49
-6.55
-6.79
-7.47
-8.77
-10.72
-13.13
-15.6
-17.55
-18.42
-17.85
-15.81
-12.66
-8.97
-5.36
-2.33
-0.09
1.41
2.42
3.27
4.2
5.31
6.49
7.54
8.23
8.42
8.16
7.58
6.88
6.23
5.7
5.31
5.11
5.19
5.64
6.46
7.48
8.44
9.02
9.04
8.53
7.68
6.82
6.19
5.93
5.94
6.05
6.05
5.77
5.18
4.32
3.31
2.24
1.2
0.23
-0.68
-1.52
-2.34
-3.15
-4.0
-4.88
-5.83
-6.86
-8.06
-9.5
-11.22
-13.18
-15.24
-17.08
-18.37
-18.84
-18.33
-16.8
-14.38
-11.27
-7.81
-4.4
-1.47
0.69
1.98
2.64
3.1
3.74
4.78
6.06
7.23
7.93
7.97
7.47
6.71
6.05
5.64
5.52
5.58
5.76
6.04
6.44
6.97
7.53
7.96
8.05
7.65
6.74
5.41
3.92
2.54
1.56
1.12
1.14
1.4
1.56
1.37
0.8
-0.06
-0.99
-1.83
-2.51
-3.08
-3.64
-4.26
-4.96
-5.75
-6.64
-7.65
-8.84
-10.22
-11.71
-13.14
-14.17
-14.46
-13.73
-11.94
-9.35
-6.42
-3.65
-1.4
0.25
1.44
2.43
3.42
4.48
5.54
6.45
7.1
7.44
7.49
7.35
7.15
7.0
6.95
6.97
7.03
7.06
7.11
7.23
7.48
7.8
8.04
8.06
7.75
7.15
6.41
5.73
5.2
4.86
4.64
4.38
3.97
3.34
2.46
1.38
0.16
-1.13
-2.43
-3.73
-4.98
-6.1
-7.05
-7.8
-8.4
-9.03
-9.92
-11.23
-12.93
-14.78
-16.31
-17.02
-16.54
-14.8
-12.03
-8.75
-5.51
-2.8
-0.82
0.49
1.36
2.09
2.86
3.75
4.69
5.62
6.48
7.25
7.93
8.53
9.06
9.53
9.95
10.29
10.5
10.57
10.53
10.48
10.51
10.63
10.73
10.62
10.16
9.34
8.38
7.54
6.95
6.56
6.12
5.39
4.31
3.0
1.72
0.66
-0.12
-0.76
-1.47
-2.37
-3.44
-4.56
-5.58
-6.4
-7.05
-7.67
-8.48
-9.66
-11.3
-13.3
-15.42
-17.28
-18.5
-18.8
-18.07
-16.35
-13.82
-10.78
-7.53
-4.38
-1.59
0.7
2.42
3.67
4.61
5.46
6.37
7.37
8.38
9.19
9.56
9.39
8.75
7.84
6.95
6.32
6.03
6.07
6.33
6.7
7.11
7.49
7.7
7.64
7.22
6.51
5.64
4.81
4.14
3.65
3.22
2.72
2.05
1.12
-0.07
-1.52
-3.22
-5.07
-6.95
-8.66
-10.09
-11.21
-12.19
-13.25
-14.57
-16.16
-17.71
-18.76
-18.86
-17.75
-15.5
-12.5
-9.26
-6.24
-3.71
-1.72
-0.23
0.84
1.53
1.95
2.22
2.53
3.04
3.77
4.62
5.35
5.78
5.86
5.74
5.63
5.73
6.12
6.72
7.36
7.85
8.04
7.88
7.42
6.72
5.91
5.11
4.4
3.83
3.35
2.82
2.11
1.12
-0.16
-1.63
-3.11
-4.46
-5.58
-6.5
-7.3
-8.21
-9.43
-11.18
-13.54
-16.43
-19.53
-22.3
-24.18
-24.7
-23.68
-21.34
-18.18
-14.86
-11.94
-9.76
-8.26
-7.12
-5.9
-4.19
-1.8
1.17
4.43
7.64
10.55
13.12
15.39
17.5
19.47
21.33
23.04
24.6
26.08
27.49
28.82
29.97
30.76
30.97
30.45
29.13
27.04
24.31
21.12
17.75
14.45
11.47
8.97
6.92
5.21
3.65
2.07
0.4
-1.34
-3.0
-4.4
-5.38
-5.94
-6.21
-6.47
-7.0
-8.01
-9.53
-11.41
-13.33
-14.9
-15.8
-15.78
-14.78
-12.89
-10.34
-7.45
-4.59
-2.03
0.04
1.63
2.85
3.92
4.97
6.04
7.03
7.73
7.99
7.82
7.39
6.94
6.67
6.59
6.57
6.44
6.11
5.63
5.13
4.74
4.46
4.22
3.92
3.53
3.11
2.73
2.45
2.22
1.99
1.62
1.06
0.29
-0.7
-1.86
-3.11
-4.33
-5.43
-6.32
-6.98
-7.46
-7.86
-8.28
-8.83
-9.61
-10.68
-12.07
-13.75
-15.56
-17.21
-18.36
-18.63
-17.82
-15.96
-13.29
-10.22
-7.19
-4.5
-2.24
-0.35
1.28
2.68
3.78
4.49
4.77
4.7
4.45
4.16
3.94
3.82
3.82
3.97
4.3
4.81
5.44
6.07
6.54
6.72
6.57
6.12
5.44
4.64
3.82
3.1
2.52
2.09
1.81
1.61
1.39
1.03
0.4
-0.53
-1.73
-3.03
-4.24
-5.22
-6.03
-6.86
-7.97
-9.52
-11.5
-13.71
-15.78
-17.3
-17.89
-17.29
-15.46
-12.58
-9.04
-5.36
-2.03
0.67
2.67
4.08
5.08
5.79
6.21
6.32
6.1
5.62
5.04
4.55
4.3
4.33
4.59
4.93
5.19
5.28
5.24
5.2
5.29
5.55
5.9
6.11
5.95
5.3
4.23
2.98
1.85
1.09
0.74
0.59
0.32
-0.36
-1.56
-3.17
-4.91
-6.52
-7.85
-8.97
-10.07
-11.39
-13.06
-15.06
-17.26
-19.51
-21.75
-23.91
-25.98
-27.82
-29.22
-29.92
-29.7
-28.52
-26.55
-24.13
-21.65
-19.41
-17.62
-16.37
-15.67
-15.43
-15.41
-15.15
-14.07
-11.65
-7.68
-2.42
3.4
8.84
13.17
16.08
17.79
18.85
19.8
21.0
22.5
24.18
25.87
27.48
29.01
30.52
32.04
33.52
34.81
35.73
36.1
35.86
35.02
33.68
31.94
29.87
27.51
24.86
21.88
18.55
14.84
10.8
6.52
2.22
-1.84
-5.37
-8.25
-10.53
-12.4
-14.01
-15.41
-16.44
-16.85
-16.41
-15.1
-13.11
-10.72
-8.27
-5.93
-3.79
-1.85
-0.1
1.44
2.76
3.82
4.64
5.24
5.64
5.87
5.97
6.02
6.19
6.62
7.38
8.41
9.48
10.29
10.64
10.5
10.05
9.6
9.37
9.39
9.47
9.29
8.61
7.36
5.72
3.95
2.31
0.95
-0.16
-1.18
-2.28
-3.59
-5.14
-6.81
-8.47
-9.99
-11.31
-12.46
-13.52
-14.61
-15.86
-17.31
-18.88
-20.4
-21.55
-21.96
-21.38
-19.7
-17.09
-13.88
-10.53
-7.41
-4.73
-2.57
-0.88
0.41
1.36
2.0
2.33
2.41
2.31
2.15
2.07
2.15
2.39
2.71
2.96
3.08
3.15
3.33
3.8
4.6
5.6
6.51
7.02
6.92
6.23
5.12
3.87
2.74
1.9
1.38
1.13
0.96
0.69
0.19
-0.63
-1.71
-2.92
-4.12
-5.18
-6.05
-6.79
-7.5
-8.34
-9.5
-11.09
-13.1
-15.35
-17.44
-18.85
-19.13
-18.04
-15.75
-12.77
-9.76
-7.24
-5.41
-4.08
-2.88
-1.53
0.0
1.55
2.79
3.59
3.98
4.18
4.41
4.78
5.23
5.66
6.02
6.3
6.61
7.03
7.57
8.19
8.78
9.21
9.43
9.45
9.32
9.14
9.02
9.01
9.09
9.19
9.2
9.06
8.73
8.23
7.64
7.06
6.5
5.91
5.2
4.22
2.85
1.08
-1.07
-3.49
-6.16
-9.14
-12.47
-16.12
-19.89
-23.38
-26.14
-27.84
-28.4
-28.0
-26.98
-25.67
-24.35
-23.12
-22.06
-21.2
-20.58
-20.16
-19.75
-18.9
-16.99
-13.44
-7.93
-0.69
7.5
15.43
21.93
26.25
28.34
28.77
28.43
28.17
28.43
29.21
30.25
31.19
31.8
31.94
31.57
30.67
29.19
27.11
24.52
21.59
18.55
15.6
12.88
10.43
8.26
6.38
4.76
3.34
1.96
0.37
-1.65
-4.2
-7.16
-10.18
-12.78
-14.49
-15.04
-14.34
-12.53
-9.9
-6.86
-3.87
-1.29
0.62
1.83
2.53
3.01
3.47
3.99
4.48
4.82
5.01
5.1
5.26
5.57
6.01
6.46
6.8
6.95
7.02
7.17
7.58
8.27
9.09
9.73
9.85
9.23
7.89
6.11
4.36
3.02
2.31
2.18
2.38
2.6
2.57
2.2
1.46
0.4
-0.95
-2.55
-4.29
-6.03
-7.57
-8.78
-9.67
-10.44
-11.38
-12.78
-14.72
-17.0
-19.16
-20.65
-21.0
-20.0
-17.81
-14.83
-11.61
-8.58
-5.96
-3.79
-1.92
-0.2
1.48
3.09
4.54
5.69
6.47
6.88
7.0
6.97
6.88
6.79
6.7
6.56
6.36
6.07
5.71
5.33
4.99
4.74
4.62
4.57
4.5
4.29
3.85
3.23
2.55
1.95
1.56
1.35
1.24
1.08
0.72
0.12
-0.73
-1.78
-2.95
-4.14
-5.22
-6.09
-6.69
-7.07
-7.42
-7.98
-8.95
-10.42
-12.2
-13.97
-15.27
-15.71
-15.07
-13.37
-10.88
-8.01
-5.19
-2.73
-0.8
0.64
1.71
