0
-36.29
-37.49
-36.13
-31.91
-25.13
-16.58
-7.35
1.47
9.03
14.86
18.85
21.12
21.87
21.32
19.73
17.42
14.86
12.57
11.03
10.47
10.84
11.84
13.08
14.33
15.54
16.85
18.36
19.97
21.36
22.07
21.77
20.37
18.11
15.41
12.68
10.2
8.02
6.01
3.94
1.65
-0.95
-3.71
-6.42
-8.85
-10.86
-12.51
-14.02
-15.67
-17.7
-20.25
-23.33
-26.8
-30.33
-33.38
-35.22
-35.13
-32.64
-27.73
-20.95
-13.2
-5.45
1.59
7.52
12.21
15.59
17.53
17.92
16.82
14.59
11.85
9.29
7.48
6.67
6.84
7.77
9.23
10.97
12.82
14.57
16.04
16.99
17.28
16.85
15.76
14.23
12.49
10.79
9.27
7.9
6.49
4.78
2.57
-0.16
-3.22
-6.31
-9.1
-11.42
-13.27
-14.83
-16.36
-18.12
-20.35
-23.09
-26.15
-29.05
-31.06
-31.37
-29.43
-25.12
-18.86
-11.45
-3.79
3.32
9.38
14.15
17.51
19.36
19.66
18.48
16.14
13.21
10.4
8.32
7.32
7.42
8.3
9.56
10.84
11.95
12.86
13.58
14.08
14.26
13.94
13.03
11.58
9.79
7.91
6.13
4.47
2.78
0.83
-1.5
-4.21
-7.1
-9.88
-12.27
-14.13
-15.51
-16.61
-17.79
-19.43
-21.85
-25.12
-28.97
-32.72
-35.42
-36.11
-34.14
-29.44
-22.55
-14.39
-6.03
1.66
8.12
13.11
16.52
18.39
18.78
17.88
16.02
13.67
11.38
9.61
8.7
8.7
9.49
10.76
12.2
13.62
14.92
16.09
17.06
17.67
17.68
16.94
15.46
13.51
11.47
9.67
8.2
6.94
5.67
4.15
2.33
0.22
-2.12
-4.58
-7.08
-9.46
-11.5
-13.09
-14.32
-15.53
-17.21
-19.85
-23.54
-27.9
-32.09
-34.98
-35.57
-33.29
-28.22
-21.1
-13.02
-5.09
1.88
7.53
11.9
15.14
17.35
18.5
18.51
17.47
15.71
13.74
12.13
11.27
11.32
12.18
13.62
15.4
17.31
19.19
20.9
22.31
23.26
23.57
23.05
21.58
19.18
16.12
12.84
9.89
7.64
6.21
5.31
4.47
3.18
1.14
-1.59
-4.7
-7.72
-10.26
-12.14
-13.45
-14.46
-15.57
-17.1
-19.25
-22.07
-25.41
-28.95
-32.11
-34.15
-34.28
-31.84
-26.66
-19.14
-10.26
-1.3
6.58
12.66
16.71
18.95
19.72
19.32
17.95
15.86
13.42
11.12
9.47
8.82
9.21
10.45
12.12
13.86
15.39
16.62
17.52
18.12
18.38
18.24
17.66
16.61
15.19
13.56
11.9
10.31
8.77
7.17
5.37
3.24
0.83
-1.7
-4.08
-6.06
-7.5
-8.42
-9.09
-9.92
-11.32
-13.62
-16.87
-20.85
-25.01
-28.56
-30.65
-30.56
-27.96
-22.98
-16.27
-8.8
-1.56
4.73
9.71
13.34
15.78
17.12
17.43
16.74
15.18
13.07
10.83
8.92
7.72
7.41
7.99
9.31
11.09
13.02
14.8
16.22
17.15
17.52
17.24
16.22
14.42
11.93
9.03
6.13
3.59
1.6
0.05
-1.34
-2.88
-4.76
-7.0
-9.45
-11.9
-14.15
-16.07
-17.64
-18.99
-20.4
-22.24
-24.76
-27.9
-31.19
-33.81
-34.87
-33.69
-30.04
-24.22
-16.92
-9.01
-1.35
5.39
10.75
14.54
16.76
17.51
16.98
15.44
13.28
11.04
9.3
8.54
8.99
10.49
12.58
14.66
16.3
17.26
17.61
17.49
17.01
16.2
15.02
13.51
11.81
10.1
8.52
7.06
5.61
4.0
2.16
0.08
-2.1
-4.24
-6.21
-7.95
-9.44
-10.72
-11.84
-12.94
-14.23
-16.02
-18.55
-21.89
-25.8
-29.79
-33.1
-34.93
-34.63
-31.86
-26.72
-19.71
-11.64
-3.48
3.96
10.08
14.66
17.7
19.33
19.74
19.12
17.69
15.79
13.84
12.29
11.44
11.36
11.96
13.03
14.37
15.78
17.16
18.39
19.34
19.88
19.92
19.37
18.18
16.33
13.91
11.16
8.42
6.09
4.36
3.22
2.39
1.53
0.34
-1.26
-3.18
-5.27
-7.4
-9.5
-11.52
-13.4
-15.08
-16.57
-17.99
-19.65
-21.86
-24.79
-28.28
-31.83
-34.6
-35.74
-34.57
-30.89
-24.96
-17.52
-9.51
-1.84
4.78
9.96
13.54
15.55
16.1
15.38
13.74
11.65
9.69
8.34
7.91
8.41
9.61
11.17
12.75
14.17
15.38
16.42
17.29
17.95
18.26
18.04
17.17
15.61
13.48
11.05
8.65
6.56
4.9
3.56
2.27
0.68
-1.36
-3.83
-6.4
-8.73
-10.52
-11.7
-12.47
-13.14
-14.07
-15.52
-17.64
-20.43
-23.7
-27.08
-29.99
-31.7
-31.6
-29.35
-25.01
-19.06
-12.23
-5.3
1.07
6.41
10.45
13.08
14.36
14.48
13.69
12.3
10.58
8.77
7.1
5.82
5.23
5.48
6.57
8.25
10.16
11.94
13.37
14.35
14.85
14.84
14.26
13.11
11.47
9.6
7.77
6.22
4.95
3.8
2.5
0.82
-1.32
-3.88
-6.66
-9.41
-11.91
-13.98
-15.61
-16.97
-18.42
-20.39
-23.2
-26.86
-30.97
-34.83
-37.54
-38.31
-36.68
-32.61
-26.47
-18.98
-10.98
-3.29
3.39
8.64
12.29
14.34
14.92
14.25
12.62
10.4
8.06
6.1
4.94
4.75
5.49
6.88
8.58
10.28
11.81
13.08
14.1
14.85
15.32
15.41
15.03
14.11
12.62
10.68
8.51
6.41
4.61
3.16
1.91
0.6
-0.96
-2.85
-4.92
-6.97
-8.89
-10.66
-12.44
-14.37
-16.58
-19.17
-22.23
-25.79
-29.81
-34.02
-37.82
-40.39
-40.92
-38.91
-34.35
-27.74
-19.88
-11.62
-3.71
3.35
9.21
13.63
16.5
17.8
17.67
16.4
14.42
12.22
10.31
9.11
8.9
9.76
11.53
13.86
16.3
18.44
20.02
20.98
21.41
21.45
21.18
20.59
19.59
18.08
16.05
13.61
10.95
8.3
5.86
3.74
1.95
0.37
-1.18
-2.88
-4.84
-7.07
-9.45
-11.81
-14.0
-15.96
-17.79
-19.72
-22.07
-25.09
-28.85
-33.11
-37.23
-40.34
-41.53
-40.15
-36.02
-29.52
-21.44
-12.67
-4.07
3.73
10.3
15.38
18.81
20.56
20.74
19.68
17.82
15.72
13.88
12.67
12.26
12.65
13.65
15.03
16.53
17.99
19.32
20.49
21.46
22.11
22.28
21.83
20.69
18.92
16.69
14.28
11.92
9.79
7.98
6.44
5.03
3.56
1.83
-0.26
-2.72
-5.4
-8.08
-10.52
-12.59
-14.29
-15.75
-17.25
-19.11
-21.63
-24.95
-28.86
-32.82
-35.96
-37.3
-36.11
-32.17
-25.83
-17.92
-9.44
-1.33
5.8
11.56
15.8
18.42
19.41
18.9
17.23
14.89
12.46
10.43
9.1
8.54
8.67
9.35
10.46
11.87
13.48
15.17
16.78
18.15
19.09
19.44
19.1
18.08
16.5
14.57
12.58
10.7
8.94
7.14
5.11
2.74
0.09
-2.59
-5.04
-7.13
-8.93
-10.68
-12.6
-14.91
-17.67
-20.86
-24.34
-27.84
-30.9
-32.93
-33.27
-31.41
-27.21
-20.93
-13.29
-5.16
2.56
9.18
14.26
17.66
19.46
19.89
19.25
17.87
16.06
14.11
12.26
10.73
9.65
9.12
9.18
9.82
10.96
12.45
14.02
15.33
16.09
16.08
15.27
13.8
11.91
9.84
7.71
5.49
3.14
0.61
-2.07
-4.82
-7.58
-10.3
-12.95
-15.49
-17.89
-20.13
-22.32
-24.68
-27.5
-30.96
-34.93
-38.86
-41.79
-42.73
-40.91
-36.14
-28.91
-20.18
-11.07
-2.55
4.79
10.74
15.27
18.38
20.04
20.19
18.92
16.59
13.82
11.27
9.56
8.95
9.44
10.75
12.54
14.51
16.44
18.18
19.55
20.4
20.54
19.88
18.48
16.54
14.35
12.18
10.17
8.24
6.22
3.85
1.03
-2.19
-5.6
-8.91
-11.86
-14.37
-16.54
-18.62
-20.96
-23.84
-27.43
-31.69
-36.21
-40.31
-43.08
-43.64
-41.4
-36.23
-28.58
-19.36
-9.69
-0.57
7.26
13.43
17.84
20.53
21.61
21.24
19.76
17.65
15.54
14.01
13.45
13.94
15.26
17.07
18.99
20.74
22.16
23.17
23.74
23.88
23.57
22.79
21.51
19.72
17.5
15.0
12.38
9.78
7.19
4.55
1.75
-1.21
-4.2
-7.0
-9.46
-11.57
-13.48
-15.44
-17.73
-20.56
-24.03
-28.08
-32.34
-36.1
-38.39
-38.26
-35.11
-28.97
-20.56
-11.04
-1.61
6.84
13.83
19.19
22.85
24.77
24.96
23.64
21.28
18.55
16.12
14.44
13.7
13.82
14.62
15.87
17.43
19.16
20.9
22.49
23.74
24.47
24.53
23.81
22.26
19.99
17.22
14.24
11.38
8.81
6.57
4.53
2.49
0.32
-2.03
-4.47
-6.86
-9.09
-11.1
-13.01
-15.04
-17.48
-20.55
-24.28
-28.41
-32.33
-35.25
-36.33
-35.01
-31.08
-24.81
-16.84
-8.07
0.58
8.33
14.65
19.29
22.24
23.6
23.56
22.34
20.24
17.66
15.11
13.15
12.23
12.55
14.04
16.33
18.92
21.32
23.14
24.19
24.41
23.89
22.76
21.2
19.37
17.43
15.46
13.48
11.46
9.37
7.2
4.92
2.53
0.01
-2.69
-5.5
-8.31
-10.91
-13.14
-14.97
-16.63
-18.46
-20.82
-23.85
-27.31
-30.64
-33.04
-33.77
-32.32
-28.53
-22.67
-15.36
-7.41
0.36
7.26
12.84
16.89
19.29
20.07
19.38
17.53
15.01
12.45
10.44
9.38
9.41
10.38
12.02
14.02
16.04
17.8
19.02
19.51
19.26
18.4
17.2
15.91
14.65
13.4
11.99
10.26
8.14
5.66
2.97
0.25
-2.34
-4.64
-6.62
-8.3
-9.87
-11.55
-13.62
-16.27
-19.54
-23.27
-27.09
-30.42
-32.59
-32.95
-31.07
-26.85
-20.62
-13.1
-5.16
2.3
8.61
13.38
16.47
17.99
18.19
17.37
15.88
14.05
12.18
10.56
9.38
8.81
8.91
9.66
10.93
12.52
14.22
15.83
17.17
18.09
18.45
18.08
16.92
14.97
12.42
9.58
6.84
4.43
2.43
0.66
-1.18
-3.36
-5.98
-8.9
-11.85
-14.56
-16.93
-19.1
-21.34
-23.99
-27.17
-30.75
-34.22
-36.83
-37.76
-36.4
-32.55
-26.49
-18.95
-10.82
-2.91
4.21
10.24
15.0
18.34
20.13
20.31
19.06
16.84
14.23
11.86
10.2
9.51
9.78
10.87
12.48
14.28
15.93
17.21
18.02
18.36
18.29
17.76
16.72
15.14
13.11
10.93
8.91
7.23
5.83
4.44
2.76
0.6
-1.95
-4.66
-7.28
-9.66
-11.79
-13.75
-15.64
-17.63
-19.9
-22.63
-25.92
-29.56
-33.0
-35.42
-35.94
-33.98
-29.46
-22.84
-14.99
-6.86
0.71
7.11
12.0
15.26
16.95
17.22
16.36
14.74
12.77
10.92
9.56
8.98
9.25
10.25
11.68
13.22
14.64
15.81
16.78
17.56
18.12
18.35
18.09
17.29
15.98
14.35
12.59
10.83
9.09
7.29
5.34
3.13
0.64
-2.04
-4.73
-7.2
-9.22
-10.72
-11.84
-12.87
-14.22
-16.24
-19.13
-22.87
-27.14
-31.4
-34.88
-36.75
-36.29
-33.15
-27.47
-19.92
-11.53
-3.34
3.81
9.46
13.53
16.16
17.54
17.84
17.19
15.76
13.82
11.76
10.03
9.02
8.92
9.71
11.15
12.89
14.61
16.09
17.24
18.03
18.41
18.3
17.55
16.12
14.06
11.6
9.01
6.56
4.41
2.58
0.97
-0.59
-2.23
-4.04
-6.05
-8.19
-10.34
-12.35
-14.07
-15.46
-16.65
-17.94
-19.69
-22.16
-25.31
-28.71
-31.59
-33.08
-32.45
-29.4
-24.13
-17.25
-9.64
-2.18
4.4
9.61
13.24
15.31
15.93
15.31
13.69
11.36
8.72
6.28
4.51
3.72
3.97
4.99
6.42
7.89
9.25
10.52
11.75
12.84
13.6
13.73
13.08
11.72
9.86
7.74
5.47
3.05
0.43
-2.34
-5.09
-7.55
-9.5
-10.92
-12.01
-13.09
-14.51
-16.49
-19.08
-22.11
-25.2
-27.82
-29.36
-29.26
-27.18
-23.1
-17.38
-10.63
-3.57
3.09
8.8
13.16
15.91
16.98
16.46
14.65
11.97
8.99
6.28
4.29
3.31
3.42
4.5
6.27
8.41
10.58
12.5
14.0
15.01
15.5
15.48
14.96
13.95
12.54
10.81
8.82
6.59
4.07
1.21
-1.97
-5.29
-8.47
-11.25
-13.5
-15.31
-16.93
-18.72
-20.94
-23.74
-27.11
-30.89
-34.75
-38.13
-40.31
-40.49
-38.08
-32.99
-25.68
-17.1
-8.35
-0.38
6.21
11.19
14.62
16.6
17.26
16.79
15.4
13.43
11.3
9.42
8.15
7.72
8.18
9.38
11.02
12.67
14.05
14.98
15.49
15.68
15.63
15.28
14.47
13.09
11.12
8.72
6.13
3.55
1.02
-1.5
-4.07
-6.64
-9.05
-11.09
-12.62
-13.7
-14.49
-15.33
-16.55
-18.44
-21.14
-24.56
-28.35
-31.81
-34.07
-34.27
-31.87
-26.87
-19.8
-11.57
-3.2
4.49
10.98
16.03
19.58
21.66
22.3
21.61
19.85
17.42
14.84
12.65
11.26
10.87
11.42
12.67
14.29
15.98
17.55
18.88
19.91
20.54
20.65
20.11
18.9
17.1
14.88
12.46
9.98
7.49
4.97
2.38
-0.31
-3.07
-5.82
-8.48
-10.96
-13.13
-14.89
-16.19
-17.12
-17.97
-19.17
-21.12
-24.02
-27.71
-31.61
-34.84
-36.43
-35.62
-32.06
-25.98
-18.1
-9.44
-1.13
5.98
11.4
15.09
17.22
18.08
17.87
16.68
14.65
12.06
9.41
7.28
6.16
6.22
7.32
9.06
11.04
12.96
14.7
16.26
17.63
18.66
19.16
18.9
17.77
15.84
13.34
10.69
8.27
6.34
4.91
3.74
2.43
0.62
-1.8
-4.65
-7.58
-10.21
-12.41
-14.23
-15.93
-17.75
-19.89
-22.38
-25.19
-28.15
-30.87
-32.76
-33.11
-31.25
-26.91
-20.41
-12.58
-4.54
2.72
8.57
12.81
15.48
16.73
16.68
15.48
13.36
10.7
8.0
5.72
4.22
3.64
3.98
5.13
6.9
9.04
11.22
13.12
14.45
15.06
14.93
14.12
12.82
11.13
9.14
6.92
4.52
2.0
-0.53
-3.0
-5.32
-7.46
-9.43
-11.29
-13.12
-15.04
-17.11
-19.43
-22.05
-25.03
-28.3
-31.64
-34.59
-36.48
-36.58
-34.35
-29.66
-22.89
-14.82
-6.43
1.41
8.04
13.12
16.49
18.17
18.29
17.13
15.1
12.67
10.31
8.35
7.03
6.5
6.83
7.97
9.72
11.74
13.6
14.95
15.61
15.6
15.04
14.04
12.65
10.91
8.87
6.69
4.52
2.42
0.29
-2.03
-4.68
-7.59
-10.54
-13.21
-15.41
-17.17
-18.78
-20.72
-23.45
-27.19
-31.8
-36.68
-40.84
-43.2
-42.84
-39.39
-33.1
-24.8
-15.62
-6.64
1.37
7.99
13.11
16.71
18.79
19.37
18.61
16.85
14.64
12.59
11.21
10.78
11.29
12.48
14.06
15.78
17.47
19.02
20.38
21.44
22.04
22.03
21.27
19.72
17.47
14.74
11.85
9.06
6.55
4.25
2.01
-0.41
-3.05
-5.8
-8.39
-10.59
-12.32
-13.74
-15.17
-16.97
-19.46
-22.8
-26.89
-31.33
-35.35
-37.93
-38.09
-35.23
-29.41
-21.34
-12.2
-3.13
4.99
11.73
16.97
20.63
22.65
23.0
21.79
19.42
16.57
13.96
12.22
11.63
12.14
13.44
15.11
16.76
18.18
19.28
20.11
20.71
21.07
21.05
20.51
19.38
17.71
15.72
13.62
11.53
9.38
6.96
4.1
0.78
-2.78
-6.21
-9.18
-11.53
-13.34
-14.82
-16.26
-17.94
-20.1
-22.94
-26.51
-30.63
-34.69
-37.77
-38.84
-37.11
-32.33
-24.91
-15.75
-5.98
3.39
11.65
18.38
23.38
26.54
27.83
27.35
25.34
22.24
18.64
15.19
12.47
10.89
10.63
11.54
13.29
15.43
17.49
19.12
20.08
20.28
19.74
18.56
16.94
15.12
13.33
11.69
10.13
8.5
6.57
4.23
1.52
-1.4
-4.28
-6.9
-9.13
-11.01
-12.66
-14.36
-16.39
-18.96
-22.11
-25.55
-28.68
-30.76
-31.07
-29.16
-24.99
-18.9
-11.51
-3.59
4.1
10.87
16.17
19.77
21.66
22.01
21.17
19.45
17.11
14.43
11.71
9.32
7.66
7.05
7.58
9.11
11.22
13.41
15.21
16.32
16.63
16.22
15.25
13.91
12.33
10.5
8.39
5.93
3.17
0.23
-2.69
-5.42
-7.9
-10.15
-12.27
-14.37
-16.53
-18.82
-21.39
-24.44
-28.12
-32.28
-36.43
-39.69
-41.03
-39.67
-35.3
-28.28
-19.42
-9.81
-0.49
7.75
14.34
19.0
21.62
22.35
21.5
19.54
17.01
14.44
12.25
10.72
10.02
10.2
11.18
12.76
14.64
16.53
18.17
19.42
20.17
20.34
19.83
18.57
16.62
14.13
11.44
8.81
6.4
4.13
1.82
-0.78
-3.74
-6.93
-10.04
-12.77
-14.9
-16.48
-17.77
-19.22
-21.27
-24.25
-28.17
-32.62
-36.8
-39.69
-40.29
-37.95
-32.59
-24.74
-15.38
-5.65
3.4
11.05
16.91
20.87
22.97
23.35
22.26
20.06
17.27
14.51
12.37
11.26
11.33
12.37
13.97
15.72
17.3
18.61
19.68
20.55
21.14
21.26
20.68
19.28
17.14
14.52
11.77
9.18
6.95
5.09
3.49
1.94
0.24
-1.77
-4.11
-6.66
-9.16
-11.4
-13.25
-14.89
-16.6
-18.83
-21.88
-25.79
-30.29
-34.73
-38.26
-39.94
-39.03
-35.22
-28.71
-20.27
-11.01
-2.06
5.72
11.86
16.27
19.01
20.24
20.06
18.67
16.41
13.8
11.39
9.66
8.9
9.15
10.23
11.9
13.88
15.93
17.82
19.4
20.48
20.91
20.59
19.44
17.55
15.11
12.46
9.93
7.76
5.97
4.41
2.88
1.19
-0.73
-2.87
-5.19
-7.66
-10.17
-12.6
-14.83
-16.81
-18.65
-20.67
-23.23
-26.51
-30.24
-33.71
-35.94
-36.04
-33.48
-28.3
-21.07
-12.65
-3.99
4.11
11.03
16.41
20.02
21.78
21.74
20.13
17.35
14.01
10.8
8.33
7.03
6.99
8.02
9.74
11.72
13.64
15.22
16.35
16.94
16.96
16.44
15.45
14.09
12.49
10.69
8.73
6.62
4.37
2.01
-0.46
-3.06
-5.82
-8.72
-11.63
-14.35
-16.72
-18.74
-20.63
-22.74
-25.44
-28.87
-32.84
-36.77
-39.79
-41.01
-39.75
-35.73
-29.17
-20.75
-11.42
-2.21
6.0
12.59
17.29
20.04
20.97
20.4
18.72
16.44
14.1
12.18
10.96
10.53
10.79
11.53
12.55
13.75
15.06
16.45
17.85
19.04
19.79
19.85
19.04
17.38
15.06
12.38
9.62
6.98
4.47
1.99
-0.54
-3.13
-5.69
-8.07
-10.18
-12.05
-13.78
-15.55
-17.49
-19.71
-22.33
-25.46
-29.15
-33.27
-37.37
-40.59
-41.93
-40.49
-35.91
-28.51
-19.23
-9.36
-0.09
7.77
13.89
18.25
20.98
22.18
21.91
20.37
17.96
15.32
13.15
12.0
12.07
13.15
14.8
16.55
18.1
19.39
20.54
21.68
22.77
23.58
23.7
22.84
20.91
18.13
15.01
12.09
9.78
8.14
6.95
5.72
4.0
1.5
-1.73
-5.34
-8.85
-11.84
-14.11
-15.79
-17.19
-18.76
-20.86
-23.72
-27.34
-31.44
-35.41
-38.37
-39.39
-37.69
-32.97
-25.57
-16.38
-6.6
2.6
10.35
16.17
19.88
21.57
21.46
19.92
17.45
14.63
12.04
10.1
9.04
8.93
9.67
11.05
12.84
14.77
16.61
18.19
19.41
20.23
20.6
20.45
19.73
18.39
16.52
14.28
11.88
9.47
7.1
4.74
2.39
0.03
-2.3
-4.54
-6.72
-8.84
-10.96
-13.1
-15.33
-17.75
-20.49
-23.68
-27.28
-30.95
-34.03
-35.75
-35.4
-32.63
-27.51
-20.52
-12.42
-4.01
3.91
10.71
15.94
19.36
20.92
20.79
19.28
16.79
13.8
10.79
8.24
6.56
5.99
6.58
8.14
10.33
12.77
15.09
16.99
18.26
18.74
18.35
17.13
15.24
12.95
10.54
8.2
5.99
3.82
1.56
-0.89
-3.49
-6.17
-8.82
-11.37
-13.82
-16.22
-18.67
-21.34
-24.38
-27.87
-31.71
-35.46
-38.37
-39.58
-38.4
-34.58
-28.4
-20.57
-12.01
-3.58
4.05
10.41
15.22
18.36
19.84
19.86
18.64
16.52
13.82
10.97
8.45
6.73
6.16
6.81
8.43
10.6
12.85
14.81
16.32
17.24
17.5
17.03
15.83
14.06
11.94
9.69
7.44
5.15
2.72
0.06
-2.89
-6.07
-9.4
-12.79
-16.12
-19.26
-22.14
-24.79
-27.45
-30.44
-34.02
-38.19
-42.46
-45.93
-47.51
-46.26
-41.79
-34.34
-24.77
-14.31
-4.14
4.81
12.0
17.2
20.39
21.61
21.03
19.06
16.28
13.43
11.2
9.99
9.86
10.62
11.97
13.68
15.63
17.77
19.97
21.99
23.46
23.99
23.41
21.73
19.25
16.37
13.47
10.76
8.21
5.63
2.81
-0.35
-3.72
-7.04
-9.98
-12.37
-14.21
-15.74
-17.32
-19.31
-22.01
-25.53
-29.7
-34.04
-37.77
-39.91
-39.58
-36.24
-29.92
-21.2
-11.14
-0.94
8.3
15.81
21.17
24.34
25.46
24.87
23.01
20.41
17.62
15.16
13.42
12.55
12.49
12.99
13.78
14.73
15.83
17.17
18.75
20.34
21.58
22.09
21.67
20.4
18.53
16.36
14.06
11.68
9.15
6.5
3.78
1.12
-1.41
-3.81
-6.16
-8.48
-10.78
-13.04
-15.31
-17.75
-20.6
-24.0
-27.89
-31.78
-34.92
-36.36
-35.35
-31.55
-25.25
-17.24
-8.6
-0.36
6.77
12.48
16.73
19.61
21.15
21.31
20.06
17.6
14.37
10.97
8.12
6.37
6.02
7.03
9.13
11.84
14.63
17.04
18.75
19.65
19.76
19.27
18.33
17.09
15.62
13.93
11.98
9.76
7.3
4.66
1.91
-0.85
-3.58
-6.25
-8.83
-11.26
-13.57
-15.8
-18.12
-20.68
-23.48
-26.17
-28.04
-28.19
-25.89
-20.91
-13.77
-5.48
2.7
9.8
15.32
19.27
21.86
23.3
23.6
22.63
20.37
17.05
13.26
9.82
7.49
6.75
7.59
9.54
11.9
13.97
15.33
15.91
15.87
15.42
14.65
13.55
11.97
9.82
7.13
4.05
0.8
-2.44
-5.54
-8.48
-11.27
-13.97
-16.69
-19.56
-22.71
-26.26
-30.21
-34.35
-38.25
-41.2
-42.39
-41.1
-36.92
-29.96
-20.91
-10.82
-0.91
7.85
14.82
19.83
22.97
24.47
24.51
23.27
20.98
17.99
14.81
11.99
10.05
9.32
9.89
11.55
13.88
16.33
18.41
19.75
20.16
19.67
18.46
16.74
14.69
12.44
10.03
7.49
4.81
1.99
-0.99
-4.12
-7.36
-10.59
-13.67
-16.46
-18.97
-21.3
-23.78
-26.72
-30.31
-34.43
-38.53
-41.73
-43.03
-41.67
-37.32
-30.26
-21.28
-11.41
-1.7
6.99
14.13
19.4
22.66
23.88
23.2
21.0
17.88
14.63
11.97
10.39
9.99
10.55
11.73
13.24
14.97
16.91
18.99
20.96
22.4
22.88
22.19
20.41
17.86
14.97
12.06
9.28
6.64
4.08
1.54
-1.03
-3.67
-6.38
-9.1
-11.72
-14.13
-16.28
-18.32
-20.54
-23.39
-27.2
-32.0
-37.36
-42.38
-45.86
-46.61
-43.84
-37.44
-28.05
-16.9
-5.44
5.02
13.59
19.9
23.98
26.06
26.44
25.43
23.45
21.0
18.68
17.03
16.39
16.82
18.08
19.76
21.45
22.83
23.73
24.08
23.94
23.39
22.48
21.24
19.65
17.63
15.17
12.31
9.18
5.96
2.82
-0.12
-2.84
-5.31
-7.57
-9.62
-11.53
-13.38
-15.33
-17.54
-20.19
-23.4
-27.16
-31.24
-35.05
-37.74
-38.36
-36.22
-31.18
-23.78
-15.08
-6.33
1.48
7.83
12.62
15.96
17.97
18.64
17.94
16.01
13.28
10.41
8.09
6.82
6.78
7.82
9.55
11.58
13.54
15.22
16.44
17.15
17.31
16.89
15.89
14.32
12.24
9.73
6.96
4.11
1.37
-1.15
-3.42
-5.49
-7.45
-9.38
-11.34
-13.46
-15.9
-18.85
-22.4
-26.45
-30.59
-34.17
-36.36
-36.48
-34.06
-29.07
-21.9
-13.32
-4.32
4.15
11.34
16.81
20.42
22.26
22.46
21.2
18.69
15.34
11.76
8.66
6.68
6.17
7.05
8.92
11.23
13.48
15.33
16.61
17.24
17.19
16.47
15.12
13.28
11.08
8.64
6.02
3.24
0.33
-2.69
-5.78
-8.89
-12.0
-15.03
-17.91
-20.55
-22.97
-25.38
-28.16
-31.65
-35.91
-40.5
-44.45
-46.57
-45.85
-41.86
-34.91
-25.87
-15.87
-5.97
3.05
10.68
16.63
20.73
22.92
23.28
22.1
19.88
17.19
14.62
12.66
11.61
11.53
12.33
13.76
15.54
17.45
19.32
21.01
22.37
23.13
23.01
21.83
19.63
16.72
13.55
10.61
8.18
6.22
4.5
2.61
0.24
-2.75
-6.24
-9.94
-13.48
-16.54
-18.95
-20.78
-22.3
-23.93
-26.13
-29.2
-33.13
-37.44
-41.25
-43.47
-43.06
-39.43
-32.63
-23.39
-12.93
-2.57
6.6
13.92
19.23
22.62
24.31
24.45
23.24
20.97
18.15
15.47
13.59
12.88
13.35
14.68
16.36
17.98
19.34
20.41
21.23
21.77
21.94
21.59
20.61
19.02
16.95
14.66
12.41
10.42
8.74
7.23
5.63
3.67
1.25
-1.48
-4.21
-6.64
-8.57
-10.1
-11.48
-13.04
-15.07
-17.72
-21.05
-25.04
-29.47
-33.86
-37.47
-39.39
-38.83
-35.39
-29.2
-20.97
-11.73
-2.59
5.58
12.27
17.31
20.78
22.82
23.51
22.94
21.28
18.87
16.23
13.95
12.52
12.14
12.69
13.91
15.49
17.22
18.97
20.59
21.81
22.35
21.93
20.51
18.26
15.54
12.73
10.17
7.98
6.13
4.45
2.67
0.58
-1.94
-4.83
-7.89
-10.83
-13.43
-15.64
-17.6
-19.6
-21.95
-24.87
-28.38
-32.21
-35.81
-38.39
-39.1
-37.26
-32.6
-25.39
-16.43
-6.81
2.36
10.21
16.25
20.29
22.42
22.76
21.52
19.04
15.82
12.46
9.61
7.76
7.12
7.6
8.89
10.66
12.59
14.5
16.18
17.4
17.94
17.63
16.49
14.76
12.79
10.87
9.11
7.4
5.51
3.22
0.5
-2.56
-5.74
-8.84
-11.74
-14.35
-16.66
-18.71
-20.64
-22.64
-25.02
-27.99
-31.48
-35.03
-37.82
-38.86
-37.29
-32.76
-25.55
-16.51
-6.82
2.39
10.29
16.39
20.53
22.73
23.09
21.87
19.48
16.53
13.68
11.46
10.14
9.72
10.01
10.81
11.93
13.22
14.53
15.66
16.42
16.7
16.44
15.68
14.43
12.76
10.73
8.41
5.91
3.29
0.61
-2.16
-4.98
-7.78
-10.45
-12.88
-15.07
-17.11
-19.16
-21.37
-23.87
-26.78
-30.23
-34.2
-38.38
-42.02
-44.05
-43.41
-39.46
-32.35
-22.98
-12.65
-2.65
6.16
13.38
18.92
22.75
24.83
25.1
23.69
21.0
17.72
14.57
12.16
10.82
10.54
11.15
12.37
13.97
15.8
17.73
19.62
21.19
22.14
22.17
21.13
19.09
16.34
13.29
10.25
7.41
4.77
2.17
-0.52
-3.35
-6.29
-9.29
-12.29
-15.26
-18.16
-20.92
-23.54
-26.12
-28.91
-32.19
-35.99
-39.9
-43.02
-44.2
-42.47
-37.41
-29.32
-19.15
-8.11
2.64
12.16
19.84
25.32
28.47
29.39
28.43
26.14
23.14
20.06
17.42
15.58
14.76
15.01
16.23
18.15
20.43
22.7
24.64
26.02
26.66
26.47
25.44
23.69
21.42
18.93
16.46
14.1
11.83
9.51
6.98
4.14
0.99
-2.36
-5.77
-9.09
-12.18
-14.98
-17.52
-19.95
-22.55
-25.64
-29.37
-33.59
-37.75
-40.91
-42.04
-40.32
-35.46
-27.8
-18.21
-7.85
2.14
10.85
17.73
22.49
25.07
25.59
24.34
21.74
18.4
15.01
12.22
10.52
10.12
10.87
12.41
14.27
16.1
17.72
19.09
20.2
20.93
21.1
20.49
19.03
16.87
14.31
11.69
9.26
7.03
4.82
2.4
-0.38
-3.48
-6.67
-9.65
-12.17
-14.15
-15.75
-17.31
-19.27
-21.95
-25.45
-29.49
-33.42
-36.35
-37.34
-35.74
-31.33
-24.45
-15.85
-6.58
2.31
9.95
15.8
19.67
21.64
22.0
21.11
19.29
16.89
14.25
11.73
9.71
8.5
8.24
8.87
10.21
11.92
13.73
15.35
16.52
16.99
16.59
15.29
13.22
10.67
7.93
5.19
2.47
-0.34
-3.26
-6.17
-8.84
-11.07
-12.86
-14.42
-16.13
-18.34
-21.25
-24.83
-28.88
-33.04
-36.77
-39.36
-40.03
-38.09
-33.26
-25.82
-16.6
-6.73
2.71
10.91
17.38
21.9
24.38
24.9
23.71
21.27
18.21
15.17
12.61
10.8
9.79
9.52
9.9
10.81
12.12
13.63
15.08
16.18
16.68
16.36
15.11
12.99
10.22
7.13
4.03
1.15
-1.51
-4.07
-6.7
-9.47
-12.31
-15.05
-17.52
-19.64
-21.52
-23.34
-25.36
-27.89
-31.09
-34.98
-39.28
-43.31
-46.11
-46.59
-43.99
-38.03
-29.21
-18.56
-7.44
2.86
11.42
17.76
21.79
23.68
23.76
22.4
20.06
17.25
14.52
12.38
11.17
11.02
11.79
13.17
14.78
16.34
17.65
18.65
19.31
19.5
19.05
17.75
15.57
12.64
9.35
6.16
3.37
1.0
-1.25
-3.82
-7.07
-11.02
-15.37
-19.59
-23.25
-26.15
-28.42
-30.45
-32.73
-35.67
-39.5
-44.17
-49.26
-54.01
-57.42
-58.53
-56.68
-51.77
-44.31
-35.26
-25.69
-16.52
-8.27
-1.06
5.29
11.05
16.4
21.34
25.76
29.5
32.6
35.26
37.81
40.54
43.52
46.51
49.1
50.95
51.95
52.24
52.08
51.59
50.63
48.86
45.98
41.88
36.86
31.48
26.33
21.81
17.96
14.55
11.2
7.63
3.79
-0.17
-4.0
-7.46
-10.46
-13.08
-15.57
-18.25
-21.43
-25.3
-29.85
-34.76
-39.43
-42.99
-44.53
-43.31
-39.02
-31.95
-22.88
-12.96
-3.36
4.97
11.49
16.01
18.63
19.52
18.94
17.13
14.45
11.4
8.56
6.47
5.45
5.53
6.53
8.16
10.14
12.25
14.33
16.13
17.38
17.81
17.3
15.87
13.76
11.27
8.68
6.15
3.77
1.49
-0.82
-3.34
-6.21
-9.42
-12.79
-15.99
-18.71
-20.81
-22.42
-23.92
-25.71
-28.08
-31.13
-34.76
-38.66
-42.31
-44.92
-45.48
-43.08
-37.24
-28.22
-17.02
-5.13
5.99
15.32
22.43
27.36
30.33
31.57
31.21
29.4
26.43
22.74
18.89
15.48
13.05
11.95
12.26
13.72
15.8
17.9
19.5
20.33
20.44
19.97
19.08
17.77
15.95
13.52
10.56
7.36
4.28
1.62
-0.59
-2.59
-4.73
-7.29
-10.28
-13.39
-16.2
-18.34
-19.76
-20.74
-21.81
-23.51
-26.19
-29.95
-34.6
-39.66
-44.43
-48.03
-49.52
-48.1
-43.41
-35.6
-25.47
-14.16
-2.99
6.96
14.95
20.66
24.08
25.44
25.05
23.26
20.54
17.4
14.43
12.2
11.06
11.11
12.16
13.8
15.58
17.17
18.45
19.49
20.4
21.22
21.81
21.86
21.06
19.26
16.52
13.22
9.84
6.83
4.42
2.54
0.89
-0.89
-3.02
-5.57
-8.41
-11.3
-14.06
-16.58
-18.92
-21.22
-23.72
-26.66
-30.23
-34.46
-39.13
-43.62
-47.0
-48.21
-46.37
-41.17
-32.96
-22.7
-11.64
-0.96
8.45
16.08
21.66
25.05
26.22
25.35
22.85
19.38
15.75
12.69
10.73
10.03
10.44
11.6
13.1
14.66
16.14
17.57
18.98
20.34
21.43
21.98
21.72
20.54
18.6
16.16
13.61
11.25
9.24
7.58
6.09
4.53
2.65
0.32
-2.38
-5.18
-7.75
-9.79
-11.24
-12.27
-13.27
-14.68
-16.87
-20.05
-24.13
-28.64
-32.81
-35.63
-36.12
-33.59
-27.94
-19.67
-9.83
0.33
9.64
17.29
22.84
26.18
27.43
26.79
24.63
21.41
17.75
14.32
11.72
10.28
10.02
10.68
11.88
13.31
14.79
16.28
17.71
18.95
19.73
19.78
18.94
17.25
14.91
12.27
9.65
7.24
5.06
2.95
0.68
-1.94
-4.92
-8.08
-11.16
-13.86
-16.12
-18.01
-19.85
-21.97
-24.72
-28.31
-32.69
-37.49
-41.94
-45.03
-45.64
-43.0
-36.95
-28.03
-17.39
-6.43
3.59
11.82
17.87
21.75
23.66
23.87
22.68
20.4
17.41
14.2
11.33
9.31
8.47
8.87
10.27
12.24
14.33
16.22
17.77
18.93
19.66
19.86
19.39
18.15
16.22
13.83
11.25
8.66
6.1
3.42
0.48
-2.79
-6.29
-9.85
-13.23
-16.24
-18.77
-20.83
-22.57
-24.35
-26.59
-29.75
-33.98
-38.99
-43.93
-47.57
-48.67
-46.4
-40.59
-31.82
-21.16
-9.86
0.92
10.3
17.73
22.91
25.76
26.38
25.09
22.4
18.98
15.54
12.76
11.1
10.77
11.65
13.4
15.6
17.88
19.99
21.82
23.25
24.13
24.26
23.44
21.68
19.15
16.25
13.39
10.83
8.62
6.57
4.39
1.84
-1.12
-4.33
-7.51
-10.35
-12.69
-14.52
-16.02
-17.49
-19.26
-21.66
-24.87
-28.82
-33.06
-36.78
-38.97
-38.69
-35.41
-29.16
-20.54
-10.59
-0.42
8.91
16.66
22.37
25.86
27.2
26.67
24.67
21.75
18.43
15.27
12.72
11.1
10.55
11.01
12.27
14.01
15.93
17.77
19.32
