0
46.78
58.7
70.03
79.11
85.21
88.2
88.13
84.9
78.22
67.94
54.48
38.98
23.25
9.18
-1.84
-9.5
-14.62
-18.78
-23.63
-30.09
-38.08
-46.57
-54.19
-59.94
-63.77
-66.7
-70.51
-77.12
-88.02
-103.56
-122.69
-142.71
-159.57
-168.58
-165.57
-148.18
-116.84
-74.96
-28.12
17.45
56.48
85.73
104.13
112.22
111.23
102.6
87.86
69.07
49.05
31.22
18.94
14.47
18.26
28.75
43.02
57.73
70.21
78.92
83.44
84.0
80.92
74.43
64.69
52.21
37.98
23.51
10.32
-0.48
-8.71
-15.15
-21.15
-28.09
-36.65
-46.53
-56.61
-65.45
-72.07
-76.49
-79.87
-84.17
-91.51
-103.52
-120.61
-141.56
-163.33
-181.36
-190.39
-185.88
-165.47
-130.05
-83.85
-33.37
14.53
54.52
83.85
102.36
111.53
113.27
109.15
100.36
88.13
74.27
61.3
51.94
48.31
51.19
59.67
71.47
83.77
94.07
100.92
103.99
103.78
100.96
95.9
88.52
78.53
65.87
51.19
35.85
21.57
9.87
1.43
-4.23
-8.49
-13.06
-19.28
-27.52
-37.11
-46.65
-54.7
-60.46
-64.17
-67.09
-71.11
-78.23
-89.95
-106.79
-127.89
-150.7
-171.06
-183.78
-183.95
-168.39
-137.01
-93.2
-43.07
6.38
49.16
81.77
103.46
115.52
120.03
118.81
113.08
103.72
91.9
79.51
69.07
63.09
63.16
69.36
80.15
92.84
104.58
113.22
117.76
118.34
115.7
110.64
103.66
94.86
84.24
72.04
58.9
45.8
33.83
23.79
15.97
10.03
5.15
0.29
-5.53
-12.83
-21.57
-31.11
-40.49
-48.77
-55.47
-60.81
-65.77
-71.82
-80.51
-93.07
-110.03
-130.79
-153.33
-174.08
-188.25
-190.89
-178.41
-150.08
-108.68
-59.98
-11.1
31.64
64.3
85.73
96.89
99.64
95.64
86.16
72.47
56.47
40.93
29.09
23.64
25.83
34.93
48.5
63.27
76.24
85.49
90.4
91.3
88.87
83.53
75.36
64.36
50.89
35.98
21.25
8.46
-1.2
-7.64
-11.88
-15.62
-20.49
-27.27
-35.63
-44.37
-52.02
-57.66
-61.37
-64.31
-68.27
-75.12
-86.21
-101.91
-121.21
-141.51
-158.81
-168.29
-165.6
-148.3
-116.95
-75.25
-29.14
15.1
52.51
80.54
98.99
109.08
112.28
109.65
101.93
89.97
75.49
61.05
49.73
44.08
45.35
52.95
64.64
77.37
88.21
95.28
98.0
96.86
92.88
86.95
79.51
70.64
60.3
48.74
36.59
24.79
14.32
5.83
-0.53
-5.21
-9.05
-13.09
-18.22
-24.9
-33.0
-41.8
-50.3
-57.64
-63.49
-68.29
-73.14
-79.48
-88.69
-101.74
-118.84
-139.17
-160.49
-179.12
-190.29
-189.32
-173.12
-141.63
-98.23
-49.05
-1.12
39.66
69.91
89.15
98.86
101.33
98.6
92.11
82.97
72.48
62.4
54.8
51.5
53.45
60.33
70.61
82.11
92.66
100.67
105.4
106.74
105.0
100.48
93.51
84.52
74.17
63.37
53.06
43.99
36.39
30.02
24.25
18.5
12.47
6.24
0.21
-5.3
-10.26
-15.05
-20.29
-26.5
-33.82
-41.79
-49.63
-56.61
-62.55
-68.05
-74.38
-83.2
-95.9
-113.11
-134.03
-156.18
-175.37
-186.46
-184.58
-166.84
-133.53
-88.47
-38.13
10.26
50.75
80.07
97.87
105.79
106.15
100.94
91.48
78.78
64.31
50.18
39.04
33.27
34.14
41.26
52.68
65.52
76.95
84.92
88.63
88.33
84.86
79.08
71.54
62.48
52.0
40.43
28.4
16.89
6.85
-1.05
-6.71
-10.67
-13.88
-17.41
-21.96
-27.74
-34.39
-41.14
-47.21
-52.1
-55.86
-59.13
-62.93
-68.42
-76.61
-88.11
-102.99
-120.57
-139.02
-155.29
-165.27
-164.68
-150.44
-121.99
-81.97
-35.76
10.1
49.77
79.66
98.72
107.81
108.52
102.28
90.26
73.83
55.12
37.19
23.45
16.71
18.19
27.16
41.15
56.83
71.0
81.38
87.02
88.07
85.39
79.96
72.5
63.43
52.99
41.5
29.53
17.92
7.49
-1.18
-7.98
-13.39
-18.21
-23.35
-29.51
-36.97
-45.45
-54.22
-62.38
-69.16
-74.34
-78.45
-82.7
-88.69
-98.02
-111.79
-130.19
-152.04
-174.53
-193.27
-203.02
-198.99
-178.47
-142.05
-93.99
-41.14
8.97
50.29
79.66
96.95
104.15
103.97
98.7
89.85
78.57
66.19
54.64
46.21
42.94
45.83
54.38
66.72
80.25
92.43
101.48
106.69
108.18
106.53
102.31
95.89
87.41
77.02
65.15
52.57
40.29
29.33
20.42
13.69
8.74
4.72
0.58
-4.57
-11.24
-19.44
-28.57
-37.69
-45.81
-52.34
-57.35
-61.7
-66.8
-74.29
-85.53
-101.24
-121.1
-143.34
-164.64
-180.32
-185.26
-175.34
-149.08
-108.54
-59.15
-8.14
37.49
72.94
96.34
108.34
110.92
106.13
95.58
80.63
63.0
45.14
30.11
20.76
18.82
24.21
35.07
48.44
61.29
71.47
78.05
81.16
81.35
78.95
73.85
65.74
54.59
41.14
26.98
14.05
3.96
-2.75
-6.76
-9.66
-13.26
-18.72
-26.09
-34.4
-42.19
-48.29
-52.35
-55.12
-58.14
-63.29
-72.12
-85.42
-102.77
-122.26
-140.58
-153.38
-156.26
-145.99
-121.77
-85.73
-42.6
1.6
41.24
72.42
93.49
104.7
107.27
102.61
92.02
76.93
59.39
42.25
28.75
21.67
22.4
30.37
43.23
57.72
70.72
80.18
85.42
86.74
84.87
80.3
73.14
63.34
51.12
37.29
23.26
10.64
0.61
-6.54
-11.59
-16.05
-21.53
-29.0
-38.39
-48.6
-58.06
-65.43
-70.38
-73.73
-77.25
-83.11
-93.11
-108.12
-127.64
-149.55
-170.14
-184.55
-187.82
-176.31
-149.08
-108.68
-60.64
-12.0
30.86
63.85
85.79
97.81
102.04
100.42
94.22
84.37
72.11
59.43
48.93
43.01
42.99
48.5
57.69
67.93
76.82
82.92
85.96
86.46
85.04
81.9
76.63
68.61
57.58
44.14
29.8
16.5
5.85
-1.55
-6.33
-10.05
-14.41
-20.44
-28.08
-36.33
-43.85
-49.73
-53.99
-57.62
-62.19
-69.36
-80.29
-95.32
-113.73
-133.46
-151.2
-162.75
-163.93
-151.86
-126.15
-89.37
-46.53
-3.67
33.86
62.74
82.05
92.68
96.31
94.5
88.36
78.83
67.19
55.36
45.76
40.64
41.29
47.54
57.76
69.5
80.22
88.03
91.93
91.76
87.81
80.57
70.64
58.75
45.84
32.95
20.99
10.54
1.64
-6.04
-12.97
-19.52
-25.84
-31.94
-37.82
-43.68
-49.92
-57.14
-66.07
-77.35
-91.33
-107.49
-124.1
-138.02
-145.2
-141.76
-125.47
-96.84
-59.28
-18.25
20.45
52.32
75.2
89.1
95.44
95.83
91.44
82.98
71.26
57.77
44.92
35.5
31.78
34.6
42.95
54.24
65.29
73.33
76.78
75.44
70.15
62.15
52.59
42.23
31.52
20.71
10.11
0.15
-8.72
-16.12
-21.95
-26.52
-30.41
-34.41
-39.19
-45.19
-52.61
-61.57
-72.19
-84.5
-97.94
-110.97
-120.8
-123.91
-117.15
-98.97
-70.39
-34.92
2.44
36.73
64.43
83.96
95.52
100.07
98.63
91.95
80.83
66.68
51.85
39.31
31.81
30.98
36.6
46.7
58.29
68.3
74.52
75.97
72.8
65.89
56.38
45.37
33.82
22.42
11.69
1.9
-6.92
-14.86
-22.01
-28.43
-34.08
-39.02
-43.52
-48.13
-53.58
-60.54
-69.52
-80.7
-93.9
-108.43
-122.74
-134.28
-139.7
-135.65
-120.04
-93.11
-57.86
-19.25
17.23
47.31
68.74
81.33
85.99
83.86
75.85
62.91
46.69
29.82
15.66
7.37
6.83
13.93
26.59
41.48
55.04
64.51
68.47
66.98
61.11
52.4
42.29
31.79
21.36
11.11
1.06
-8.67
-17.76
-25.81
-32.52
-37.87
-42.23
-46.24
-50.73
-56.5
-64.26
-74.55
-87.66
-103.37
-120.61
-137.07
-149.26
-153.15
-145.34
-124.48
-92.06
-52.34
-11.09
26.13
55.64
76.17
88.5
94.24
94.79
90.91
83.13
72.48
61.04
51.62
46.87
48.21
55.18
65.62
76.63
85.61
91.14
93.03
91.93
88.59
83.39
76.16
66.58
54.62
40.96
26.99
14.43
4.66
-1.91
-6.1
-9.67
-14.51
-21.74
-31.23
-41.65
-51.28
-58.92
-64.53
-69.28
-75.09
-83.85
-96.79
-114.14
-134.81
-156.35
-174.97
-186.03
-185.04
-169.13
-138.28
-95.8
-47.61
-0.47
39.98
70.65
91.23
103.31
109.08
110.24
107.77
102.18
94.29
85.55
78.03
73.76
74.02
78.82
86.9
96.21
104.61
110.54
113.29
112.92
109.86
104.58
97.37
88.46
78.16
67.07
55.94
45.54
36.35
28.43
21.55
15.36
9.59
4.09
-1.23
-6.58
-12.32
-18.82
-26.23
-34.37
-42.72
-50.67
-57.84
-64.41
-71.12
-79.14
-89.71
-103.83
-121.87
-143.07
-165.19
-184.43
-195.92
-194.9
-178.33
-146.29
-102.34
-52.8
-4.85
35.48
64.9
83.07
91.74
93.31
89.66
81.86
70.63
57.2
43.79
33.38
28.76
31.43
40.92
54.87
69.93
82.94
91.85
96.04
96.01
92.72
87.04
79.45
70.18
59.42
47.62
35.61
24.39
14.92
7.72
2.71
-0.85
-4.11
-8.22
-14.0
-21.56
-30.28
-39.11
-46.97
-53.22
-57.98
-62.05
-66.73
-73.39
-83.19
-96.81
-114.29
-134.62
-155.45
-172.92
-182.2
-178.73
-159.81
-126.01
-81.32
-32.22
14.35
52.98
80.96
98.31
106.71
108.23
104.51
96.64
85.72
73.3
61.61
53.09
49.65
52.01
59.44
70.12
81.72
92.18
100.05
104.65
105.76
103.48
98.05
89.84
79.53
67.98
56.21
45.05
35.0
26.13
18.19
10.82
3.75
-3.1
-9.68
-15.93
-21.93
-27.95
-34.3
-41.22
-48.67
-56.3
-63.55
-70.0
-75.58
-80.82
-86.77
-94.77
-106.14
-121.66
-141.09
-162.72
-183.09
-197.35
-200.22
-187.55
-158.01
-113.95
-61.15
-7.18
40.79
77.94
102.65
115.99
120.4
118.38
111.76
101.77
89.61
76.86
65.59
57.88
55.16
57.76
64.76
74.39
84.59
93.59
100.27
104.11
105.05
103.12
98.35
90.83
80.89
69.25
56.99
45.24
34.77
25.82
18.11
11.13
4.53
-1.73
-7.41
-12.34
-16.66
-20.95
-25.97
-32.29
-39.97
-48.45
-56.83
-64.28
-70.54
-76.07
-82.01
-89.89
-101.21
-116.9
-136.78
-158.99
-179.79
-193.97
-196.03
-181.9
-150.63
-105.17
-51.76
1.75
48.31
83.34
105.38
115.45
115.65
108.13
94.61
76.68
56.39
36.54
20.39
10.91
9.78
16.87
30.12
46.35
62.14
74.8
82.91
86.35
85.8
82.15
76.07
67.82
57.49
45.32
31.99
18.64
6.55
-3.22
-10.23
-14.84
-18.13
-21.51
-26.29
-33.09
-41.67
-50.97
-59.65
-66.61
-71.51
-74.94
-78.15
-82.69
-90.02
-101.27
-116.93
-136.45
-157.76
-177.04
-189.13
-188.7
-172.13
-138.96
-92.55
-39.25
13.4
58.86
93.1
114.96
125.43
126.53
120.28
108.42
92.55
74.62
57.06
42.57
33.48
31.11
35.32
44.58
56.52
68.67
79.03
86.4
90.33
90.82
88.06
82.34
74.07
63.88
52.62
41.17
30.29
20.38
11.48
3.42
-4.0
-10.87
-17.17
-22.94
-28.34
-33.75
-39.58
-46.07
-53.1
-60.23
-66.84
-72.48
-77.17
-81.52
-86.75
-94.38
-105.93
-122.19
-142.57
-164.49
-183.4
-193.53
-189.49
-168.17
-130.12
-79.76
-24.22
28.72
72.81
104.59
123.58
131.3
130.05
121.98
108.77
92.0
73.61
56.07
42.13
34.12
33.23
39.12
50.02
63.37
76.56
87.6
95.34
99.43
99.96
97.19
91.45
83.15
72.83
61.2
49.06
37.14
25.99
15.91
6.96
-0.97
-8.12
-14.77
-21.26
-27.88
-34.84
-42.1
-49.44
-56.43
-62.65
-67.9
-72.39
-76.83
-82.29
-90.01
-101.08
-116.11
-134.75
-155.22
-174.11
-186.61
-187.57
-173.07
-142.03
-97.01
-43.9
9.75
56.88
92.7
115.4
125.6
125.25
116.42
100.94
80.64
57.93
36.11
18.91
9.58
9.77
18.88
34.18
51.8
67.94
80.0
87.03
89.44
88.32
84.68
78.96
71.11
60.97
48.72
35.18
21.65
9.55
-0.11
-7.13
-12.25
-16.82
-22.29
-29.59
-38.69
-48.7
-58.15
-65.74
-70.82
-73.84
-76.18
-79.77
-86.62
-98.2
-115.02
-136.14
-158.88
-178.86
-190.67
-189.21
-171.31
-137.07
-90.21
-37.19
14.62
58.94
91.95
112.65
122.19
122.71
116.36
104.94
90.02
73.42
57.39
44.51
37.05
36.34
42.15
52.84
65.81
78.4
88.59
95.36
98.64
98.78
96.21
91.13
83.61
73.75
61.91
48.78
35.34
22.68
11.74
3.05
-3.45
-8.49
-13.25
-18.9
-26.15
-34.92
-44.31
-53.12
-60.33
-65.57
-69.3
-72.66
-77.07
-84.03
-94.76
-109.99
-129.41
-151.16
-171.51
-185.22
-186.81
-172.28
-140.81
-95.48
-42.53
10.4
56.52
91.53
114.13
125.39
127.47
122.57
112.42
98.42
82.22
65.97
52.28
43.57
41.4
45.83
55.44
67.81
80.28
90.77
98.06
101.85
102.32
99.82
94.59
86.89
77.09
65.79
53.82
41.95
30.82
20.79
12.0
4.46
-1.93
-7.4
-12.39
-17.46
-23.22
-29.95
-37.53
-45.39
-52.78
-59.07
-64.08
-68.27
-72.71
-78.84
-88.22
-102.04
-120.58
-142.58
-164.89
-182.64
-190.21
-182.91
-158.7
-119.21
-69.66
-17.29
30.72
69.1
95.4
109.66
113.32
108.2
95.97
78.38
57.71
37.05
19.95
9.58
7.69
14.03
26.37
41.34
55.56
66.65
73.69
77.04
77.59
76.04
72.45
66.4
57.46
45.84
32.57
19.36
7.96
-0.53
-6.13
-9.92
-13.61
-18.73
-26.02
-35.08
-44.65
-53.17
-59.52
-63.55
-66.19
-69.13
-74.29
-83.27
-96.92
-114.93
-135.58
-155.56
-170.34
-174.98
-165.61
-140.84
-102.54
-55.68
-6.84
37.61
73.15
97.89
112.16
117.5
115.61
107.85
95.41
79.78
63.16
48.36
38.21
34.67
38.19
47.52
60.2
73.35
84.63
92.67
97.11
98.23
96.49
92.19
85.49
76.55
65.71
53.65
41.25
29.37
18.74
9.73
2.38
-3.66
-8.95
-14.24
-20.16
-27.06
-34.79
-42.75
-50.14
-56.3
-61.14
-65.27
-69.92
-76.59
-86.67
-101.1
-119.92
-141.93
-164.35
-182.87
-192.31
-187.94
-167.14
-130.64
-82.71
-30.11
19.94
61.76
92.41
111.66
121.04
122.55
117.88
108.32
95.26
80.57
66.74
56.35
51.37
52.53
59.14
69.44
81.19
92.32
101.25
107.07
109.41
108.3
103.98
96.91
87.71
77.11
65.89
54.73
44.11
34.23
25.08
16.6
8.81
1.79
-4.39
-9.84
-14.97
-20.39
-26.65
-33.94
-41.93
-49.95
-57.33
-63.74
-69.43
-75.25
-82.41
-92.24
-105.85
-123.65
-144.82
-166.79
-185.24
-194.78
-190.44
-169.45
-132.52
-84.06
-31.02
19.17
60.63
90.27
107.72
114.47
112.51
103.66
89.41
71.51
52.37
35.13
23.06
18.55
22.3
32.99
47.76
63.16
76.27
85.34
90.0
90.76
88.45
83.7
76.69
67.46
56.16
43.41
30.39
18.49
8.86
1.95
-2.76
-6.55
-10.95
-17.13
-25.35
-34.83
-44.07
-51.55
-56.45
-59.06
-60.81
-63.84
-70.33
-81.77
-98.6
-119.8
-142.79
-163.57
-177.22
-178.96
-165.5
-136.35
-94.41
-45.51
3.21
45.34
76.89
96.89
106.76
108.95
105.65
98.22
87.42
74.2
60.24
47.94
39.87
37.84
42.2
51.72
64.11
76.76
87.54
95.19
99.28
99.91
97.38
91.98
84.03
73.93
62.31
49.94
37.66
26.14
15.86
7.06
-0.26
-6.3
-11.52
-16.57
-22.19
-28.89
-36.77
-45.37
-53.86
-61.4
-67.53
-72.46
-77.05
-82.61
-90.6
-102.29
-118.44
-138.7
-161.17
-182.12
-196.35
-198.42
-184.4
-153.49
-108.66
-56.05
-3.16
43.3
79.05
102.82
115.7
119.93
117.81
111.08
101.06
89.1
76.86
66.39
59.57
57.7
60.9
68.18
77.77
87.7
96.33
102.61
106.08
106.61
104.22
98.97
91.13
81.2
69.99
58.45
47.4
37.36
28.42
20.39
13.05
6.25
0.06
-5.47
-10.45
-15.3
-20.61
-26.92
-34.35
-42.55
-50.77
-58.26
-64.68
-70.36
-76.31
-84.0
-94.88
-110.0
-129.37
-151.52
-173.15
-189.44
-194.95
-185.31
-158.84
-117.64
-67.26
-15.22
31.29
67.29
90.93
103.03
105.75
101.31
91.31
77.0
59.93
42.47
27.72
18.67
17.21
23.4
35.41
50.23
64.68
76.36
84.1
87.8
88.04
85.46
80.46
73.19
63.69
52.26
39.54
26.58
14.59
4.61
-2.87
-8.08
-11.97
-15.84
-20.87
-27.63
-35.83
-44.49
-52.37
-58.51
-62.67
-65.51
-68.43
-73.17
-81.33
-94.02
-111.43
-132.45
-154.45
-173.3
-184.03
-182.02
-164.61
-132.14
-88.35
-39.37
8.05
48.36
78.51
98.06
108.28
111.02
107.88
100.01
88.51
74.93
61.47
50.62
44.52
44.34
49.88
59.68
71.55
83.18
92.71
98.97
101.53
100.47
96.2
89.28
80.3
69.89
58.69
47.38
36.53
26.56
17.67
9.81
2.82
-3.5
-9.3
-14.75
-20.15
-25.85
-32.27
-39.56
-47.55
-55.75
-63.51
-70.44
-76.65
-82.86
-90.29
-100.35
-114.21
-132.26
-153.57
-175.41
-193.37
-202.08
-196.75
-174.85
-137.32
-88.69
-35.85
13.98
55.29
85.35
104.21
113.68
116.02
113.02
105.93
95.78
83.93
72.3
63.08
58.14
58.4
63.49
71.99
81.96
91.51
99.27
104.49
106.89
106.37
102.9
96.58
87.73
77.05
65.54
54.24
43.9
34.81
26.74
19.22
11.92
4.82
-1.77
-7.51
-12.32
-16.62
-21.15
-26.67
-33.54
-41.51
-49.9
-57.89
-65.01
-71.32
-77.54
-84.82
-94.55
-107.97
-125.55
-146.44
-167.88
-185.28
-193.14
-186.63
-163.48
-125.11
-76.57
-25.04
22.32
60.38
86.9
102.26
108.25
106.84
99.44
87.09
71.07
53.55
37.52
26.29
22.34
26.45
37.37
52.24
67.56
80.32
88.73
92.4
91.95
88.32
82.32
74.33
64.49
53.03
40.48
27.8
16.1
6.32
-1.16
-6.69
-11.24
-16.03
-22.03
-29.61
-38.38
-47.33
-55.27
-61.34
-65.41
-68.25
-71.33
-76.4
-85.02
-98.14
-115.78
-136.7
-158.21
-176.26
-186.05
-183.17
-165.04
-132.11
-88.03
-38.85
8.74
49.27
79.66
99.33
109.5
111.98
108.42
100.09
88.21
74.41
60.81
49.82
43.49
42.94
47.98
57.28
68.74
80.18
89.81
96.45
99.58
99.13
95.32
88.57
79.49
68.89
57.65
46.61
36.39
27.24
19.12
11.83
5.1
-1.26
-7.42
-13.55
-19.82
-26.43
-33.46
-40.76
-48.04
-54.88
-60.98
-66.34
-71.42
-77.09
-84.55
-95.04
-109.5
-128.01
-149.27
-170.22
-186.3
-192.26
-183.72
-158.8
-119.1
-69.65
-17.55
30.14
68.31
94.79
110.18
116.62
116.48
111.5
102.76
91.23
78.32
66.06
56.78
52.34
53.5
59.7
69.29
80.16
90.34
98.38
103.44
105.23
103.79
99.34
92.24
82.99
72.27
60.88
49.6
39.04
29.46
20.81
12.81
5.19
-2.13
-9.1
-15.64
-21.81
-27.89
-34.24
-41.05
-48.15
-55.05
-61.2
-66.41
-70.99
-75.82
-82.08
-91.04
-103.68
-120.35
-140.25
-160.94
-178.29
-187.02
-182.26
-161.18
-124.48
-76.55
-24.33
24.73
64.84
93.03
109.18
114.93
112.48
103.68
90.05
73.12
55.02
38.56
26.69
21.73
24.52
34.1
47.97
62.91
75.95
85.1
89.69
90.04
87.06
81.6
74.23
65.14
54.47
42.55
30.13
18.23
7.93
-0.08
-5.77
-9.87
-13.63
-18.35
-24.91
-33.42
-43.15
-52.85
-61.29
-67.71
-72.24
-75.9
-80.31
-87.25
-98.22
-113.96
-134.06
-156.54
-177.77
-192.85
-196.58
-185.03
-157.02
-114.91
-64.21
-12.1
34.62
71.3
96.19
110.03
114.97
113.35
107.03
97.33
85.49
73.07
62.14
54.78
52.6
56.05
64.24
75.22
86.64
96.42
103.25
106.64
106.71
103.8
98.24
90.36
80.64
69.77
58.61
47.96
38.32
29.71
21.86
14.4
7.22
0.44
-5.64
-10.85
-15.39
-19.86
-24.96
-31.18
-38.47
-46.24
-53.66
-60.08
-65.51
-70.76
-77.27
-86.74
-100.52
-119.04
-141.19
-164.03
-182.99
-192.65
-188.17
-166.94
-129.77
-81.05
-27.73
22.67
64.11
93.44
110.5
117.2
116.2
109.79
99.57
86.78
72.81
59.6
49.39
44.16
44.91
51.28
61.68
73.81
85.37
94.57
100.39
102.47
100.94
96.17
88.68
79.07
68.09
56.52
45.11
34.41
24.69
15.91
7.87
0.42
-6.43
-12.48
-17.58
-21.81
-25.61
-29.68
-34.64
-40.7
-47.49
-54.27
-60.36
-65.53
-70.25
-75.61
-82.98
-93.63
-108.27
-126.58
-146.78
-165.31
-177.28
-177.56
-162.47
-131.36
-87.3
-36.5
13.61
56.56
88.42
108.22
117.13
117.16
110.08
97.24
80.0
60.36
41.21
25.93
17.44
17.23
24.83
37.94
53.27
67.53
78.35
84.68
86.65
85.07
80.86
74.65
66.7
57.06
45.89
33.67
21.29
9.76
-0.02
-7.61
-13.22
-17.65
-22.01
-27.34
-34.22
-42.57
-51.67
-60.45
-67.9
-73.51
-77.55
-81.12
-85.81
-93.36
-105.14
-121.74
-142.53
-165.31
-186.31
-200.52
-202.75
-189.18
-158.77
-114.1
-60.98
-6.87
41.19
78.39
102.93
115.73
119.12
115.67
107.46
95.99
82.65
69.16
57.61
50.09
48.06
51.75
60.13
71.19
82.67
92.65
99.97
104.21
105.32
103.44
98.61
90.97
80.91
69.26
57.09
45.5
35.13
26.07
17.88
10.0
2.14
-5.53
-12.52
-18.35
-22.98
-26.9
-30.93
-35.8
-41.78
-48.57
-55.48
-61.88
-67.56
-72.96
-79.11
-87.35
-98.98
-114.77
-134.34
-155.7
-175.05
-187.25
-187.06
-170.82
-138.05
-92.0
-39.02
13.29
58.21
91.61
112.44
122.04
122.89
117.42
107.44
94.29
79.34
64.4
51.73
43.54
41.29
45.17
53.97
65.47
77.19
87.06
93.83
97.09
96.91
93.61
87.49
78.92
68.43
56.82
44.97
33.68
23.46
14.45
6.51
-0.56
-6.99
-12.93
-18.55
-24.06
-29.77
-35.9
-42.45
-49.15
-55.51
-61.07
-65.64
-69.59
-73.85
-79.75
-88.65
-101.59
-118.74
-139.01
-159.74
-176.84
-185.41
-180.98
-160.95
-125.82
-79.44
-28.19
20.81
61.63
90.88
107.97
114.32
112.06
103.17
89.19
71.62
52.55
34.81
21.6
15.51
17.6
26.98
41.09
56.6
70.46
80.64
86.41
87.98
86.09
81.42
74.45
65.43
54.57
42.3
29.39
16.88
5.84
-2.99
-9.52
-14.35
-18.65
-23.66
-30.23
-38.48
-47.74
-56.85
-64.65
-70.51
-74.62
-77.98
-82.13
-88.71
-99.13
-114.11
-133.32
-154.99
-175.73
-190.81
-195.05
-184.33
-157.1
-115.38
-64.56
-11.88
35.59
72.92
98.25
112.42
117.72
116.52
110.53
100.77
88.24
74.46
61.68
52.41
48.56
50.82
58.32
69.01
80.43
90.44
97.66
101.6
102.34
100.21
95.53
88.52
79.41
68.53
56.45
43.95
31.91
21.12
12.08
4.92
-0.66
-5.32
-9.86
-15.06
-21.36
-28.75
-36.69
-44.37
-50.95
-55.96
-59.58
-62.72
-66.83
-73.6
-84.47
-100.19
-120.25
-142.55
-163.28
-177.38
-179.74
-166.72
-137.58
-95.16
-45.32
4.75
48.57
82.03
103.9
115.24
118.13
114.55
105.94
93.42
78.44
63.16
50.23
42.19
40.56
45.32
54.91
66.81
78.37
87.55
93.3
95.53
94.71
91.39
85.88
78.19
68.19
55.97
42.15
27.88
14.63
3.67
-4.42
-9.99
-14.18
-18.43
-23.91
-31.02
-39.33
-47.8
-55.27
-61.01
-64.97
-67.91
-71.23
-76.49
-85.06
-97.75
-114.35
-133.39
-151.96
-165.91
-170.65
-162.38
-139.46
-103.28
-58.27
-10.69
33.08
68.31
92.73
106.39
110.65
107.18
97.38
82.53
64.39
45.56
29.35
18.93
16.37
21.81
33.41
47.99
62.17
73.4
80.49
83.52
83.22
80.32
75.11
67.48
57.32
44.94
31.29
17.84
6.13
-2.87
-9.13
-13.7
-18.23
-24.27
-32.61
-42.8
-53.42
-62.7
-69.39
-73.36
-75.75
-78.58
-84.1
-94.16
-109.68
-130.27
-153.87
-176.7
-193.59
-199.06
-188.9
-161.75
-120.01
-69.41
-17.36
29.16
65.54
90.2
104.11
109.55
108.77
103.35
94.27
82.54
69.72
58.08
50.09
47.67
51.38
60.15
71.64
83.1
92.28
98.02
100.37
100.01
97.69
93.64
87.59
79.06
67.93
54.71
40.68
27.44
16.4
8.27
2.73
-1.38
-5.63
-11.32
-18.98
-28.11
-37.47
-45.67
-51.81
-55.96
-59.17
-63.2
-69.91
-80.81
-96.61
-116.92
-139.96
-162.35
-179.35
-185.74
-177.32
-152.45
-113.07
-64.49
-13.84
31.96
68.18
93.0
107.15
112.67
111.65
105.58
95.46
82.39
68.09
54.92
45.43
41.53
43.84
51.4
62.03
73.09
82.34
88.54
91.5
91.72
89.71
85.6
79.06
69.69
57.53
43.39
28.78
15.38
4.47
-3.6
-9.44
-14.37
-19.81
-26.68
-35.06
-44.16
-52.65
-59.32
-63.61
-66.0
-67.91
-71.32
-78.08
-89.43
-105.48
-125.08
-145.59
-163.1
-172.94
-170.78
-153.98
-122.77
-80.58
-33.27
12.55
51.43
80.29
98.59
107.42
108.39
102.82
91.74
76.42
58.91
42.17
29.51
23.57
25.47
34.32
47.58
61.89
74.23
82.74
86.94
87.4
84.98
80.19
73.02
63.17
50.7
36.44
22.01
9.29
-0.35
-6.71
-10.87
-14.74
-20.18
-28.2
-38.5
-49.7
-59.97
-67.93
-73.23
-76.81
-80.55
-86.65
-96.96
-112.37
-132.37
-154.8
-175.81
-190.41
-193.48
-181.29
-152.9
-110.91
-61.04
-10.5
34.05
68.39
91.31
104.13
109.31
109.07
104.79
97.16
86.97
75.68
65.56
59.09
58.05
62.73
71.8
82.76
92.93
100.28
103.97
104.24
101.91
97.84
92.44
85.65
77.21
66.97
55.3
43.06
31.45
21.56
14.05
8.83
5.04
1.45
-3.16
-9.44
-17.26
-25.83
-34.01
-40.96
-46.45
-51.12
-56.18
-63.11
-73.22
-87.36
-105.64
-127.17
-149.67
-169.39
-181.49
-181.1
-165.03
-133.13
-88.98
-38.95
9.59
50.51
80.53
99.42
109.11
112.16
110.5
105.09
96.39
85.13
72.96
62.29
55.64
54.67
59.5
68.62
79.46
89.34
96.33
99.64
99.56
96.82
92.14
85.84
77.87
68.05
56.47
43.63
30.48
18.14
7.58
-0.72
-6.97
-11.94
-16.73
-22.29
-29.09
-36.91
-44.97
-52.32
-58.23
-62.63
-66.14
-69.91
-75.26
-83.33
-94.89
-110.06
-128.17
-147.28
-164.11
-174.3
-173.37
-158.18
-128.35
-86.88
-39.49
7.04
46.85
76.48
95.19
104.12
105.09
99.67
89.02
74.38
57.67
41.7
29.65
24.12
26.21
35.07
48.18
62.27
74.4
82.75
86.87
87.39
85.28
81.25
75.45
67.57
57.4
45.18
31.86
18.95
7.93
-0.29
-5.76
-9.45
-12.92
-17.6
-24.31
-32.93
-42.51
-51.66
-59.17
-64.51
-68.1
-71.23
-75.69
-83.26
-95.28
-112.17
-133.13
-155.84
-176.43
-189.94
-191.41
-177.33
-147.12
-103.81
-53.42
-3.36
39.83
72.14
92.71
103.15
106.12
104.0
98.27
89.73
79.19
68.06
58.4
52.37
51.51
56.04
64.78
75.62
86.24
94.87
100.57
103.12
102.67
99.37
93.29
84.57
73.69
61.57
49.41
38.27
28.74
20.72
13.65
6.85
-0.0
-6.82
-13.19
-18.72
-23.43
-27.77
-32.48
-38.17
-45.03
-52.68
-60.32
-67.17
-72.89
-77.85
-83.13
-90.29
-100.91
-115.96
-135.18
-156.53
-176.05
-188.42
-188.32
-172.11
-139.45
-93.75
-41.47
9.86
53.72
86.27
106.74
116.64
118.5
114.64
106.72
95.88
83.31
70.6
59.78
52.81
51.01
54.49
62.19
72.22
82.6
91.81
99.02
103.92
106.31
105.83
101.92
94.25
83.14
69.72
55.76
43.02
32.64
24.74
18.5
12.7
6.29
-1.04
-8.84
-16.14
-22.05
-26.24
-29.17
-31.95
-35.81
-41.53
-49.03
-57.51
-65.74
-72.77
-78.39
-83.34
-89.12
-97.54
-110.13
-127.55
-149.03
-171.94
-191.83
-203.13
-200.49
-180.68
-143.97
-94.63
-39.78
12.59
55.98
86.86
104.95
112.13
110.94
103.53
91.41
75.84
58.53
41.97
29.02
22.15
22.57
29.82
41.87
55.88
69.01
79.17
85.31
87.37
85.85
81.44
74.66
65.84
55.27
43.36
30.81
18.55
7.49
-1.7
-8.85
-14.28
-18.72
-23.06
-28.06
-34.16
-41.36
-49.16
-56.75
-63.36
-68.47
-72.21
-75.36
-79.23
-85.42
-95.43
-110.27
-129.92
-152.8
-175.44
-192.77
-199.1
-189.86
-163.26
-121.3
-69.56
-15.57
33.33
71.93
98.14
112.57
117.44
115.23
107.95
97.03
83.74
69.69
56.91
47.58
43.41
45.07
51.91
62.19
73.62
84.05
91.98
96.75
98.38
97.19
93.52
87.56
79.46
69.56
58.42
46.87
35.72
25.57
16.68
9.07
2.59
-2.99
-7.94
-12.67
-17.64
-23.3
-29.8
-36.96
-44.21
-50.94
-56.81
-62.02
-67.32
-73.89
-83.09
-96.03
-113.25
-134.03
-156.02
-175.06
-185.8
-183.08
-163.76
-128.15
-80.33
-27.17
23.78
66.33
97.12
115.7
123.55
122.86
115.49
102.88
86.45
68.13
50.47
36.39
28.29
27.35
33.13
43.68
56.3
68.36
77.97
84.31
87.33
87.41
84.8
79.55
71.54
60.82
47.91
33.83
20.01
7.84
-1.71
-8.49
-13.15
-16.94
-21.19
-26.81
-33.92
-41.85
-49.46
-55.71
-60.14
-63.13
-65.76
-69.43
-75.59
-85.35
-99.26
-117.03
-137.01
-155.92
-169.13
-171.62
-159.59
-132.09
-91.66
-43.9
4.32
46.8
79.52
101.1
112.05
113.71
107.53
94.81
77.14
56.83
36.99
21.06
11.95
11.14
18.24
31.05
46.38
61.04
72.69
80.28
83.91
84.25
81.85
76.86
69.07
58.37
45.15
30.57
16.26
3.83
-5.8
-12.76
-18.22
-23.81
-30.93
-40.03
-50.43
-60.64
-69.07
-74.81
-78.16
-80.53
-84.01
-90.73
-102.28
-119.21
-140.63
-163.98
-185.05
-198.5
-199.1
-183.35
-150.86
-104.92
-51.78
1.12
47.2
82.32
105.2
116.84
119.37
114.9
105.19
91.66
75.95
60.23
47.08
38.96
37.45
42.6
52.89
65.73
78.32
88.48
95.17
98.36
98.6
96.38
91.81
84.68
74.82
62.5
48.69
34.84
22.51
12.78
5.86
1.08
-2.96
-7.74
-14.31
-22.85
-32.61
-42.23
-50.33
-56.15
-59.92
-62.9
-66.99
-74.2
-86.06
-103.08
-124.33
-147.22
-167.56
-180.23
-180.35
-164.82
-133.55
-89.84
-39.66
10.04
53.22
86.12
107.61
118.52
120.63
115.71
105.27
90.74
73.96
57.4
43.77
35.49
33.88
38.72
48.35
60.24
71.85
81.25
87.52
90.48
90.39
87.38
81.35
72.07
59.69
45.01
29.53
15.12
3.3
-5.28
-11.17
-15.77
-20.75
-27.27
-35.44
-44.4
-52.73
-59.27
-63.7
-66.73
-69.93
-75.12
-83.84
-96.8
-113.5
-132.03
-149.1
-160.41
-161.65
-149.7
-123.86
-86.36
-41.97
3.33
43.98
76.17
98.27
110.41
113.63
109.12
98.12
82.18
63.56
45.26
30.61
22.32
21.71
28.31
40.07
54.05
67.46
78.23
85.33
88.55
88.03
83.97
76.46
65.79
52.66
38.38
24.61
12.81
3.68
-3.18
-9.06
-15.5
-23.52
-33.12
-43.33
-52.72
-60.26
-65.84
-70.42
-75.78
-83.91
-96.42
-113.88
-135.34
-157.99
-177.4
-188.25
-185.75
-167.32
-133.64
-88.85
-39.39
7.85
47.47
76.67
95.22
104.6
106.77
103.35
95.5
84.3
71.35
58.92
49.6
45.53
47.56
54.91
65.4
76.33
85.43
91.5
94.5
95.06
93.75
90.66
85.31
77.18
66.19
53.1
39.51
27.21
17.58
10.93
6.44
2.46
-2.7
-10.05
-19.44
-29.71
-39.29
-46.92
-52.32
-56.37
-60.79
-67.49
-78.04
-93.12
-112.25
-133.58
-153.82
-168.58
-173.15
-163.85
-139.45
-101.94
-56.3
-9.11
33.44
67.24
90.86
105.05
111.57
111.98
107.23
97.97
85.3
71.23
58.6
50.26
48.11
52.34
61.37
72.45
82.71
90.08
93.79
94.18
92.07
88.06
82.15
73.88
62.88
49.42
34.72
20.64
8.97
0.62
-4.74
-8.57
-12.7
-18.44
-26.04
-34.57
-42.56
-48.76
-52.87
-55.71
-58.99
-64.62
-74.15
-88.25
-106.42
-126.84
-146.41
-161.01
-166.3
-158.86
-137.37
-103.47
-61.48
-17.28
23.37
56.36
79.95
94.37
100.86
100.7
94.82
84.06
69.8
54.39
40.94
32.5
30.98
36.43
47.02
59.79
71.72
80.66
85.84
87.47
86.21
82.5
76.37
67.55
56.09
42.66
28.66
15.79
5.43
-1.93
-6.97
-11.23
-16.44
-23.68
-32.96
-43.15
-52.69
-60.28
-65.66
-69.71
-74.19
-81.14
-92.2
-108.15
-128.44
-150.92
-171.79
-186.02
-188.48
-175.57
-146.7
-104.95
-56.41
-8.32
33.15
64.44
85.07
96.69
101.7
102.0
98.6
92.03
83.09
73.31
64.95
60.27
60.69
66.19
75.23
85.4
94.31
100.36
103.16
103.21
