0
-12.22
-14.24
-16.2
-18.05
-19.82
-21.67
-23.83
-26.52
-29.79
-33.49
-37.2
-40.3
-42.14
-42.22
-40.32
-36.6
-31.54
-25.79
-20.03
-14.74
-10.16
-6.27
-2.86
0.25
3.21
6.01
8.54
10.69
12.44
13.88
15.18
16.52
17.98
19.5
20.91
22.04
22.82
23.29
23.58
23.78
23.9
23.85
23.51
22.82
21.81
20.64
19.48
18.49
17.7
17.04
16.36
15.5
14.33
12.84
11.14
9.43
7.94
6.83
6.11
5.62
5.11
4.37
3.26
1.81
0.11
-1.75
-3.73
-5.84
-8.06
-10.31
-12.44
-14.35
-16.03
-17.63
-19.37
-21.48
-24.08
-27.18
-30.65
-34.26
-37.64
-40.3
-41.7
-41.36
-39.11
-35.09
-29.87
-24.16
-18.7
-13.97
-10.11
-6.98
-4.31
-1.85
0.54
2.84
4.96
6.76
8.18
9.27
10.19
11.14
12.32
13.79
15.52
17.34
19.05
20.47
21.45
21.94
21.95
21.53
20.8
19.9
18.96
18.11
17.4
16.82
16.31
15.76
15.09
14.28
13.38
12.43
11.51
10.59
9.61
8.48
7.15
5.64
4.02
2.38
0.73
-0.91
-2.59
-4.36
-6.23
-8.16
-10.13
-12.1
-14.03
-15.88
-17.67
-19.46
-21.42
-23.72
-26.47
-29.51
-32.41
-34.55
-35.31
-34.32
-31.6
-27.55
-22.79
-17.91
-13.3
-9.12
-5.37
-1.99
1.04
3.67
5.85
7.61
9.02
10.22
11.33
12.43
13.57
14.8
16.18
17.68
19.22
20.65
21.8
22.59
23.01
23.15
23.09
22.85
22.41
21.72
20.83
19.81
18.73
17.61
16.39
15.04
13.63
12.33
11.32
10.65
10.23
9.83
9.23
8.29
6.99
5.39
3.55
1.55
-0.53
-2.59
-4.56
-6.44
-8.28
-10.21
-12.3
-14.52
-16.75
-18.89
-20.87
-22.72
-24.55
-26.53
-28.82
-31.52
-34.56
-37.68
-40.35
-41.9
-41.72
-39.53
-35.48
-30.15
-24.34
-18.8
-14.0
-10.05
-6.73
-3.75
-0.83
2.12
5.04
7.74
10.08
12.0
13.52
14.79
15.96
17.13
18.37
19.65
20.91
22.03
22.91
23.48
23.74
23.75
23.6
23.33
22.97
22.5
21.88
21.12
20.21
19.21
18.17
17.16
16.2
15.28
14.35
13.35
12.25
11.08
9.94
8.92
8.08
7.36
6.62
5.73
4.63
3.34
1.88
0.3
-1.43
-3.32
-5.38
-7.57
-9.78
-11.94
-13.96
-15.81
-17.5
-19.06
-20.62
-22.34
-24.39
-26.91
-29.88
-33.09
-36.15
-38.54
-39.73
-39.36
-37.31
-33.78
-29.22
-24.23
-19.33
-14.89
-11.02
-7.62
-4.49
-1.49
1.42
4.14
6.54
8.51
10.04
11.22
12.22
13.16
14.16
15.25
16.46
17.79
19.16
20.49
21.62
22.41
22.79
22.74
22.29
21.51
20.45
19.19
17.87
16.69
15.82
15.33
15.15
15.05
14.79
14.22
13.34
12.27
11.15
10.06
8.96
7.78
6.45
4.94
3.28
1.53
-0.2
-1.83
-3.27
-4.54
-5.72
-6.93
-8.33
-9.99
-11.9
-13.99
-16.1
-18.1
-19.91
-21.55
-23.14
-24.87
-26.92
-29.36
-32.05
-34.59
-36.44
-37.01
-35.92
-33.11
-28.91
-23.83
-18.51
-13.48
-9.06
-5.4
-2.44
-0.08
1.82
3.36
4.62
5.66
6.53
7.33
8.18
9.16
10.38
11.82
13.41
15.0
16.42
17.53
18.28
18.69
18.83
18.78
18.57
18.15
17.49
16.55
15.37
14.03
12.68
11.46
10.44
9.63
8.94
8.24
7.4
6.39
5.23
4.03
2.88
1.84
0.86
-0.16
-1.33
-2.75
-4.44
-6.33
-8.3
-10.2
-11.91
-13.41
-14.79
-16.21
-17.9
-20.05
-22.72
-25.84
-29.14
-32.18
-34.47
-35.5
-34.93
-32.64
-28.82
-23.91
-18.55
-13.35
-8.79
-5.05
-2.09
0.35
2.48
4.42
6.16
7.62
8.75
9.65
10.47
11.43
12.61
14.02
15.51
16.94
18.23
19.36
20.36
21.24
21.94
22.34
22.31
21.73
20.57
18.9
16.92
14.91
13.18
11.93
11.22
10.89
10.66
10.24
9.37
7.96
6.09
3.97
1.86
-0.01
-1.55
-2.79
-3.91
-5.11
-6.55
-8.25
-10.19
-12.27
-14.47
-16.74
-19.13
-21.67
-24.4
-27.34
-30.5
-33.78
-36.92
-39.47
-40.87
-40.63
-38.47
-34.51
-29.2
-23.28
-17.51
-12.47
-8.43
-5.31
-2.79
-0.51
1.77
4.07
6.23
8.1
9.6
10.83
11.99
13.28
14.8
16.51
18.31
20.04
21.58
22.84
23.77
24.34
24.59
24.55
24.29
23.82
23.1
22.12
20.9
19.55
18.22
17.08
16.18
15.48
14.81
13.98
12.83
11.32
9.53
7.62
5.79
4.16
2.75
1.47
0.14
-1.4
-3.27
-5.47
-7.89
-10.42
-12.93
-15.36
-17.73
-20.1
-22.61
-25.38
-28.5
-31.96
-35.54
-38.82
-41.23
-42.17
-41.2
-38.23
-33.57
-27.86
-21.89
-16.3
-11.48
-7.44
-4.0
-0.89
2.05
4.84
7.42
9.67
11.52
13.01
14.21
15.25
16.24
17.28
18.4
19.62
20.9
22.15
23.29
24.2
24.77
24.89
24.49
23.57
22.23
20.68
19.17
17.91
17.02
16.4
15.89
15.25
14.35
13.14
11.68
10.04
8.32
6.57
4.82
3.12
1.48
-0.12
-1.73
-3.41
-5.16
-6.98
-8.82
-10.69
-12.6
-14.6
-16.71
-18.91
-21.24
-23.8
-26.66
-29.73
-32.67
-34.85
-35.57
-34.34
-31.13
-26.41
-20.93
-15.46
-10.49
-6.14
-2.32
1.12
4.19
6.77
8.68
9.88
10.49
10.86
11.35
12.27
13.66
15.41
17.27
19.04
20.62
21.98
23.1
23.9
24.25
24.09
23.45
22.5
21.46
20.44
19.41
18.24
16.8
15.1
13.26
11.48
9.93
8.64
7.54
6.46
5.22
3.67
1.8
-0.33
-2.54
-4.69
-6.72
-8.71
-10.82
-13.18
-15.85
-18.79
-21.93
-25.17
-28.42
-31.48
-34.01
-35.53
-35.54
-33.71
-30.04
-24.93
-19.05
-13.1
-7.66
-2.97
0.96
4.31
7.26
9.9
12.19
14.05
15.45
16.47
17.31
18.18
19.23
20.51
21.92
23.31
24.5
25.39
25.95
26.2
26.19
25.97
25.54
24.85
23.85
22.54
21.0
19.41
17.93
16.64
15.53
14.43
13.16
11.63
9.87
8.05
6.38
5.01
3.91
2.89
1.69
0.04
-2.14
-4.76
-7.58
-10.35
-12.94
-15.38
-17.82
-20.4
-23.19
-26.22
-29.43
-32.77
-36.15
-39.35
-41.98
-43.47
-43.3
-41.13
-37.04
-31.51
-25.3
-19.22
-13.83
-9.39
-5.74
-2.58
0.44
3.53
6.63
9.52
11.96
13.81
15.15
16.2
17.28
18.58
20.16
21.87
23.47
24.74
25.58
26.01
26.13
26.03
25.74
25.18
24.31
23.11
21.74
20.39
19.23
18.31
17.56
16.79
15.85
14.61
13.05
11.22
9.21
7.16
5.24
3.58
2.21
1.04
-0.15
-1.62
-3.54
-5.9
-8.56
-11.23
-13.71
-15.86
-17.69
-19.37
-21.13
-23.26
-25.99
-29.4
-33.28
-37.12
-40.2
-41.73
-41.16
-38.33
-33.6
-27.72
-21.56
-15.86
-11.0
-7.0
-3.63
-0.65
2.06
4.43
6.35
7.75
8.75
9.6
10.58
11.88
13.5
15.33
17.17
18.84
20.26
21.43
22.36
23.04
23.43
23.43
23.03
22.27
21.26
20.14
19.01
17.91
16.84
15.8
14.84
13.98
13.21
12.4
11.41
10.13
8.57
6.9
5.32
3.98
2.87
1.88
0.79
-0.55
-2.19
-4.06
-6.05
-8.0
-9.84
-11.49
-12.97
-14.36
-15.83
-17.6
-19.88
-22.74
-26.07
-29.52
-32.54
-34.52
-34.94
-33.51
-30.27
-25.58
-20.07
-14.37
-9.06
-4.47
-0.7
2.27
4.52
6.13
7.17
7.76
8.08
8.35
8.82
9.63
10.85
12.41
14.18
15.95
17.53
18.77
19.59
20.02
20.11
19.96
19.61
19.03
18.19
17.08
15.77
14.37
13.01
11.77
10.62
9.49
8.28
6.95
5.54
4.14
2.84
1.71
0.67
-0.39
-1.68
-3.32
-5.34
-7.61
-9.94
-12.14
-14.12
-15.95
-17.79
-19.82
-22.22
-25.06
-28.25
-31.51
-34.41
-36.34
-36.75
-35.32
-32.05
-27.34
-21.8
-16.11
-10.78
-6.14
-2.31
0.75
3.15
5.06
6.69
8.2
9.7
11.23
12.76
14.28
15.86
17.56
19.41
21.34
23.14
24.55
25.39
25.61
25.31
24.65
23.84
23.01
22.2
21.39
20.52
19.56
18.54
17.53
16.64
15.93
15.34
14.75
13.96
12.83
11.3
9.46
7.49
5.6
3.96
2.6
1.47
0.37
-0.89
-2.51
-4.57
-7.01
-9.7
-12.47
-15.16
-17.67
-20.0
-22.22
-24.49
-27.02
-29.96
-33.29
-36.73
-39.77
-41.78
-42.22
-40.82
-37.63
-33.05
-27.6
-21.87
-16.37
-11.47
-7.36
-4.04
-1.38
0.84
2.82
4.71
6.55
8.36
10.17
12.0
13.9
15.82
17.68
19.33
20.68
21.68
22.41
23.0
23.56
24.09
24.48
24.55
24.12
23.16
21.79
20.24
18.79
17.61
16.7
15.92
15.07
14.05
12.87
11.64
10.49
9.49
8.59
7.66
6.55
5.14
3.42
1.48
-0.55
-2.51
-4.32
-6.03
-7.74
-9.6
-11.7
-13.98
-16.28
-18.38
-20.16
-21.63
-22.99
-24.55
-26.62
-29.34
-32.56
-35.88
-38.67
-40.29
-40.28
-38.46
-35.02
-30.46
-25.38
-20.38
-15.87
-12.01
-8.71
-5.78
-3.02
-0.36
2.16
4.4
6.22
7.59
8.65
9.57
10.55
11.71
13.08
14.59
16.14
17.62
18.93
19.98
20.73
21.13
21.13
20.7
19.84
18.61
17.15
15.65
14.33
13.33
12.64
12.1
11.52
10.73
9.69
8.49
7.28
6.17
5.15
4.12
2.92
1.4
-0.46
-2.61
-4.94
-7.33
-9.74
-12.11
-14.4
-16.55
-18.5
-20.25
-21.95
-23.87
-26.23
-29.07
-32.09
-34.7
-36.2
-36.03
-34.01
-30.35
-25.59
-20.34
-15.11
-10.22
-5.8
-1.93
1.38
4.08
6.18
7.77
9.04
10.2
11.45
12.84
14.33
15.82
17.23
18.55
19.8
21.01
22.13
23.09
23.81
24.26
24.43
24.32
23.91
23.15
22.02
20.52
18.79
17.01
15.35
13.92
12.72
11.66
10.6
9.44
8.12
6.63
5.04
3.41
1.81
0.27
-1.24
-2.85
-4.65
-6.72
-9.04
-11.51
-13.95
-16.26
-18.4
-20.52
-22.82
-25.5
-28.65
-32.15
-35.68
-38.75
-40.79
-41.31
-40.02
-36.92
-32.35
-26.88
-21.17
-15.74
-10.88
-6.62
-2.8
0.71
3.99
7.0
9.68
11.96
13.88
15.49
16.9
18.17
19.38
20.55
21.76
23.04
24.39
25.71
26.86
27.67
27.97
27.69
26.83
25.5
23.87
22.14
20.51
19.1
17.96
17.03
16.17
15.21
14.02
12.51
10.68
8.61
6.43
4.29
2.37
0.8
-0.39
-1.27
-2.04
-2.95
-4.26
-6.13
-8.52
-11.23
-13.96
-16.47
-18.63
-20.58
-22.6
-24.99
-27.97
-31.51
-35.28
-38.75
-41.26
-42.2
-41.23
-38.34
-33.89
-28.52
-22.93
-17.7
-13.14
-9.28
-5.98
-3.09
-0.5
1.75
3.59
4.95
5.88
6.57
7.3
8.33
9.81
11.68
13.68
15.49
16.84
17.64
18.02
18.16
18.21
18.17
17.96
17.44
16.65
15.74
14.91
14.33
14.0
13.83
13.64
13.34
12.88
12.3
11.64
10.94
10.21
9.49
8.76
7.95
6.92
5.54
3.74
1.55
-0.83
-3.14
-5.19
-6.94
-8.57
-10.39
-12.74
-15.83
-19.66
-23.89
-27.95
-31.14
-32.87
-32.81
-30.96
-27.65
-23.37
-18.64
-13.91
-9.51
-5.64
-2.44
0.05
1.83
3.0
3.71
4.15
4.52
5.0
5.73
6.82
8.3
10.09
12.03
13.91
15.51
16.66
17.32
17.51
17.34
16.91
16.28
15.5
14.57
13.53
12.45
11.39
10.38
9.45
8.61
7.85
7.13
6.35
5.37
4.04
2.26
0.09
-2.32
-4.74
-7.04
-9.18
-11.28
-13.46
-15.83
-18.45
-21.36
-24.6
-28.15
-31.85
-35.29
-37.86
-38.95
-38.09
-35.24
-30.76
-25.32
-19.66
-14.32
-9.59
-5.5
-1.95
1.17
3.88
6.17
8.02
9.47
10.64
11.69
12.77
13.98
15.35
16.86
18.47
20.1
21.65
22.99
23.97
24.48
24.52
24.13
23.45
22.59
21.6
20.52
19.37
18.16
16.94
15.71
14.47
13.19
11.83
10.38
8.88
7.31
5.63
3.77
1.65
-0.75
-3.37
-6.06
-8.66
-11.07
-13.35
-15.72
-18.42
-21.7
-25.62
-30.08
-34.8
-39.41
-43.49
-46.6
-48.3
-48.18
-45.99
-41.8
-36.04
-29.4
-22.71
-16.57
-11.3
-6.85
-2.98
0.55
3.87
6.99
9.83
12.36
14.56
16.51
18.27
19.91
21.44
22.87
24.18
25.36
26.4
27.27
27.87
28.11
27.86
27.07
25.77
24.14
22.36
20.62
19.04
17.65
16.45
15.38
14.36
13.25
11.93
10.28
8.28
6.0
3.59
1.18
-1.12
-3.28
-5.32
-7.27
-9.19
-11.13
-13.15
-15.34
-17.8
-20.65
-23.92
-27.52
-31.15
-34.28
-36.29
-36.57
-34.83
-31.22
-26.25
-20.66
-15.13
-10.06
-5.55
-1.53
2.05
5.18
7.72
9.61
10.86
11.69
12.4
13.29
14.52
16.06
17.76
19.41
20.84
22.0
22.92
23.7
24.35
24.8
24.89
24.46
23.45
21.94
20.08
18.1
16.19
14.44
12.89
11.55
10.39
9.34
8.29
7.08
5.57
3.71
1.6
-0.59
-2.68
-4.6
-6.43
-8.35
-10.54
-13.15
-16.22
-19.75
-23.63
-27.64
-31.39
-34.31
-35.77
-35.28
-32.69
-28.31
-22.82
-17.01
-11.55
-6.8
-2.78
0.69
3.81
6.67
9.21
11.35
13.06
14.41
15.57
16.72
17.99
19.41
20.92
22.46
24.02
25.57
27.05
28.33
29.23
29.56
29.21
28.21
26.7
24.86
22.87
20.89
19.02
17.34
15.84
14.52
13.29
12.05
10.71
9.24
7.6
5.83
3.97
2.09
0.26
-1.5
-3.22
-5.02
-7.03
-9.34
-11.89
-14.53
-17.07
-19.36
-21.43
-23.47
-25.75
-28.53
-31.91
-35.77
-39.73
-43.2
-45.5
-45.99
-44.34
-40.61
-35.3
-29.13
-22.85
-17.0
-11.81
-7.26
-3.21
0.48
3.9
7.04
9.89
12.41
14.57
16.38
17.91
19.22
20.41
21.55
22.68
23.81
24.94
26.07
27.19
28.22
28.99
29.31
29.03
28.17
26.89
25.46
24.16
23.15
22.44
21.92
21.39
20.64
19.54
18.02
16.15
14.09
12.04
10.17
8.57
7.21
6.0
4.77
3.44
1.95
0.3
-1.5
-3.45
-5.58
-7.92
-10.45
-13.11
-15.74
-18.24
-20.53
-22.66
-24.75
-26.93
-29.34
-32.05
-35.08
-38.41
-41.89
-45.17
-47.74
-48.97
-48.32
-45.55
-40.82
-34.71
-27.96
-21.35
-15.39
-10.34
-6.2
-2.78
0.15
2.74
5.07
7.15
8.98
10.6
12.17
13.83
15.68
17.67
19.67
21.49
23.07
24.37
25.46
26.33
26.91
27.05
26.66
25.73
24.39
22.85
21.33
19.98
18.84
17.89
17.05
16.24
15.41
14.55
13.67
12.76
11.78
10.67
9.37
7.86
6.19
4.47
2.78
1.16
-0.46
-2.18
-4.1
-6.23
-8.52
-10.84
-13.04
-15.06
-16.91
-18.72
-20.67
-22.89
-25.46
-28.34
-31.46
-34.61
-37.49
-39.71
-40.77
-40.27
-38.0
-34.1
-29.04
-23.44
-17.93
-12.92
-8.59
-4.94
-1.9
0.64
2.72
4.42
5.8
6.96
7.98
8.98
10.04
11.27
12.71
14.4
16.27
18.19
19.97
21.39
22.27
22.5
22.11
21.24
20.09
18.83
17.55
16.27
14.95
13.56
12.14
10.77
9.5
8.34
7.23
6.12
4.98
3.82
2.68
1.51
0.22
-1.32
-3.18
-5.32
-7.65
-10.01
-12.28
-14.4
-16.42
-18.43
-20.61
-23.08
-25.9
-28.93
-31.84
-34.08
-35.07
-34.35
-31.77
-27.54
-22.23
-16.53
-11.12
-6.39
-2.47
0.75
3.44
5.79
7.8
9.43
10.62
11.44
12.04
12.66
13.53
14.77
16.31
18.03
19.72
21.22
22.43
23.32
23.85
23.98
23.67
22.87
21.62
20.01
18.22
16.43
14.78
13.33
12.07
10.92
9.79
8.57
7.18
5.59
3.83
1.96
0.03
-1.89
-3.84
-5.82
-7.85
-9.88
-11.82
-13.64
-15.39
-17.26
-19.5
-22.27
-25.65
-29.48
-33.5
-37.28
-40.38
-42.29
-42.58
-40.98
-37.5
-32.49
-26.54
-20.39
-14.67
-9.77
-5.78
-2.55
0.18
2.67
5.05
7.33
9.43
11.3
12.97
14.56
16.17
17.86
19.55
21.11
22.4
23.36
23.99
24.37
24.57
24.59
24.43
24.03
23.38
22.47
21.37
20.19
19.05
18.07
17.28
16.61
15.9
15.01
13.89
12.54
11.04
9.48
7.9
6.33
4.78
3.23
1.63
-0.1
-2.08
-4.39
-7.03
-9.9
-12.85
-15.74
-18.45
-20.95
-23.31
-25.66
-28.19
-31.05
-34.24
-37.57
-40.58
-42.72
-43.46
-42.47
-39.68
-35.32
-29.83
-23.78
-17.75
-12.27
-7.64
-3.91
-0.9
1.72
4.18
6.59
8.87
10.91
12.71
14.38
16.12
18.04
20.05
21.93
23.44
24.48
25.14
25.61
26.06
26.53
26.86
26.79
26.14
24.86
23.09
21.07
19.08
17.28
15.66
14.15
12.55
10.67
8.42
5.81
3.0
0.23
-2.27
-4.35
-5.96
-7.19
-8.18
-9.09
-10.02
-11.02
-12.07
-13.17
-14.32
-15.53
-16.83
-18.25
-19.86
-21.79
-24.23
-27.39
-31.34
-35.96
-40.75
-44.98
-47.71
-48.16
-45.91
-41.08
-34.39
-26.87
-19.54
-13.12
-7.89
-3.67
-0.15
2.97
5.78
8.21
10.1
11.42
12.25
12.82
13.38
14.11
15.08
16.23
17.44
18.58
19.54
20.24
20.61
20.61
20.22
19.42
18.28
16.91
15.47
14.16
13.13
12.42
11.97
11.62
11.22
10.66
9.92
9.06
8.16
7.22
6.19
4.96
3.45
1.64
-0.38
-2.5
-4.6
-6.64
-8.66
-10.79
-13.18
-15.94
-19.13
-22.71
-26.47
-30.07
-33.05
-34.84
-34.98
-33.18
-29.49
-24.31
-18.29
-12.21
-6.71
-2.14
1.48
4.41
6.96
9.36
11.61
13.59
15.18
16.34
17.21
18.0
18.89
19.98
21.25
22.62
23.98
25.23
26.27
26.97
27.26
27.06
26.42
25.39
24.13
22.81
21.56
20.49
19.62
18.89
18.13
17.14
15.74
13.92
11.81
9.62
7.59
5.85
4.42
3.21
2.04
0.74
-0.86
-2.84
-5.2
-7.82
-10.53
-13.15
-15.6
-17.91
-20.24
-22.78
-25.68
-28.93
-32.31
-35.38
-37.58
-38.37
-37.38
-34.5
-30.03
-24.52
-18.65
-13.05
-8.13
-4.02
-0.64
2.22
4.78
7.12
9.24
11.06
12.55
13.8
15.0
16.37
18.04
19.98
21.99
23.81
25.23
26.17
26.67
26.82
26.71
26.36
25.75
24.87
23.73
22.43
21.12
19.89
18.83
17.89
17.01
16.04
14.88
13.5
11.91
10.19
8.42
6.67
5.01
3.53
2.24
1.06
-0.16
-1.65
-3.53
-5.8
-8.27
-10.69
-12.89
-14.88
-16.85
-19.09
-21.78
-24.98
-28.44
-31.78
-34.47
-36.02
-36.08
-34.49
-31.37
-27.05
-22.04
-16.85
-11.92
-7.5
-3.66
-0.37
2.45
4.85
6.8
8.27
9.31
10.05
10.77
11.7
12.98
14.51
16.07
17.39
18.34
18.98
19.47
19.98
20.53
20.96
21.05
20.59
19.55
18.09
16.49
15.0
13.83
12.98
12.33
11.69
10.9
9.91
8.77
7.57
6.42
5.34
4.31
3.25
2.1
0.81
-0.65
-2.29
-4.07
-5.94
-7.8
-9.55
-11.17
-12.73
-14.44
-16.54
-19.17
-22.25
-25.42
-28.08
-29.57
-29.39
-27.34
-23.64
-18.78
-13.43
-8.18
-3.45
0.56
3.75
6.13
7.7
8.53
8.78
8.69
8.56
8.6
8.9
9.44
10.13
10.92
11.84
12.97
14.33
15.86
17.32
18.39
18.83
18.52
17.54
16.11
14.49
12.93
11.56
10.42
9.47
8.64
7.82
6.93
5.9
4.7
3.36
1.94
0.51
-0.91
-2.35
-3.87
-5.54
-7.39
-9.45
-11.66
-13.99
-16.37
-18.73
-21.1
-23.57
-26.31
-29.42
-32.87
-36.34
-39.23
-40.86
-40.68
-38.46
-34.42
-29.08
-23.14
-17.22
-11.78
-7.09
-3.21
-0.08
2.44
4.54
6.42
8.21
10.0
11.83
13.66
15.46
17.17
18.72
20.05
21.11
21.9
22.45
22.83
23.09
23.28
23.37
23.26
22.87
22.11
20.97
19.55
18.0
16.5
15.18
14.06
13.04
12.0
10.84
9.51
8.07
6.59
5.13
3.72
2.33
0.95
-0.49
-2.01
-3.7
-5.61
-7.76
-10.1
-12.52
-14.88
-17.11
-19.23
-21.35
-23.66
-26.32
-29.42
-32.84
-36.25
-39.1
-40.76
-40.71
-38.69
-34.88
-29.81
-24.22
-18.79
-13.91
-9.71
-6.04
-2.74
0.3
3.08
5.57
7.75
9.65
11.34
12.87
14.29
15.62
16.93
18.25
19.64
21.05
22.39
23.52
24.33
24.76
24.8
24.43
23.67
22.53
21.11
19.55
18.02
16.66
15.53
14.58
13.68
12.73
11.61
10.25
8.63
6.76
4.76
2.82
1.14
-0.16
-1.11
-1.92
-2.87
-4.17
-5.89
-7.97
-10.2
-12.41
-14.49
-16.44
-18.31
-20.21
-22.28
-24.7
-27.59
-30.92
-34.36
-37.33
-39.11
-39.11
-37.08
-33.25
-28.22
-22.66
-17.19
-12.13
-7.65
-3.79
-0.56
1.99
3.94
5.41
6.64
7.8
8.99
10.17
11.29
12.32
13.34
14.47
15.78
17.22
18.66
19.88
20.68
20.93
20.6
19.76
18.57
17.25
15.96
14.8
13.71
12.59
11.31
9.82
8.2
6.58
5.11
3.86
2.84
1.96
1.14
0.23
-0.93
-2.45
-4.39
-6.66
-9.05
-11.33
-13.33
-15.03
-16.63
-18.44
-20.73
-23.66
-27.1
-30.7
-33.86
-35.92
-36.35
-34.85
-31.53
-26.81
-21.37
-15.89
-10.87
-6.57
-2.96
0.15
2.93
5.47
7.76
9.68
11.16
12.26
13.17
14.14
15.39
16.95
18.66
20.22
21.35
21.95
22.14
22.2
22.34
22.63
22.9
22.85
22.18
20.82
18.95
16.92
15.12
13.79
12.94
12.38
11.8
10.94
9.69
8.07
6.27
4.48
2.85
1.39
-0.04
-1.62
-3.49
-5.69
-8.15
-10.72
-13.22
-15.55
-17.72
-19.86
-22.18
-24.91
-28.19
-31.97
-35.92
-39.52
-42.09
-43.03
-42.01
-39.08
-34.71
-29.58
-24.43
-19.83
-16.06
-13.15
-10.91
-9.11
-7.49
-5.85
-4.04
-2.04
0.13
2.34
4.48
6.54
8.58
10.74
13.13
15.69
18.23
20.46
22.21
23.42
24.2
24.67
24.91
24.89
24.52
23.82
22.9
21.98
21.25
20.79
20.53
20.27
19.82
19.05
17.94
16.58
15.07
13.54
12.12
10.86
9.79
8.86
7.92
6.78
5.29
3.36
1.02
-1.59
-4.24
-6.77
-9.06
-11.1
-13.04
-15.15
-17.74
-21.11
-25.37
-30.37
-35.64
-40.41
-43.88
-45.45
-44.87
-42.37
-38.5
-33.9
-29.1
-24.41
-19.96
-15.84
-12.21
-9.27
-7.18
-5.96
-5.44
-5.33
-5.39
-5.43
-5.41
-5.3
-5.08
-4.74
-4.26
-3.7
-3.14
-2.54
-1.74
-0.35
2.11
6.1
11.86
19.26
27.83
36.78
45.23
52.37
57.7
60.97
62.31
61.99
60.35
57.71
54.39
50.72
46.96
43.31
39.76
36.15
32.21
27.79
22.96
18.08
13.66
10.14
7.78
6.44
5.75
5.15
4.1
2.28
-0.38
-3.61
-6.91
-9.63
-11.18
-11.22
-9.81
-7.36
-4.45
-1.65
0.76
2.76
4.51
6.11
7.54
8.56
8.93
8.5
7.38
5.86
4.3
2.95
1.94
1.27
0.89
0.69
0.54
0.3
-0.22
-1.12
-2.45
-4.14
-6.02
-7.89
-9.57
-11.0
-12.2
-13.28
-14.44
-15.81
-17.44
-19.23
-21.02
-22.65
-24.06
-25.42
-26.97
-28.96
-31.38
-33.97
-36.26
-37.84
-38.57
-38.71
-38.82
-39.48
-41.06
-43.55
-46.53
-49.39
-51.44
-52.18
-51.31
-48.75
-44.59
-39.05
-32.44
-25.22
-17.9
-10.99
-4.88
0.22
4.35
7.74
10.73
13.57
16.39
19.16
21.71
23.87
25.55
26.79
27.67
28.34
28.93
29.57
30.31
31.15
31.98
32.61
32.8
32.36
31.24
29.57
27.63
25.74
24.1
22.71
21.39
19.89
18.06
15.91
13.59
11.32
9.23
7.3
5.36
3.22
0.8
-1.88
-4.66
-7.34
-9.84
-12.17
-14.45
-16.79
-19.25
-21.9
-24.75
-27.86
-31.23
-34.73
-37.95
-40.31
-41.2
-40.22
-37.34
-32.97
-27.78
-22.42
-17.41
-12.97
-9.08
-5.62
-2.44
0.49
3.14
5.43
7.36
9.0
10.54
12.22
14.16
16.34
18.56
20.54
22.04
23.0
23.49
23.67
23.69
23.56
23.19
22.46
21.33
19.84
18.22
16.69
15.48
14.66
14.15
13.74
13.17
12.24
10.88
9.18
7.34
5.59
4.09
2.84
1.67
0.33
-1.38
-3.56
-6.11
-8.8
-11.36
-13.6
-15.49
-17.19
-18.98
-21.13
-23.82
-26.96
-30.24
-33.12
-34.95
-35.21
-33.63
-30.35
-25.84
-20.74
-15.65
-10.94
-6.77
-3.08
0.2
3.08
5.51
7.4
8.75
9.69
10.44
11.21
12.19
13.44
14.92
16.54
18.19
19.76
21.16
22.3
23.06
23.38
23.25
22.72
21.91
20.99
20.05
19.14
18.23
17.26
16.17
14.95
13.61
12.17
10.67
9.13
7.57
6.01
4.47
2.93
1.37
-0.25
-1.98
-3.89
-6.0
-8.3
-10.75
-13.23
-15.66
-18.04
-20.44
-22.98
-25.72
-28.55
-31.13
-32.94
-33.46
-32.32
-29.48
-25.25
-20.15
-14.73
-9.48
-4.72
-0.56
2.98
5.98
8.49
10.58
12.31
13.73
14.92
15.99
17.01
18.04
19.09
20.16
21.22
22.26
23.26
24.15
24.83
25.17
25.03
24.37
23.22
21.69
19.95
18.14
16.43
14.9
13.6
12.47
11.4
10.22
8.82
7.13
5.22
3.19
1.16
-0.78
-2.68
-4.58
-6.59
-8.76
-11.11
-13.58
-16.09
-18.55
-20.96
-23.39
-25.96
-28.83
-32.06
-35.52
-38.88
-41.59
-43.05
-42.78
-40.56
-36.56
-31.23
-25.25
-19.25
-13.69
-8.74
-4.35
-0.36
3.39
6.9
10.09
12.78
14.85
16.31
17.34
18.25
19.33
20.71
22.35
23.99
25.38
26.33
26.83
27.02
27.02
26.92
26.69
26.22
25.44
24.29
22.83
21.14
19.35
17.57
15.91
14.44
13.18
12.08
11.05
9.94
8.7
7.3
5.81
4.31
2.82
1.29
-0.41
-2.4
-4.69
-7.18
-9.63
-11.78
-13.52
-14.91
-16.22
-17.76
-19.81
-22.44
-25.62
-29.19
-32.91
-36.48
-39.43
-41.22
-41.35
-39.6
-36.1
-31.35
-26.0
-20.65
-15.7
-11.27
-7.34
-3.81
-0.61
2.29
4.9
7.23
9.27
11.07
12.69
14.25
15.81
17.43
18.98
20.3
21.21
21.62
21.64
21.47
21.33
21.31
21.37
21.34
21.03
20.36
19.4
18.29
17.22
16.32
15.6
14.98
14.3
13.45
12.38
11.11
9.73
8.33
6.97
5.67
4.37
3.0
1.48
-0.22
-2.05
-3.98
-5.94
-7.91
-9.92
-11.99
-14.13
-16.33
-18.62
-21.04
-23.69
-26.58
-29.56
-32.26
-34.16
-34.7
-33.57
-30.73
-26.52
-21.48
-16.18
-11.15
-6.7
-2.98
0.01
2.35
4.17
5.62
6.8
7.85
8.88
10.02
11.38
12.99
14.78
16.57
18.15
19.35
20.16
20.67
21.0
21.2
21.18
20.77
19.83
18.36
16.55
14.72
13.19
12.11
11.46
11.01
10.5
9.69
8.5
7.01
5.37
3.74
2.22
0.8
-0.63
-2.19
-3.94
-5.88
-7.9
-9.93
-11.93
-13.91
-15.92
-17.97
-20.05
-22.18
-24.49
-27.14
-30.25
-33.75
-37.22
-39.95
-41.14
-40.21
-37.02
-32.01
-25.99
-19.89
-14.42
-9.89
-6.22
-3.08
-0.14
2.79
5.68
8.32
10.53
12.22
13.48
14.56
15.7
17.08
18.71
20.43
22.0
23.19
23.89
24.11
23.97
23.6
23.08
22.44
21.6
20.55
19.34
18.08
16.93
15.98
15.2
14.47
13.62
12.51
11.14
9.59
8.0
6.49
5.1
3.84
2.65
1.47
0.2
-1.25
-2.95
-4.92
-7.08
-9.27
-11.37
-13.34
-15.24
-17.22
-19.43
-21.98
-24.91
-28.18
-31.69
-35.21
-38.37
-40.68
-41.61
-40.78
-38.17
-34.08
-29.12
-24.0
-19.26
-15.14
-11.61
-8.43
-5.32
-2.16
0.99
3.96
6.53
8.62
10.28
11.73
13.18
14.78
16.53
18.29
19.89
21.19
22.15
22.8
23.2
23.39
23.3
22.84
21.95
20.64
19.07
17.46
16.06
15.03
14.38
13.96
13.51
12.8
11.71
10.26
8.59
6.93
5.45
4.22
3.2
2.22
1.09
-0.35
-2.16
-4.29
-6.56
-8.77
-10.72
-12.3
-13.56
-14.72
-16.12
-18.1
-20.84
-24.24
-27.88
-31.14
-33.31
-33.91
-32.7
-29.84
-25.69
-20.8
-15.68
-10.8
-6.49
-2.93
-0.15
1.92
3.45
4.62
5.6
6.53
7.53
8.64
9.88
11.2
12.53
13.81
15.01
16.14
17.24
18.31
19.26
19.96
20.27
20.08
19.38
18.22
16.77
15.2
13.66
12.25
10.96
9.72
8.39
6.94
5.37
3.81
2.36
1.08
-0.14
-1.49
-3.2
-5.36
-7.9
-10.61
-13.24
-15.62
-17.75
-19.82
-22.08
-24.8
-28.04
-31.61
-35.05
-37.73
-39.03
-38.52
-36.1
-32.05
-26.9
-21.3
-15.79
-10.74
-6.26
-2.34
1.1
4.09
6.62
8.69
10.35
11.73
12.98
14.24
15.55
16.88
18.16
19.29
20.22
20.92
21.39
21.62
21.65
21.5
21.26
20.97
20.64
20.2
19.52
18.48
17.06
15.32
13.38
11.41
9.51
7.72
5.99
4.3
2.66
1.12
-0.3
-1.63
-2.96
-4.45
-6.18
-8.19
-10.39
-12.72
-15.16
-17.78
-20.7
-24.0
-27.54
-30.99
-33.81
-35.42
-35.4
-33.59
-30.18
-25.6
-20.42
-15.15
-10.2
-5.77
-1.95
1.26
3.88
5.96
7.58
8.85
9.9
10.89
11.94
13.17
14.65
16.36
18.21
20.02
21.55
22.6
23.08
22.99
22.42
21.55
20.53
19.52
18.57
17.7
16.83
15.82
14.57
13.06
11.35
9.6
7.92
6.36
4.84
3.24
1.47
-0.53
-2.73
-5.08
-7.53
-10.03
-12.51
-14.86
-17.03
-19.06
-21.14
-23.55
-26.57
-30.24
-34.27
-38.0
-40.59
-41.35
-39.91
-36.43
-31.42
-25.64
-19.75
-14.23
-9.31
-5.06
-1.42
1.69
4.38
6.78
8.96
10.98
12.8
14.4
15.75
16.92
17.99
19.1
20.33
21.72
23.21
24.69
25.98
26.9
27.29
27.05
26.2
24.89
23.35
21.82
20.45
19.28
18.17
16.93
15.38
13.47
11.36
9.26
7.38
5.8
4.42
3.01
1.41
-0.48
-2.6
-4.87
-7.19
-9.49
-11.76
-14.0
-16.24
-18.6
-21.25
-24.37
-28.02
-31.98
-35.77
-38.67
-40.01
-39.32
-36.59
-32.19
-26.75
-20.96
-15.37
-10.26
-5.72
-1.72
1.81
4.83
7.26
9.03
10.21
10.99
11.69
12.59
13.88
15.55
17.42
19.22
20.7
21.73
22.34
22.61
22.62
22.41
21.95
21.17
20.04
18.61
16.98
15.26
13.49
11.67
9.74
7.66
5.45
3.21
1.03
-1.03
-2.96
-4.84
-6.75
-8.81
-11.12
-13.76
-16.79
-20.19
-23.82
-27.39
-30.44
-32.44
-32.92
-31.62
-28.61
-24.31
-19.35
-14.33
-9.71
-5.65
-2.09
1.13
4.11
6.85
9.21
11.06
12.34
13.14
13.66
14.19
14.97
16.12
17.62
19.24
20.73
21.84
22.45
22.54
22.18
21.4
20.24
18.67
16.74
14.55
12.3
10.16
8.22
6.49
4.87
3.23
1.47
-0.47
-2.58
-4.82
-7.15
-9.51
-11.87
-14.26
-16.7
-19.31
-22.15
-25.2
-28.24
-30.86
-32.48
-32.52
-30.66
-26.94
-21.83
-16.07
-10.35
-5.17
-0.66
3.25
6.71
9.72
12.17
13.89
14.86
15.27
15.47
15.86
16.7
18.05
19.71
21.4
22.74
23.55
23.75
23.47
22.87
22.08
21.11
19.87
18.26
16.28
14.08
11.87
9.83
7.98
6.26
4.53
2.72
0.81
-1.15
-3.13
-5.16
-7.23
-9.36
-11.49
-13.54
-15.51
-17.46
-19.56
-22.0
-24.95
-28.39
-32.07
-35.48
-37.95
-38.81
-37.62
-34.33
-29.34
-23.36
-17.17
-11.4
-6.4
-2.21
1.32
4.42
7.25
9.84
12.1
13.94
15.32
16.33
17.2
18.18
19.44
20.99
22.68
24.28
25.6
26.58
27.19
27.51
27.54
27.27
26.64
25.62
24.24
22.63
20.95
19.36
17.99
16.8
15.66
14.41
12.89
11.07
9.06
7.02
5.07
3.22
1.38
-0.58
-2.73
-5.05
-7.46
-9.87
-12.25
-14.59
-16.92
-19.26
-21.64
-24.14
-26.87
-29.93
-33.3
-36.76
-39.83
-41.88
-42.35
-40.93
-37.69
-33.03
-27.54
