0
-81.83
-52.52
-26.64
-7.78
1.1
-0.81
-11.45
-26.61
-41.71
-53.72
-62.1
-68.36
-74.6
-82.28
-91.75
-102.66
-114.69
-128.06
-143.2
-159.84
-176.29
-189.75
-197.93
-200.03
-197.34
-192.35
-187.16
-181.73
-173.31
-158.07
-133.79
-102.75
-71.34
-47.4
-36.32
-38.25
-48.23
-58.88
-64.37
-63.28
-59.55
-58.65
-63.45
-72.21
-79.75
-81.0
-74.25
-62.34
-50.83
-47.23
-54.13
-66.89
-75.89
-72.23
-52.37
-19.18
20.41
59.32
87.73
101.18
102.17
97.23
90.98
83.37
71.26
51.86
25.03
-15.17
-70.47
-135.44
-199.22
-251.77
-287.72
-306.35
-310.1
-303.82
-305.61
-330.68
-383.46
-457.0
-541.18
-629.53
-720.7
-816.05
-844.29
-765.05
-591.64
-381.28
-186.7
-30.02
90.09
183.93
262.38
332.75
385.98
412.83
412.26
393.27
366.99
343.67
327.67
319.32
316.8
308.85
287.62
253.47
214.14
177.99
149.28
127.81
111.66
99.05
81.88
55.55
20.85
-16.84
-52.02
-81.87
-106.5
-127.14
-145.12
-163.91
-185.34
-208.62
-230.68
-248.33
-259.54
-263.75
-261.03
-251.69
-237.21
-218.7
-196.69
-171.05
-141.63
-108.58
-72.44
-33.96
5.91
46.01
85.1
121.95
155.64
185.87
213.09
238.23
262.35
286.02
309.05
330.55
349.2
363.92
374.39
381.29
386.13
390.8
397.19
406.68
419.71
435.36
451.06
462.89
466.51
458.41
437.03
403.14
359.34
308.78
254.17
197.34
139.62
82.83
29.99
-14.73
-46.87
-62.97
-61.66
-44.35
-15.18
19.67
53.46
80.62
98.24
106.72
108.98
108.92
109.46
111.36
113.25
113.15
110.51
107.61
109.1
119.81
141.58
171.22
200.8
220.35
221.89
202.34
163.93
112.28
53.16
-9.37
-73.06
-135.97
-195.23
-247.13
-288.41
-317.43
-334.59
-341.13
-337.38
-322.01
-292.82
-248.85
-192.56
-130.85
-73.7
-31.1
-9.4
-9.01
-24.42
-46.7
-67.22
-80.83
-87.07
-88.72
-89.01
-89.35
-88.83
-85.6
-78.68
-68.92
-58.28
-48.26
-38.42
-26.48
-9.47
14.39
44.19
76.34
105.29
125.22
131.69
123.13
101.38
71.46
40.13
13.8
-3.36
-10.34
-8.97
-2.45
6.24
15.42
24.73
34.38
44.12
52.83
58.55
59.24
53.64
41.9
25.72
7.96
-8.0
-19.26
-24.13
-22.5
-15.59
-5.36
6.2
17.32
26.32
31.48
31.08
24.03
10.57
-7.26
-26.06
-42.06
-52.44
-56.23
-54.41
-49.26
-43.4
-38.81
-36.47
-36.33
-37.68
-39.51
-40.72
-40.26
-37.1
-30.37
-19.46
-4.33
14.17
34.31
53.77
70.16
81.68
87.42
87.27
81.53
70.67
55.4
36.98
17.43
-0.65
-14.81
-23.6
-27.15
-27.09
-25.89
-25.94
-28.8
-34.76
-42.99
-51.96
-59.99
-66.02
-69.86
-72.25
-74.22
-76.28
-77.76
-76.72
-70.74
-58.16
-39.13
-15.82
8.11
28.91
44.05
52.88
56.43
56.62
55.25
53.37
51.17
48.35
44.66
40.27
35.74
31.72
28.59
26.17
23.88
21.11
17.58
13.54
9.54
6.12
3.48
1.33
-0.9
-3.76
-7.48
-11.88
-16.55
-21.02
-25.07
-28.74
-32.24
-35.74
-39.19
-42.24
-44.32
-44.83
-43.28
-39.5
-33.64
-26.23
-17.94
-9.55
-1.76
4.94
10.22
14.05
16.54
17.92
18.48
18.47
18.09
17.52
16.9
16.37
16.01
15.82
15.68
15.4
14.84
13.92
12.65
11.09
9.31
7.3
5.03
2.48
-0.35
-3.45
-6.79
-10.42
-14.42
-18.79
-23.33
-27.59
-30.86
-32.4
-31.68
-28.52
-23.27
-16.64
-9.54
-2.8
3.07
7.94
11.94
15.34
18.26
20.6
22.15
22.67
22.15
20.82
19.14
17.59
16.51
15.96
15.79
15.74
15.57
15.15
14.42
13.32
11.8
9.8
7.33
4.46
1.43
-1.55
-4.3
-6.87
-9.51
-12.52
-16.08
-20.06
-23.9
-26.81
-27.98
-26.92
-23.62
-18.55
-12.44
-6.02
0.15
5.75
10.59
14.54
17.44
19.16
19.68
19.14
17.81
16.08
14.28
12.68
11.4
10.45
9.76
9.21
8.62
7.84
6.75
5.28
3.47
1.43
-0.68
-2.75
-4.82
-7.02
-9.53
-12.51
-15.98
-19.83
-23.76
-27.37
-30.2
-31.73
-31.56
-29.42
-25.37
-19.81
-13.39
-6.88
-0.91
4.14
8.18
11.26
13.44
14.71
14.94
14.1
12.32
9.96
7.56
5.58
4.27
3.59
3.23
2.83
2.1
0.93
-0.62
-2.4
-4.24
-6.06
-7.83
-9.59
-11.43
-13.46
-15.85
-18.73
-22.13
-25.94
-29.76
-33.01
-35.04
-35.27
-33.42
-29.6
-24.28
-18.19
-12.06
-6.45
-1.68
2.22
5.3
7.65
9.26
10.08
10.07
9.33
8.11
6.74
5.55
4.76
4.35
4.16
3.94
3.48
2.74
1.77
0.7
-0.45
-1.74
-3.34
-5.42
-8.0
-10.99
-14.22
-17.58
-21.05
-24.66
-28.33
-31.75
-34.36
-35.51
-34.71
-31.8
-27.02
-20.93
-14.23
-7.55
-1.31
4.23
8.95
12.77
15.56
17.19
17.65
17.09
15.85
14.38
13.11
12.24
11.75
11.4
10.95
10.3
9.53
8.8
8.21
7.67
6.91
5.63
3.67
1.11
-1.75
-4.51
-6.92
-8.96
-10.85
-12.93
-15.5
-18.72
-22.51
-26.54
-30.32
-33.3
-34.96
-34.92
-33.02
-29.36
-24.24
-18.16
-11.69
-5.4
0.23
4.89
8.43
10.86
12.31
12.98
13.1
12.92
12.61
12.31
12.04
11.76
11.43
11.04
10.65
10.39
10.38
10.65
11.08
11.44
11.41
10.76
9.33
7.19
4.55
1.7
-1.02
-3.38
-5.35
-7.08
-8.92
-11.21
-14.2
-17.88
-21.93
-25.76
-28.63
-29.85
-28.99
-26.01
-21.24
-15.29
-8.86
-2.6
3.01
7.69
11.28
13.77
15.27
16.0
16.22
16.2
16.08
15.91
15.61
15.14
14.51
13.81
13.13
12.53
12.0
11.52
11.08
10.72
10.45
10.18
9.7
8.73
7.05
4.67
1.86
-0.98
-3.48
-5.48
-7.1
-8.57
-10.16
-12.04
-14.28
-16.92
-19.97
-23.39
-26.94
-30.14
-32.3
-32.77
-31.16
-27.53
-22.36
-16.37
-10.3
-4.64
0.31
4.47
7.82
10.35
12.07
13.05
13.45
13.54
13.59
13.76
14.07
14.44
14.73
14.88
14.91
14.86
14.8
14.68
14.42
13.94
13.26
12.44
11.53
10.52
9.3
7.74
5.76
3.37
0.72
-1.99
-4.59
-6.93
-8.98
-10.79
-12.5
-14.36
-16.63
-19.46
-22.82
-26.36
-29.55
-31.72
-32.35
-31.16
-28.21
-23.84
-18.49
-12.7
-6.9
-1.45
3.37
7.38
10.48
12.67
14.04
14.74
14.98
14.97
14.91
14.95
15.15
15.48
15.87
16.18
16.33
16.34
16.28
16.19
16.06
15.72
15.02
13.86
12.28
10.49
8.74
7.17
5.79
4.42
2.92
1.24
-0.55
-2.33
-4.03
-5.63
-7.24
-8.93
-10.75
-12.75
-15.01
-17.65
-20.75
-24.27
-27.9
-31.05
-33.04
-33.19
-31.19
-27.09
-21.39
-14.87
-8.34
-2.47
2.4
6.24
9.25
11.67
13.65
15.19
16.27
16.89
17.14
17.2
17.17
17.01
16.55
15.65
14.28
12.65
11.11
10.02
9.54
9.56
9.74
9.72
9.22
8.19
6.71
4.93
3.03
1.12
-0.72
-2.44
-4.04
-5.55
-7.06
-8.76
-10.85
-13.49
-16.71
-20.31
-23.87
-26.8
-28.51
-28.59
-26.88
-23.57
-19.08
-13.95
-8.72
-3.78
0.59
4.24
7.11
9.23
10.66
11.51
11.86
11.82
11.47
10.92
10.29
9.65
9.03
8.41
7.76
7.11
6.54
6.14
5.92
5.79
5.55
4.97
3.93
2.46
0.66
-1.33
-3.46
-5.74
-8.16
-10.7
-13.26
-15.81
-18.36
-21.04
-23.86
-26.65
-28.95
-30.14
-29.66
-27.3
-23.31
-18.28
-12.9
-7.72
-3.03
1.09
4.53
7.12
8.68
9.09
8.54
7.4
6.19
5.28
4.81
4.7
4.76
4.82
4.79
4.65
4.33
3.73
2.78
1.46
-0.13
-1.79
-3.39
-4.85
-6.23
-7.68
-9.38
-11.47
-14.04
-17.04
-20.31
-23.51
-26.2
-27.89
-28.19
-26.95
-24.24
-20.41
-15.86
-10.97
-6.04
-1.26
3.17
7.06
10.2
12.42
13.71
14.2
14.13
13.72
13.13
12.4
11.59
10.81
10.24
9.99
10.09
10.38
10.6
10.49
9.88
8.77
7.21
5.3
3.13
0.82
-1.48
-3.63
-5.6
-7.53
-9.73
-12.46
-15.8
-19.52
-23.11
-25.92
-27.37
-27.1
-25.05
-21.42
-16.59
-11.02
-5.18
0.53
5.76
10.26
13.84
16.43
18.08
18.94
19.28
19.37
19.37
19.38
19.35
19.2
18.88
18.41
17.9
17.49
17.3
17.37
17.53
17.47
16.73
14.95
12.03
8.23
4.12
0.34
-2.71
-4.98
-6.73
-8.4
-10.32
-12.67
-15.42
-18.4
-21.35
-23.87
-25.49
-25.68
-24.07
-20.64
-15.71
-9.9
-3.92
1.71
6.67
10.86
14.27
16.88
18.66
19.62
19.88
19.66
19.24
18.86
18.63
18.55
18.53
18.47
18.32
18.04
17.63
17.13
16.54
15.89
15.11
14.07
12.62
10.67
8.31
5.76
3.34
1.27
-0.44
-2.01
-3.77
-5.99
-8.75
-11.92
-15.24
-18.39
-21.03
-22.82
-23.47
-22.69
-20.4
-16.76
-12.14
-7.05
-1.95
2.91
7.42
11.57
15.31
18.5
20.9
22.32
22.75
22.38
21.53
20.53
19.63
18.91
18.34
17.88
17.51
17.28
17.21
17.26
17.32
17.2
16.67
15.6
13.95
11.84
9.48
7.13
4.96
3.03
1.23
-0.66
-2.88
-5.6
-8.81
-12.3
-15.71
-18.62
-20.63
-21.44
-20.87
-18.88
-15.61
-11.35
-6.49
-1.46
3.35
7.69
11.41
14.48
16.86
18.57
19.58
19.96
19.84
19.46
19.02
18.68
18.47
18.35
18.23
18.14
18.18
18.48
19.07
19.81
20.44
20.66
20.31
19.42
18.25
17.08
16.07
15.28
14.6
13.88
13.06
12.21
11.4
10.7
9.97
9.02
7.67
5.89
3.91
2.13
0.99
0.82
1.8
4.04
7.55
12.23
17.74
23.34
27.92
30.33
29.68
25.77
19.16
10.91
2.09
-6.53
-14.61
-22.1
-28.86
-34.5
-38.41
-40.01
-39.09
-35.97
-31.46
-26.62
-22.49
-19.78
-18.71
-19.05
-20.34
-22.04
-23.77
-25.4
-26.92
-28.35
-29.63
-30.59
-31.12
-31.22
-31.14
-31.27
-31.96
-33.36
-35.38
-37.66
-39.71
-40.95
-40.88
-39.13
-35.63
-30.61
-24.56
-18.12
-11.88
-6.26
-1.43
2.56
5.79
8.36
10.46
12.33
14.22
16.35
18.77
21.35
23.82
25.9
27.44
28.42
28.99
29.31
29.54
29.71
29.76
29.57
28.98
27.92
26.39
24.5
22.42
20.33
18.34
16.42
14.42
12.16
9.53
6.52
3.32
0.15
-2.78
-5.44
-7.95
-10.49
-13.17
-15.86
-18.19
-19.67
-19.88
-18.69
-16.27
-13.04
-9.4
-5.68
-2.01
1.53
4.87
7.79
10.06
11.53
12.18
12.23
11.97
11.65
11.44
11.36
11.4
11.51
11.67
11.86
12.04
12.15
12.09
11.8
11.29
10.65
9.97
9.34
8.7
7.92
6.83
5.33
3.49
1.54
-0.26
-1.68
-2.69
-3.41
-4.06
-4.85
-5.91
-7.29
-8.99
-10.95
-13.02
-14.99
-16.53
-17.3
-17.04
-15.66
-13.28
-10.16
-6.67
-3.16
0.09
2.99
5.53
7.79
9.79
11.4
12.41
12.57
11.8
10.26
8.37
6.62
5.37
4.73
4.58
4.64
4.67
4.57
4.38
4.2
4.07
3.95
3.73
3.3
2.62
1.73
0.74
-0.24
-1.09
-1.81
-2.43
-3.05
-3.83
-4.88
-6.3
-8.08
-10.09
-12.13
-13.99
-15.47
-16.43
-16.71
-16.19
-14.79
-12.47
-9.37
-5.75
-1.98
1.55
4.57
6.92
8.63
9.83
10.65
11.17
11.39
11.26
10.77
9.98
9.1
8.35
7.88
7.71
7.7
7.63
7.33
6.73
5.89
4.9
3.85
2.76
1.63
0.46
-0.67
-1.71
-2.58
-3.33
-3.99
-4.64
-5.28
-5.85
-6.29
-6.6
-6.91
-7.45
-8.46
-10.07
-12.22
-14.64
-16.91
-18.58
-19.24
-18.65
-16.8
-13.91
-10.36
-6.63
-3.16
-0.21
2.16
4.03
5.51
6.66
7.44
7.82
7.81
7.53
7.15
6.87
6.76
6.84
7.01
7.19
7.34
7.46
7.59
7.78
7.98
8.11
8.06
7.74
7.15
6.37
5.56
4.83
4.24
3.69
3.07
2.24
1.16
-0.11
-1.43
-2.69
-3.78
-4.71
-5.52
-6.29
-7.11
-8.09
-9.35
-10.89
-12.65
-14.43
-15.94
-16.86
-16.93
-15.99
-14.06
-11.29
-8.01
-4.64
-1.57
0.9
2.71
3.92
4.71
5.18
5.36
5.22
4.78
4.2
3.74
3.7
4.17
5.01
5.93
6.65
7.06
7.25
7.41
7.64
7.85
7.86
7.46
6.63
5.51
4.34
3.32
2.45
1.62
0.67
-0.48
-1.76
-3.02
-4.17
-5.16
-6.09
-7.04
-8.05
-9.09
-10.11
-11.11
-12.15
-13.34
-14.66
-15.89
-16.68
-16.59
-15.37
-13.08
-10.07
-6.9
-4.07
-1.8
-0.03
1.49
2.99
4.52
5.91
6.91
7.3
7.12
6.59
6.04
5.74
5.79
6.12
6.52
6.83
6.97
6.96
6.89
6.81
6.71
6.44
5.86
4.9
3.68
2.45
1.49
0.93
0.67
0.4
-0.17
-1.16
-2.44
-3.68
-4.62
-5.2
-5.59
-6.06
-6.85
-7.99
-9.38
-10.9
-12.44
-13.95
-15.35
-16.41
-16.83
-16.31
-14.71
-12.14
-8.93
-5.55
-2.41
0.23
2.34
4.02
5.4
6.59
7.58
8.25
8.5
8.32
7.81
7.16
6.62
6.34
6.38
6.65
7.03
7.42
7.8
8.18
8.57
8.91
9.03
8.79
8.13
7.11
5.89
4.66
3.55
2.57
1.66
0.7
-0.34
-1.44
-2.52
-3.47
-4.28
-5.01
-5.79
-6.79
-8.12
-9.8
-11.74
-13.77
-15.73
-17.4
-18.57
-19.02
-18.54
-17.0
-14.47
-11.18
-7.57
-4.05
-0.97
1.57
3.62
5.3
6.69
7.77
8.46
8.71
8.6
8.32
8.14
8.22
8.55
8.98
9.32
9.43
9.35
9.21
9.13
9.15
9.19
9.13
8.88
8.43
7.82
7.11
6.29
5.39
4.44
3.49
2.63
1.84
1.02
0.02
-1.24
-2.66
-4.03
-5.12
-5.86
-6.41
-7.06
-8.12
-9.68
-11.63
-13.65
-15.37
-16.51
-16.91
-16.49
-15.24
-13.17
-10.41
-7.19
-3.82
-0.61
2.19
4.49
6.26
7.52
8.25
8.49
8.29
7.79
7.19
6.68
6.38
6.31
6.41
6.63
6.92
7.25
7.51
7.55
7.23
6.52
5.53
4.48
3.58
2.85
2.19
1.41
0.39
-0.8
-1.97
-2.94
-3.69
-4.38
-5.24
-6.43
-7.91
-9.5
-10.99
-12.24
-13.3
-14.26
-15.17
-15.89
-16.15
-15.62
-14.09
-11.65
-8.54
-5.17
-1.92
0.96
3.36
5.26
6.73
7.76
8.37
8.6
8.51
8.21
7.8
7.39
6.99
6.65
6.39
6.27
6.33
6.52
6.71
6.72
6.41
5.75
4.88
3.96
3.1
2.27
1.34
0.18
-1.2
-2.59
-3.73
-4.44
-4.8
-5.1
-5.72
-6.97
-8.86
-11.16
-13.42
-15.18
-16.05
-15.88
-14.63
-12.48
-9.68
-6.55
-3.4
-0.45
2.14
4.36
6.2
7.68
8.8
9.55
9.94
10.05
10.01
9.92
9.9
9.95
10.0
9.95
9.72
9.27
8.64
7.91
7.14
6.37
5.64
4.93
4.26
3.57
2.8
1.88
0.73
-0.6
-2.05
-3.46
-4.74
-5.85
-6.92
-8.1
-9.53
-11.22
-13.05
-14.77
-16.13
-16.87
-16.78
-15.73
-13.76
-11.0
-7.77
-4.41
-1.23
1.6
4.06
6.19
8.03
9.51
10.56
11.12
11.29
11.29
11.36
11.66
12.16
12.69
13.0
12.94
12.5
11.81
11.05
10.35
9.77
9.28
8.84
8.36
7.77
6.96
5.82
4.35
2.6
0.75
-0.96
-2.36
-3.44
-4.32
-5.27
-6.55
-8.31
-10.55
-13.04
-15.4
-17.17
-17.89
-17.27
-15.28
-12.21
-8.54
-4.79
-1.32
1.73
4.36
6.67
8.67
10.32
11.48
12.14
12.34
12.28
12.18
12.17
12.19
12.08
11.65
10.8
9.61
8.33
7.22
6.45
6.0
5.74
5.52
5.22
4.78
4.17
3.32
2.15
0.63
-1.16
-3.0
-4.65
-5.95
-6.92
-7.72
-8.57
-9.61
-10.82
-12.08
-13.27
-14.31
-15.12
-15.62
-15.61
-14.91
-13.37
-11.02
-8.11
-4.97
-2.0
0.58
2.68
4.33
5.58
6.49
7.03
7.23
7.13
6.86
6.53
6.28
6.16
6.16
6.2
6.22
6.13
5.89
5.52
5.06
4.6
4.18
3.78
3.36
2.81
2.05
1.04
-0.17
-1.44
-2.6
-3.54
-4.26
-4.88
-5.62
-6.67
-8.06
-9.65
-11.14
-12.19
-12.56
-12.1
-10.87
-8.98
-6.62
-3.96
-1.16
1.63
4.28
6.64
8.6
10.09
11.11
11.66
11.82
11.71
11.43
11.09
10.69
10.23
9.66
8.98
8.29
7.67
7.24
7.03
6.93
6.8
6.43
5.73
4.7
3.44
2.05
0.58
-0.97
-2.58
-4.15
-5.56
-6.68
-7.52
-8.25
-9.08
-10.15
-11.38
-12.47
-13.08
-12.94
-12.01
-10.42
-8.36
-5.99
-3.36
-0.5
2.46
5.27
7.63
9.28
10.13
10.3
10.06
9.72
9.49
9.41
9.43
9.45
9.39
9.24
9.02
8.74
8.43
8.05
7.59
7.05
6.45
5.83
5.21
4.57
3.9
3.12
2.18
1.05
-0.25
-1.67
-3.11
-4.44
-5.61
-6.59
-7.48
-8.47
-9.75
-11.49
-13.65
-16.02
-18.23
-19.83
-20.48
-20.03
-18.55
-16.25
-13.38
-10.21
-6.94
-3.74
-0.77
1.86
4.1
5.94
7.41
8.52
9.3
9.73
9.85
9.72
9.46
9.12
8.79
8.45
8.13
7.82
7.52
7.23
6.91
6.47
5.86
5.03
4.04
2.96
1.92
0.99
0.16
-0.64
-1.55
-2.7
-4.1
-5.69
-7.27
-8.66
-9.74
-10.52
-11.12
-11.78
-12.66
-13.84
-15.26
-16.73
-17.96
-18.7
-18.76
-18.02
-16.53
-14.4
-11.79
-8.89
-5.87
-2.85
-0.01
2.49
4.48
5.84
6.59
6.9
7.0
7.11
7.29
7.45
7.45
7.18
6.69
6.17
5.82
5.75
5.89
6.04
6.01
5.71
5.14
4.4
3.53
2.54
1.41
0.11
-1.26
-2.59
-3.7
-4.52
-5.08
-5.54
-6.08
-6.86
-7.93
-9.25
-10.74
-12.29
-13.77
-15.03
-15.9
-16.19
-15.73
-14.45
-12.41
-9.79
-6.86
-3.87
-0.98
1.71
4.16
6.32
8.1
9.39
10.13
10.3
10.0
9.38
8.66
8.03
7.61
7.44
7.52
7.76
8.05
8.26
8.3
8.12
7.77
7.29
6.74
6.08
5.27
4.28
3.14
2.0
0.96
0.1
-0.67
-1.49
-2.47
-3.65
-4.94
-6.24
-7.47
-8.69
-10.05
-11.65
-13.48
-15.34
-16.87
-17.77
-17.84
-17.09
-15.63
-13.62
-11.17
-8.34
-5.23
-2.0
1.05
3.63
5.52
6.66
7.21
7.41
7.48
7.53
7.6
7.67
7.73
7.78
7.83
7.86
7.84
7.74
7.61
7.46
7.31
7.1
6.78
6.28
5.59
4.75
3.83
2.83
1.74
0.49
-0.9
-2.37
-3.81
-5.08
-6.15
-7.1
-8.07
-9.21
-10.62
-12.28
-14.05
-15.77
-17.23
-18.28
-18.79
-18.68
-17.92
-16.51
-14.51
-12.03
-9.21
-6.2
-3.17
-0.25
2.38
4.6
6.28
7.37
7.95
8.12
8.08
7.99
7.96
8.01
8.1
8.11
7.95
7.57
6.97
6.25
5.51
4.86
4.36
3.99
3.66
3.24
2.63
1.76
0.6
-0.79
-2.39
-4.1
-5.85
-7.52
-8.98
-10.19
-11.19
-12.12
-13.2
-14.64
-16.51
-18.67
-20.81
-22.48
-23.27
-22.95
-21.47
-19.01
-15.86
-12.34
-8.7
-5.14
-1.78
1.25
3.82
5.79
7.07
7.69
7.78
7.58
7.3
7.14
7.16
7.36
7.67
7.99
8.21
8.21
7.95
7.44
6.75
6.06
5.48
5.08
4.81
4.52
4.0
3.12
1.81
0.14
-1.74
-3.62
-5.33
-6.78
-8.03
-9.21
-10.51
-12.05
-13.77
-15.44
-16.68
-17.12
-16.46
-14.62
-11.7
-7.99
-3.85
0.33
4.19
7.43
9.87
11.43
12.15
12.25
11.97
11.6
11.36
11.35
11.58
11.97
12.39
12.7
12.81
12.65
12.23
11.6
10.89
10.18
9.58
9.05
8.48
7.71
6.61
5.15
3.41
1.52
-0.39
-2.26
-4.07
-5.88
-7.73
-9.64
-11.55
-13.3
-14.69
-15.48
-15.47
-14.6
-12.9
-10.5
-7.51
-4.05
-0.24
3.72
7.54
10.88
13.45
15.13
16.0
16.25
16.1
15.75
15.29
14.79
14.31
13.89
13.55
13.27
12.99
12.66
12.23
11.65
10.9
9.88
8.56
6.96
5.19
3.43
1.82
0.45
-0.72
-1.76
-2.78
-3.84
-4.98
-6.28
-7.82
-9.69
-11.89
-14.25
-16.47
-18.11
-18.74
-18.09
-16.1
-12.94
-9.01
-4.73
-0.53
3.31
6.66
9.47
11.76
13.55
14.8
15.47
15.56
15.13
14.34
13.41
12.55
11.92
11.52
11.25
10.96
10.5
9.87
9.16
8.53
8.03
7.61
7.07
6.24
5.0
3.43
1.74
0.09
-1.41
-2.85
-4.39
-6.13
-8.07
-10.07
-11.97
-13.67
-15.21
-16.66
-18.0
-19.07
-19.57
-19.19
-17.75
-15.3
-12.06
-8.36
-4.49
-0.66
2.92
6.08
8.61
10.33
11.2
11.35
11.0
10.48
9.98
9.6
9.37
9.24
9.19
9.19
9.21
9.19
9.04
8.66
8.03
7.19
6.25
5.29
4.39
3.53
2.67
1.71
0.61
-0.66
-2.09
-3.6
-5.12
-6.53
-7.79
-8.85
-9.78
-10.72
-11.85
-13.28
-15.05
-16.95
-18.66
-19.76
-19.89
-18.86
-16.68
-13.61
-9.97
-6.16
-2.49
0.84
3.73
6.19
8.22
9.83
10.96
11.54
11.53
11.02
10.22
9.41
8.88
8.8
9.1
9.56
9.91
9.9
9.5
8.84
8.1
7.42
6.78
6.06
5.11
3.91
2.55
1.23
0.05
-0.98
-2.04
-3.3
-4.82
-6.52
-8.14
-9.53
-10.63
-11.55
-12.5
-13.52
-14.52
-15.17
-15.14
-14.18
-12.27
-9.55
-6.33
-2.87
0.56
3.77
6.6
8.88
10.54
11.56
12.02
12.05
11.78
11.3
10.69
10.05
9.52
9.23
9.28
9.59
9.95
10.08
9.81
9.11
8.14
7.1
6.13
5.24
4.33
3.31
2.15
0.94
-0.24
-1.35
-2.43
-3.53
-4.7
-5.92
-7.17
-8.44
-9.8
-11.32
-13.01
-14.8
-16.49
-17.82
-18.52
-18.36
-17.24
-15.17
-12.32
-8.93
-5.33
-1.78
1.51
4.42
6.86
8.81
10.22
11.06
11.37
11.24
10.8
10.25
9.75
9.43
9.31
9.34
9.42
9.42
9.26
8.91
8.42
7.8
7.1
6.31
5.4
4.39
3.28
2.11
0.87
-0.47
-1.93
-3.51
-5.13
-6.71
-8.12
-9.31
-10.26
-10.95
-11.47
-11.94
-12.54
-13.46
-14.84
-16.63
-18.56
-20.25
-21.25
-21.25
-20.13
-17.96
-14.98
-11.48
-7.73
-4.03
-0.62
2.29
4.59
6.27
7.44
8.2
8.65
8.82
8.76
8.54
8.3
8.17
8.18
8.26
8.24
7.96
7.43
6.77
6.21
5.87
5.77
5.72
5.51
5.04
4.35
3.58
2.87
2.24
1.59
0.78
-0.27
-1.49
-2.7
-3.74
-4.55
-5.21
-5.9
-6.79
-7.95
-9.31
-10.79
-12.36
-14.06
-15.89
-17.73
-19.27
-20.1
-19.84
-18.34
-15.75
-12.43
-8.81
-5.25
-1.9
1.17
3.94
6.38
8.37
9.83
10.73
11.16
11.26
11.19
11.01
10.73
10.34
9.84
9.33
8.93
8.75
8.82
9.07
9.33
9.43
9.23
8.73
7.98
7.06
6.01
4.86
3.61
2.31
1.04
-0.1
-1.1
-1.99
-2.91
-3.98
-5.22
-6.6
-8.04
-9.47
-10.91
-12.44
-14.12
-15.85
-17.37
-18.28
-18.21
-16.92
-14.46
-11.14
-7.39
-3.68
-0.29
2.64
5.15
7.26
8.97
10.21
10.93
11.13
10.92
10.49
10.05
9.75
9.64
9.66
9.72
9.74
9.67
9.47
9.12
8.6
7.9
7.06
6.13
5.21
4.33
3.48
2.59
1.59
0.41
-0.94
-2.37
-3.79
-5.1
-6.28
-7.39
-8.54
-9.82
-11.28
-12.96
-14.86
-16.92
-19.01
-20.85
-22.1
-22.34
-21.27
-18.84
-15.25
-10.95
-6.49
-2.36
1.13
3.88
5.95
7.46
8.59
9.46
10.16
10.71
11.11
11.31
11.26
10.93
10.38
9.73
9.14
8.76
8.61
8.63
8.65
8.51
8.08
7.34
6.28
4.95
3.37
1.61
-0.24
-2.06
-3.76
-5.27
-6.62
-7.85
-9.04
-10.2
-11.33
-12.45
-13.61
-14.89
-16.4
-18.13
-19.95
-21.61
-22.76
-23.04
-22.18
-20.1
-16.88
-12.84
-8.4
-4.04
-0.13
3.12
5.68
7.71
9.39
10.81
11.99
12.84
13.27
13.28
12.99
12.56
12.19
11.92
11.7
11.37
10.84
10.1
9.25
8.45
7.81
7.31
6.83
6.19
5.25
3.98
2.47
0.87
-0.69
-2.11
-3.35
-4.4
-5.33
-6.23
-7.21
-8.45
-10.02
-11.88
-13.81
-15.49
-16.53
-16.64
-15.67
-13.61
-10.61
-6.95
-2.94
1.06
4.78
8.0
10.62
12.67
14.17
15.18
15.71
15.79
15.51
15.01
14.47
14.02
13.69
13.39
13.0
12.46
11.79
11.09
10.48
9.98
9.51
8.91
8.03
6.8
5.28
3.59
1.88
0.21
-1.35
-2.8
-4.11
-5.27
-6.27
-7.17
-8.09
-9.22
-10.68
-12.54
-14.66
-16.78
-18.5
-19.43
-19.23
-17.75
-15.04
-11.37
-7.18
-2.92
0.99
4.32
7.03
9.24
11.07
12.63
13.9
14.81
15.29
15.38
15.17
14.79
14.33
13.83
13.25
12.59
11.9
11.23
10.67
10.2
9.74
9.2
8.49
7.64
6.69
5.66
4.52
3.2
1.66
-0.05
-1.78
-3.33
-4.61
-5.65
-6.6
-7.66
-8.94
-10.44
-12.05
-13.74
-15.49
-17.32
-19.15
-20.71
-21.58
-21.36
-19.8
-16.94
-13.16
-8.95
-4.8
-0.97
2.45
5.51
8.23
10.58
12.46
13.77
14.52
14.79
14.72
14.45
14.03
13.44
12.68
11.82
11.01
10.39
10.07
9.99
10.0
9.89
9.51
8.81
7.78
6.49
5.03
3.48
1.95
0.55
-0.67
-1.78
-2.92
-4.24
-5.79
-7.48
-9.1
-10.46
-11.51
-12.34
-13.2
-14.25
-15.59
-17.15
-18.78
-20.28
-21.41
-21.97
-21.73
-20.48
-18.12
-14.75
-10.64
-6.22
-1.96
1.81
4.91
7.32
9.11
10.39
11.22
11.68
11.87
11.89
11.82
11.7
11.53
11.26
10.88
10.42
9.93
9.45
8.96
8.4
7.73
6.91
6.01
5.12
4.34
3.69
3.1
2.45
1.63
0.59
-0.64
-1.93
-3.19
-4.3
-5.25
-6.07
-6.81
-7.59
-8.55
-9.79
-11.35
-13.1
-14.81
-16.13
-16.73
-16.43
-15.15
-12.96
-10.02
-6.5
-2.59
1.48
5.42
8.92
11.68
13.54
14.45
14.54
14.03
13.23
12.38
11.67
11.14
10.76
10.4
9.97
9.44
8.81
8.14
7.45
6.76
6.07
5.4
4.81
4.28
3.75
3.17
2.44
1.55
0.56
-0.46
-1.43
-2.32
-3.16
-3.96
-4.77
-5.69
-6.84
-8.34
-10.24
-12.41
-14.55
-16.25
-17.21
-17.24
-16.34
-14.6
-12.12
-9.0
-5.41
-1.61
2.06
5.23
7.64
9.23
10.14
10.61
10.89
11.17
11.44
11.66
11.67
11.39
10.81
10.03
9.25
8.64
8.28
8.14
8.07
7.92
7.55
6.94
6.1
5.1
3.92
2.55
0.96
-0.81
-2.63
-4.32
-5.76
-6.93
-7.94
-8.96
-10.14
-11.52
-13.01
-14.52
-15.96
-17.32
-18.62
-19.76
-20.56
-20.71
-19.94
-18.08
-15.22
-11.59
-7.58
-3.56
0.14
3.3
5.8
7.68
9.05
10.05
10.84
11.48
11.89
11.98
11.67
10.98
10.08
9.19
8.53
8.17
8.05
7.99
7.81
7.42
6.8
6.0
5.12
4.18
3.17
2.1
0.97
-0.16
-1.23
-2.26
-3.31
-4.5
-5.89
-7.43
-9.0
-10.41
-11.54
-12.44
-13.31
-14.35
-15.76
-17.54
-19.44
-21.15
-22.3
-22.61
-21.94
-20.25
-17.67
-14.39
-10.69
-6.84
-3.12
0.28
3.28
5.85
7.94
9.49
10.4
10.66
10.37
9.76
9.11
8.61
8.3
8.11
7.9
7.62
7.3
7.0
6.69
6.29
5.64
4.65
3.38
2.01
0.74
-0.32
-1.26
-2.2
-3.27
-4.5
-5.76
-6.92
-7.97
-9.03
-10.28
-11.8
-13.49
-15.08
-16.22
-16.6
-16.1
-14.72
-12.59
-9.86
-6.74
-3.42
-0.1
3.08
5.96
8.44
10.35
11.57
12.0
11.67
10.79
9.69
8.7
8.03
7.64
7.37
7.05
6.65
6.23
5.96
5.92
6.01
6.0
5.67
4.88
3.67
2.21
0.76
-0.52
-1.57
-2.5
-3.47
-4.66
-6.16
-7.95
-9.89
-11.77
-13.31
-14.25
-14.34
-13.41
-11.41
-8.5
-4.94
-1.14
2.51
5.73
8.34
10.3
11.67
12.51
12.94
13.06
12.97
12.7
12.24
11.58
10.7
9.67
8.65
7.83
7.34
7.19
7.27
7.37
7.31
6.91
6.12
4.9
3.29
1.35
-0.8
-2.99
-5.01
-6.69
-7.97
-8.93
-9.79
-10.82
-12.21
-13.91
-15.67
-17.05
-17.62
-17.12
-15.5
-12.92
-9.61
-5.87
-1.95
1.87
5.33
8.22
10.44
11.99
12.95
13.44
13.58
13.48
13.26
13.08
13.08
13.24
13.45
13.47
13.11
12.3
11.15
9.91
8.8
7.89
7.14
6.39
5.52
4.51
3.42
2.33
1.29
0.21
-0.98
-2.32
-3.74
-5.11
-6.34
-7.47
-8.65
-10.12
-11.97
-14.15
-16.39
-18.33
-19.61
-20.02
-19.47
-18.01
-15.78
-12.97
-9.78
-6.43
-3.1
0.09
3.05
5.74
8.06
9.9
11.14
11.77
11.84
11.58
11.22
10.97
10.93
11.08
11.31
11.5
11.58
11.53
11.36
11.02
10.43
9.56
8.38
7.0
5.58
4.24
3.08
2.11
1.25
0.38
-0.62
-1.83
-3.3
-4.95
-6.61
-8.1
-9.22
-9.92
-10.29
-10.58
-11.05
-11.93
-13.3
-15.09
-17.05
-18.89
-20.26
-20.87
-20.5
-19.08
-16.63
-13.33
-9.46
-5.38
-1.5
1.89
4.6
6.65
8.2
9.42
10.4
11.08
11.31
11.03
10.34
9.52
8.88
8.6
8.61
8.68
8.56
8.18
7.62
7.08
6.74
6.61
6.58
6.46
6.08
5.37
4.4
3.27
2.13
1.08
0.13
-0.77
-1.7
-2.74
-3.88
-5.04
-6.12
-7.04
-7.88
-8.8
-9.98
-11.44
-12.96
-14.18
-14.69
-14.23
-12.8
-10.59
-7.88
-4.91
-1.83
1.32
4.49
7.57
10.35
12.61
14.16
14.95
15.08
14.72
14.1
13.38
12.67
12.01
11.45
11.03
10.77
10.6
10.39
9.96
9.17
8.0
6.58
5.12
3.86
2.91
2.24
1.74
1.22
0.56
-0.31
-1.33
-2.41
-3.47
-4.49
-5.5
-6.59
-7.79
-9.13
-10.62
-12.19
-13.81
-15.43
-16.9
-18.02
-18.55
-18.27
-17.08
-15.0
-12.18
-8.87
-5.31
-1.75
1.6
4.55
6.98
8.81
10.05
10.73
10.98
10.93
10.74
10.57
10.51
10.59
10.76
10.88
10.82
10.51
9.97
9.31
8.65
8.05
7.52
6.97
6.29
5.37
4.19
2.8
1.34
-0.04
-1.24
-2.27
-3.24
-4.28
-5.53
-7.02
-8.63
-10.16
-11.46
-12.45
-13.2
-13.91
-14.76
-15.9
-17.37
-19.02
-20.63
-21.89
-22.52
-22.31
-21.15
-19.08
-16.26
-12.88
-9.18
-5.42
-1.82
1.4
4.07
6.1
7.5
8.35
8.76
8.86
8.74
8.44
8.02
7.55
7.12
6.8
6.65
6.66
6.79
7.0
7.23
7.42
7.48
7.31
6.79
5.89
4.61
3.11
1.59
0.22
-0.91
-1.79
-2.5
-3.18
-3.91
-4.73
-5.61
-6.48
-7.3
-8.01
-8.62
-9.23
-10.01
-11.09
-12.51
-14.09
-15.44
-16.12
-15.75
-14.16
-11.47
-7.98
-4.11
-0.26
3.27
6.26
8.58
10.23
11.29
11.9
12.27
12.51
12.67
12.74
12.7
12.53
12.29
12.07
11.9
11.78
11.64
11.37
10.93
10.27
9.46
8.58
7.73
6.92
6.14
5.31
4.33
3.16
1.78
0.22
-1.45
-3.14
-4.76
-6.17
-7.28
-8.03
-8.55
-9.07
-9.89
-11.21
-13.07
-15.21
-17.22
-18.63
-19.05
-18.29
-16.32
-13.33
-9.63
-5.63
-1.72
1.78
4.74
7.13
9.02
10.47
11.5
12.13
12.39
12.4
12.31
12.2
12.07
11.84
11.43
10.86
10.27
9.84
9.7
9.81
9.96
9.91
9.5
8.72
7.72
6.65
5.64
4.67
3.67
2.56
1.26
-0.21
-1.83
-3.56
-5.37
-7.18
-8.93
-10.56
-12.02
