0
22.18
21.18
21.42
23.16
26.22
29.99
33.71
36.63
38.27
38.5
37.51
35.7
33.43
30.88
28.02
24.68
20.72
16.21
11.39
6.58
2.09
-1.97
-5.58
-8.82
-11.79
-14.68
-17.75
-21.42
-26.21
-32.47
-40.12
-48.48
-56.25
-61.79
-63.54
-60.53
-52.66
-40.77
-26.4
-11.4
2.56
14.33
23.4
29.78
33.82
35.88
36.31
35.42
33.66
31.6
29.92
29.18
29.63
31.14
33.26
35.45
37.27
38.45
38.82
38.27
36.7
34.08
30.5
26.24
21.67
17.1
12.71
8.51
4.4
0.25
-4.0
-8.34
-12.65
-16.78
-20.61
-24.13
-27.51
-31.18
-35.71
-41.68
-49.33
-58.25
-67.3
-74.68
-78.47
-77.17
-70.26
-58.38
-43.2
-26.83
-11.29
2.05
12.6
20.41
25.89
29.5
31.57
32.41
32.34
31.83
31.43
31.64
32.68
34.46
36.55
38.48
39.95
40.91
41.54
42.01
42.29
42.09
41.01
38.72
35.17
30.65
25.67
20.8
16.45
12.72
9.44
6.24
2.72
-1.35
-5.88
-10.58
-15.06
-19.01
-22.42
-25.59
-29.06
-33.45
-39.27
-46.63
-55.14
-63.8
-71.06
-75.18
-74.7
-68.88
-58.07
-43.69
-27.81
-12.56
0.45
10.4
17.22
21.28
23.09
23.13
21.85
19.78
17.58
15.95
15.5
16.49
18.81
22.01
25.51
28.76
31.33
32.99
33.59
33.12
31.66
29.44
26.7
23.63
20.29
16.56
12.27
7.42
2.15
-3.17
-8.19
-12.61
-16.38
-19.58
-22.42
-25.25
-28.52
-32.74
-38.35
-45.35
-53.09
-60.17
-64.8
-65.3
-60.81
-51.5
-38.71
-24.33
-10.27
2.01
11.81
18.99
23.79
26.5
27.46
26.98
25.54
23.76
22.32
21.78
22.41
24.14
26.58
29.26
31.71
33.64
34.86
35.27
34.76
33.26
30.72
27.19
22.88
18.12
13.29
8.69
4.47
0.55
-3.23
-7.07
-11.06
-15.1
-19.04
-22.66
-25.88
-28.8
-31.76
-35.3
-39.97
-46.2
-54.02
-62.84
-71.35
-77.78
-80.28
-77.57
-69.42
-56.76
-41.43
-25.55
-11.02
1.0
10.09
16.43
20.48
22.81
23.87
24.09
23.81
23.4
23.19
23.49
24.46
26.04
28.0
30.01
31.8
33.28
34.5
35.56
36.33
36.46
35.46
32.97
28.98
23.95
18.65
13.8
9.9
6.98
4.7
2.53
-0.03
-3.24
-7.1
-11.35
-15.59
-19.53
-23.09
-26.51
-30.3
-35.07
-41.29
-49.08
-57.98
-66.95
-74.45
-78.76
-78.46
-72.87
-62.34
-48.2
-32.39
-16.98
-3.52
7.11
14.77
19.74
22.5
23.47
23.03
21.52
19.43
17.32
15.8
15.44
16.49
18.84
21.95
25.12
27.66
29.15
29.55
29.09
28.03
26.57
24.65
22.16
18.96
15.09
10.76
6.28
1.94
-2.09
-5.72
-8.96
-11.86
-14.55
-17.22
-20.16
-23.76
-28.47
-34.55
-41.83
-49.52
-56.19
-60.08
-59.69
-54.31
-44.35
-31.23
-16.86
-3.05
8.99
18.67
25.93
30.8
33.37
33.76
32.3
29.64
26.66
24.3
23.26
23.78
25.74
28.67
31.96
35.01
37.38
38.78
39.07
38.22
36.25
33.31
29.6
25.36
20.81
16.12
11.26
6.14
0.67
-5.14
-11.08
-16.81
-21.94
-26.27
-29.91
-33.31
-37.15
-42.13
-48.78
-57.08
-66.41
-75.46
-82.47
-85.62
-83.54
-75.78
-63.02
-46.91
-29.58
-13.16
0.88
11.82
19.76
25.2
28.79
31.06
32.39
33.08
33.35
33.5
33.81
34.53
35.76
37.46
39.44
41.38
42.98
44.02
44.38
44.0
42.8
40.72
37.66
33.72
29.13
24.32
19.7
15.46
11.56
7.76
3.82
-0.33
-4.55
-8.66
-12.56
-16.41
-20.55
-25.4
-31.31
-38.48
-46.81
-55.74
-64.21
-70.7
-73.52
-71.35
-63.73
-51.33
-35.85
-19.52
-4.35
8.36
18.07
24.89
29.15
31.17
31.15
29.38
26.41
23.12
20.5
19.46
20.47
23.36
27.49
31.85
35.54
37.97
38.96
38.69
37.52
35.75
33.49
30.7
27.24
23.12
18.43
13.49
8.63
4.16
0.16
-3.45
-6.91
-10.51
-14.57
-19.4
-25.26
-32.3
-40.38
-48.86
-56.54
-61.86
-63.34
-60.0
-51.84
-39.8
-25.57
-11.03
2.19
13.08
21.33
27.03
30.58
32.3
32.52
31.54
29.81
27.94
26.66
26.54
27.82
30.35
33.59
36.91
39.71
41.58
42.27
41.64
39.7
36.63
32.76
28.54
24.37
20.39
16.52
12.51
8.18
3.5
-1.38
-6.2
-10.76
-15.01
-19.07
-23.23
-27.85
-33.38
-40.17
-48.31
-57.31
-66.07
-72.96
-76.28
-74.74
-68.0
-56.71
-42.35
-26.83
-11.92
1.09
11.51
19.23
24.45
27.51
28.79
28.69
27.63
26.17
24.91
24.46
25.29
27.55
31.0
35.09
39.05
42.13
43.82
43.88
42.44
39.79
36.28
32.19
27.64
22.71
17.48
12.09
6.76
1.65
-3.09
-7.43
-11.4
-15.09
-18.7
-22.5
-26.85
-32.16
-38.64
-46.22
-54.28
-61.67
-66.87
-68.38
-65.19
-57.17
-45.18
-30.84
-16.09
-2.54
8.78
17.53
23.79
27.79
29.69
29.64
28.05
25.59
23.25
21.93
22.18
24.02
26.95
30.19
32.99
34.81
35.45
34.93
33.48
31.35
28.85
26.11
23.11
19.64
15.44
10.39
4.63
-1.44
-7.31
-12.53
-16.93
-20.67
-24.22
-28.16
-33.11
-39.48
-47.36
-56.3
-65.21
-72.47
-76.26
-75.1
-68.4
-56.71
-41.6
-25.21
-9.62
3.7
14.06
21.49
26.42
29.39
30.87
31.19
30.71
29.84
29.12
29.11
30.24
32.57
35.84
39.38
42.47
44.48
45.14
44.53
42.96
40.77
38.14
35.07
31.42
27.11
22.19
16.83
11.31
5.9
0.78
-3.99
-8.43
-12.64
-16.8
-21.18
-26.06
-31.73
-38.46
-46.3
-54.91
-63.49
-70.66
-74.72
-74.13
-68.05
-56.8
-41.88
-25.59
-10.2
2.6
12.16
18.73
22.95
25.45
26.58
26.54
25.56
24.17
23.09
23.04
24.45
27.26
30.94
34.75
37.94
40.0
40.76
40.31
38.94
36.94
34.5
31.63
28.21
24.16
19.49
14.36
9.07
3.91
-0.92
-5.38
-9.54
-13.54
-17.55
-21.75
-26.37
-31.76
-38.2
-45.72
-53.8
-61.26
-66.44
-67.63
-63.74
-54.62
-41.36
-25.89
-10.35
3.47
14.55
22.63
27.93
30.83
31.64
30.72
28.55
25.91
23.7
22.77
23.57
25.98
29.43
33.06
36.06
37.93
38.52
37.95
36.44
34.22
31.47
28.32
24.85
21.12
17.04
12.53
7.46
1.84
-4.11
-10.03
-15.53
-20.35
-24.56
-28.47
-32.58
-37.43
-43.45
-50.84
-59.41
-68.38
-76.38
-81.59
-82.23
-77.23
-66.64
-51.8
-34.86
-18.18
-3.56
8.1
16.67
22.5
26.12
28.03
28.67
28.58
28.31
28.31
28.9
30.11
31.85
33.92
36.1
38.18
39.89
40.96
41.16
40.35
38.61
36.15
33.25
30.13
26.89
23.46
19.69
15.47
10.73
5.59
0.29
-4.84
-9.48
-13.5
-16.96
-20.22
-23.75
-28.14
-33.87
-41.12
-49.59
-58.27
-65.56
-69.66
-68.99
-62.91
-51.9
-37.58
-22.11
-7.57
4.58
13.79
20.21
24.34
26.7
27.62
27.32
26.02
24.16
22.38
21.32
21.49
23.01
25.54
28.46
31.05
32.77
33.39
33.05
32.08
30.82
29.4
27.67
25.3
21.9
17.31
11.78
5.93
0.52
-3.83
-6.9
-8.99
-10.73
-12.84
-15.96
-20.54
-26.76
-34.44
-42.94
-51.02
-57.07
-59.41
-56.89
-49.29
-37.51
-23.31
-8.74
4.39
14.95
22.52
27.29
29.69
30.25
29.46
27.78
25.7
23.74
22.42
22.14
23.08
25.03
27.54
29.98
31.81
32.71
32.64
31.73
30.12
27.96
25.31
22.19
18.65
14.73
10.49
5.96
1.2
-3.7
-8.6
-13.27
-17.53
-21.28
-24.63
-27.91
-31.58
-36.26
-42.44
-50.26
-59.26
-68.22
-75.23
-78.26
-75.77
-67.34
-53.95
-37.66
-20.97
-6.04
5.87
14.5
20.3
23.96
26.11
27.2
27.51
27.38
27.19
27.32
28.05
29.44
31.36
33.52
35.67
37.55
39.04
39.98
40.25
39.69
38.19
35.78
32.59
28.83
24.74
20.49
16.21
11.96
7.79
3.7
-0.28
-4.17
-7.95
-11.6
-15.16
-18.74
-22.63
-27.24
-32.91
-39.86
-47.85
-56.13
-63.43
-68.21
-69.05
-65.09
-56.41
-44.09
-29.94
-15.94
-3.63
6.24
13.67
19.09
22.86
25.14
25.88
25.09
23.15
20.76
18.78
17.92
18.56
20.6
23.61
26.99
30.01
32.1
32.85
32.16
30.15
27.2
23.64
19.72
15.58
11.21
6.69
2.25
-1.83
-5.3
-8.09
-10.41
-12.59
-15.05
-18.17
-22.22
-27.38
-33.68
-40.87
-48.28
-54.79
-58.99
-59.53
-55.64
-47.38
-35.73
-22.33
-8.96
2.92
12.41
19.28
23.71
26.07
26.75
26.08
24.41
22.16
19.91
18.28
17.82
18.81
21.13
24.28
27.52
30.13
31.64
31.87
30.9
28.98
26.33
23.15
19.58
15.73
11.64
7.35
2.82
-1.97
-6.95
-11.97
-16.79
-21.25
-25.3
-29.15
-33.1
-37.62
-43.13
-49.87
-57.72
-66.03
-73.56
-78.65
-79.63
-75.44
-66.07
-52.66
-37.2
-21.81
-8.12
3.07
11.69
18.04
22.39
24.87
25.56
24.76
23.09
21.4
20.49
20.84
22.47
25.03
28.04
31.03
33.68
35.76
37.05
37.4
36.66
34.86
32.14
28.75
24.97
21.0
17.0
12.96
8.86
4.63
0.22
-4.36
-8.97
-13.41
-17.44
-20.98
-24.22
-27.65
-31.97
-37.82
-45.45
-54.42
-63.49
-70.85
-74.56
-73.18
-66.32
-54.8
-40.39
-25.27
-11.34
0.23
9.1
15.48
19.79
22.29
23.15
22.48
20.68
18.49
16.83
16.49
17.85
20.74
24.47
28.15
31.1
32.95
33.72
33.67
33.02
31.82
29.88
26.94
22.8
17.5
11.43
5.14
-0.75
-5.79
-9.87
-13.24
-16.32
-19.59
-23.47
-28.3
-34.28
-41.41
-49.36
-57.23
-63.6
-66.79
-65.38
-58.78
-47.55
-33.27
-18.02
-3.71
8.41
17.9
24.84
29.48
32.01
32.57
31.44
29.2
26.69
24.87
24.43
25.65
28.27
31.7
35.24
38.24
40.21
40.93
40.37
38.7
36.16
32.98
29.29
25.13
20.45
15.24
9.6
3.73
-2.12
-7.71
-12.9
-17.67
-22.1
-26.43
-31.0
-36.3
-42.85
-50.94
-60.33
-70.08
-78.59
-83.95
-84.53
-79.45
-68.93
-54.19
-37.14
-19.85
-4.08
9.0
18.88
25.59
29.55
31.36
31.58
30.8
29.57
28.45
28.01
28.76
30.87
34.15
37.99
41.6
44.27
45.64
45.72
44.77
43.13
40.96
38.29
35.04
31.15
26.65
21.64
16.24
10.63
5.03
-0.35
-5.3
-9.73
-13.75
-17.65
-21.88
-26.96
-33.33
-41.19
-50.25
-59.59
-67.67
-72.62
-72.83
-67.46
-56.86
-42.47
-26.35
-10.57
3.34
14.62
23.09
28.89
32.27
33.45
32.79
30.91
28.59
26.73
26.1
27.02
29.35
32.54
35.82
38.55
40.31
41.03
40.83
39.86
38.18
35.65
32.11
27.45
21.8
15.52
9.16
3.2
-2.04
-6.57
-10.71
-14.87
-19.56
-25.18
-32.0
-40.06
-48.98
-57.93
-65.49
-69.96
-69.78
-64.14
-53.35
-38.86
-22.79
-7.31
6.02
16.53
24.26
29.63
33.0
34.59
34.58
33.31
31.37
29.61
28.86
29.62
31.97
35.51
39.5
43.12
45.73
46.92
46.64
45.07
42.49
39.21
35.42
31.22
26.59
21.59
16.3
10.82
5.32
-0.09
-5.3
-10.25
-14.92
-19.35
-23.71
-28.33
-33.73
-40.44
-48.74
-58.35
-68.24
-76.63
-81.4
-80.81
-74.05
-61.65
-45.36
-27.61
-10.73
3.7
15.07
23.6
29.85
34.29
37.13
38.4
38.2
36.95
35.41
34.38
34.41
35.62
37.68
39.99
42.04
43.5
44.28
44.36
43.68
42.1
39.52
36.07
32.08
27.99
24.16
20.64
17.18
13.38
8.96
3.89
-1.56
-6.97
-11.97
-16.4
-20.39
-24.27
-28.58
-33.9
-40.74
-49.16
-58.53
-67.44
-73.91
-75.96
-72.34
-63.01
-49.23
-33.13
-16.96
-2.5
9.26
18.04
24.0
27.38
28.49
27.67
25.49
22.75
20.41
19.32
19.97
22.33
25.81
29.54
32.68
34.7
35.55
35.55
35.06
34.22
32.76
30.21
26.12
20.5
13.86
7.07
0.97
-3.94
-7.71
-10.79
-13.86
-17.49
-22.1
-27.94
-35.0
-42.96
-51.02
-57.86
-61.93
-61.82
-56.81
-47.21
-34.26
-19.77
-5.56
7.02
17.25
24.96
30.27
33.37
34.42
33.59
31.29
28.2
25.25
23.36
23.17
24.76
27.62
30.85
33.51
34.95
34.98
33.84
31.89
29.44
26.54
23.03
18.74
13.59
7.75
1.54
-4.62
-10.35
-15.39
-19.68
-23.34
-26.66
-30.11
-34.21
-39.49
-46.2
-54.2
-62.68
-70.2
-75.03
-75.5
-70.69
-60.7
-46.75
-30.73
-14.72
-0.41
11.22
19.92
25.93
29.71
31.69
32.25
31.8
30.81
29.81
29.36
29.84
31.32
33.54
36.03
38.24
39.72
40.25
39.81
38.51
36.51
33.91
30.78
27.14
23.04
18.53
13.7
8.7
3.72
-1.1
-5.63
-9.82
-13.74
-17.54
-21.43
-25.71
-30.69
-36.69
-43.88
-52.07
-60.5
-67.79
-72.25
-72.38
-67.42
-57.71
-44.57
-29.89
-15.49
-2.66
7.95
16.13
21.9
25.29
26.38
25.42
23.0
20.01
17.45
16.19
16.67
18.79
21.97
25.39
28.25
30.1
30.87
30.76
30.06
28.85
26.92
23.99
19.87
14.76
9.2
3.92
-0.54
-4.06
-6.98
-9.97
-13.74
-18.81
-25.37
-33.19
-41.59
-49.53
-55.65
-58.59
-57.31
-51.51
-41.75
-29.37
-16.1
-3.54
7.21
15.65
21.76
25.76
27.91
28.4
27.45
25.42
22.87
20.54
19.2
19.43
21.35
24.55
28.22
31.38
33.29
33.67
32.74
31.0
28.92
26.69
24.16
20.97
16.81
11.6
5.62
-0.65
-6.65
-11.98
-16.51
-20.42
-24.14
-28.23
-33.25
-39.59
-47.37
-56.21
-65.21
-72.96
-77.85
-78.4
-73.78
-64.11
-50.5
-34.85
-19.24
-5.39
5.69
13.8
19.33
22.85
24.9
25.78
25.72
24.98
24.04
23.44
23.68
24.97
27.16
29.86
32.58
34.97
36.83
38.06
38.55
38.16
36.74
34.25
30.82
26.74
22.34
17.88
13.48
9.12
4.74
0.3
-4.14
-8.44
-12.45
-16.09
-19.45
-22.82
-26.68
-31.56
-37.84
-45.56
-54.18
-62.53
-69.06
-72.15
-70.65
-64.21
-53.53
-40.08
-25.73
-12.23
-0.73
8.29
14.89
19.36
21.94
22.75
21.93
19.89
17.31
15.1
14.16
15.03
17.74
21.78
26.34
30.58
33.84
35.77
36.31
35.56
33.72
31.0
27.54
23.5
19.01
14.25
9.39
4.6
0.02
-4.26
-8.17
-11.73
-15.03
-18.31
-21.93
-26.42
-32.27
-39.69
-48.31
-57.08
-64.39
-68.43
-67.78
-61.97
-51.61
-38.24
-23.81
-10.08
1.76
11.25
18.42
23.48
26.68
28.23
28.39
27.62
26.48
25.61
25.48
26.38
28.29
30.99
34.1
37.14
39.63
41.1
41.27
40.01
37.44
33.84
29.55
24.92
20.24
15.72
11.43
7.33
3.22
-1.13
-5.85
-10.85
-15.85
-20.52
-24.66
-28.35
-32.0
-36.19
-41.45
-48.09
-55.93
-64.23
-71.66
-76.51
-77.15
-72.57
-62.82
-49.07
-33.33
-17.75
-4.07
6.83
14.83
20.28
23.66
25.37
25.73
25.15
24.23
23.59
23.81
25.12
27.4
30.26
33.21
35.87
38.05
39.7
40.76
41.09
40.52
38.89
36.19
32.66
28.7
24.71
21.01
17.6
14.33
10.86
6.96
2.56
-2.17
-6.88
-11.23
-15.0
-18.3
-21.53
-25.29
-30.25
-36.9
-45.34
-55.07
-64.94
-73.23
-78.05
-77.84
-71.91
-60.79
-46.05
-29.89
-14.43
-1.16
9.32
17.07
22.48
25.9
27.51
27.57
26.46
24.92
23.74
23.61
24.82
27.23
30.38
33.69
36.62
38.82
40.05
40.22
39.32
37.42
34.65
31.17
27.13
22.71
18.08
13.37
8.71
4.17
-0.23
-4.52
-8.72
-12.86
-16.98
-21.15
-25.57
-30.56
-36.54
-43.82
-52.35
-61.56
-70.21
-76.61
-79.06
-76.34
-68.28
-55.78
-40.62
-24.9
-10.4
1.72
11.11
17.94
22.58
25.38
26.66
26.72
26.03
25.14
24.63
24.91
26.15
28.28
31.04
34.11
37.17
39.92
42.03
43.22
43.27
42.1
39.71
36.32
32.23
27.8
23.39
19.26
15.49
11.96
8.38
4.43
-0.08
-5.1
-10.42
-15.72
-20.78
-25.62
-30.59
-36.26
-43.19
-51.61
-61.13
-70.65
-78.47
-82.74
-81.98
-75.65
-64.27
-49.37
-32.99
-17.09
-3.18
8.01
16.37
22.19
25.85
27.69
28.01
27.16
25.69
24.28
23.65
24.26
26.18
29.12
32.51
35.74
38.42
40.32
41.39
41.62
40.95
39.32
36.71
33.24
29.11
24.59
19.88
15.09
10.23
5.26
0.18
-4.91
-9.85
-14.49
-18.75
-22.78
-26.96
-31.82
-37.83
-45.21
-53.61
-62.07
-69.08
-72.91
-72.13
-66.04
-55.03
-40.45
-24.29
-8.57
5.16
16.11
24.15
29.55
32.64
33.67
32.92
30.79
28.0
25.48
24.08
24.35
26.31
29.42
32.93
36.08
38.35
39.55
39.65
38.71
36.78
33.92
30.21
25.74
20.62
14.94
8.81
2.44
-3.89
-9.78
-14.92
-19.21
-22.89
-26.46
-30.55
-35.77
-42.54
-50.93
-60.52
-70.26
-78.54
-83.46
-83.4
-77.56
-66.32
-51.16
-34.27
-17.82
-3.4
8.15
16.73
22.71
26.54
28.72
29.64
29.66
29.2
28.72
28.66
29.44
31.23
33.98
37.32
40.68
43.48
45.27
45.86
45.3
43.8
41.54
38.63
35.08
30.88
26.11
20.84
15.29
9.63
4.02
-1.39
-6.51
-11.21
-15.52
-19.59
-23.8
-28.72
-34.98
-42.92
-52.34
-62.34
-71.32
-77.36
-78.75
-74.57
-64.97
-51.21
-35.24
-19.17
-4.66
7.31
16.51
23.13
27.51
29.99
30.78
30.2
28.77
27.23
26.39
26.9
28.95
32.25
36.09
39.71
42.47
44.1
44.63
44.31
43.36
41.87
39.81
37.0
33.25
28.51
22.9
16.75
10.58
4.9
0.01
-4.13
-7.87
-11.71
-16.13
-21.42
-27.7
-34.95
-43.0
-51.4
-59.2
-64.99
-67.2
-64.59
-56.85
-44.79
-30.13
-14.94
-0.96
10.8
20.02
26.8
31.31
33.63
33.9
32.44
30.0
27.56
26.08
26.15
27.76
30.36
33.14
35.37
36.58
36.74
36.05
34.81
33.23
31.32
28.97
25.97
22.18
17.58
12.38
6.92
1.6
-3.27
-7.61
-11.61
-15.6
-19.99
-25.1
-31.22
-38.49
-46.91
-56.11
-65.13
-72.51
-76.5
-75.63
-69.29
-58.0
-43.28
-27.2
-11.74
1.73
12.51
20.54
26.03
29.35
30.87
31.03
30.37
29.51
29.0
29.33
30.67
32.96
35.89
39.01
41.86
44.12
45.53
45.98
45.37
43.72
41.15
37.9
34.26
30.5
26.68
22.72
18.45
13.75
8.63
3.23
-2.26
-7.7
-12.94
-17.88
-22.54
-27.0
-31.71
-37.29
-44.43
-53.38
-63.64
-73.76
-81.67
-85.27
-83.2
-75.32
-62.71
-47.29
-31.21
-16.23
-3.49
6.58
14.03
19.19
22.44
24.26
25.16
25.7
26.39
27.57
29.35
31.61
34.06
36.46
38.65
40.68
42.63
44.45
45.88
46.47
45.79
43.64
40.18
35.88
31.26
26.75
22.49
18.37
14.22
9.89
5.4
0.84
-3.65
-8.0
-12.2
-16.32
-20.52
-25.01
-30.14
-36.34
-43.92
-52.76
-62.07
-70.32
-75.56
-76.02
-70.81
-60.27
-45.94
-30.02
-14.66
-1.36
9.24
17.17
22.81
26.5
28.42
28.7
27.59
25.68
23.75
22.63
22.86
24.55
27.27
30.38
33.16
35.11
36.06
36.07
35.31
33.87
31.81
29.07
25.68
21.71
17.31
12.61
7.76
2.83
-2.08
-6.93
-11.61
-16.05
-20.25
-24.25
-28.34
-32.94
-38.62
-45.74
-54.17
-63.05
-70.76
-75.34
-75.14
-69.43
-58.71
-44.56
-29.06
-14.18
-1.29
9.02
16.74
22.19
25.76
27.83
28.73
28.82
28.51
28.2
28.29
29.04
30.58
32.81
35.51
38.3
40.8
42.65
43.52
43.18
41.5
38.51
34.45
29.75
24.87
20.18
15.84
11.75
7.71
3.48
-1.01
-5.72
-10.47
-15.08
-19.47
-23.64
-27.74
-32.1
-37.22
-43.59
-51.55
-60.82
-70.36
-78.39
-82.81
-81.94
-75.17
-63.23
-47.95
-31.64
-16.31
-3.24
7.2
15.17
21.02
25.01
27.29
28.01
27.51
26.31
25.05
24.37
24.71
26.22
28.74
31.83
34.91
37.42
38.98
39.48
39.02
37.77
35.87
33.39
30.31
26.67
22.61
18.29
13.82
9.23
4.5
-0.37
-5.24
-9.92
-14.28
-18.37
-22.51
-27.21
-33.0
-40.23
-48.81
-58.02
-66.58
-72.81
-75.03
-72.14
-63.97
-51.47
-36.39
-20.83
-6.53
5.5
14.94
21.99
26.94
29.97
31.15
30.69
29.06
27.02
25.45
25.09
26.17
28.49
31.47
34.42
36.8
38.26
38.65
37.98
36.33
33.83
30.62
26.78
22.36
17.36
11.85
6.03
0.2
-5.27
-10.18
-14.54
-18.57
-22.56
-26.81
-31.58
-37.08
-43.58
-51.24
-59.81
-68.34
-75.26
-78.68
-77.04
-69.82
-57.73
-42.57
-26.53
-11.56
1.15
11.16
18.61
23.79
27.04
28.7
29.15
28.9
28.48
28.38
28.88
30.08
31.9
34.13
36.49
38.66
40.34
41.28
41.35
40.46
38.68
36.14
33.03
29.55
25.86
22.02
17.95
13.54
8.75
3.67
-1.49
-6.43
-10.99
-15.2
-19.33
-23.8
-29.14
-35.8
-44.0
-53.54
-63.55
-72.57
-78.72
-80.27
-76.23
-66.74
-53.09
-37.28
-21.42
-7.14
4.67
13.81
20.48
24.99
27.6
28.55
28.21
27.09
25.82
25.08
25.35
26.81
29.28
32.32
35.3
37.68
39.05
39.3
38.58
37.16
35.31
33.06
30.21
26.43
21.51
15.56
9.13
2.94
-2.37
-6.57
-9.87
-12.9
-16.33
-20.7
-26.26
-33.04
-40.81
-49.08
-56.96
-63.15
-66.13
-64.64
-58.12
-47.08
-32.98
-17.77
-3.33
9.02
18.68
25.59
29.96
32.05
32.19
30.83
28.6
26.3
24.66
24.21
25.1
27.14
29.87
32.7
35.05
36.5
36.87
36.21
34.74
32.72
30.24
27.23
23.45
18.75
13.15
6.97
0.69
-5.26
-10.62
-15.36
-19.67
-23.8
-28.1
-32.97
-38.92
-46.35
-55.29
-65.08
-74.33
-81.11
-83.59
-80.6
-72.1
-59.2
-43.84
-28.13
-13.78
-1.77
7.68
14.87
20.3
24.4
27.42
29.51
30.77
31.47
31.97
32.69
33.96
35.89
38.33
40.95
43.33
45.1
46.0
45.87
44.69
42.54
39.56
35.97
32.0
27.84
23.54
19.02
14.15
8.87
3.28
-2.37
-7.76
-12.67
-17.12
-21.4
-25.98
-31.42
-38.19
-46.47
-56.03
-66.02
-75.02
-81.23
-82.96
-79.18
-69.96
-56.52
-40.84
-25.06
-10.81
1.04
10.38
17.44
22.56
25.91
27.62
27.89
27.17
26.18
25.65
26.17
27.95
30.75
34.02
37.06
39.31
40.45
40.51
39.73
38.36
36.53
34.17
31.05
26.95
21.83
15.96
9.82
3.93
-1.32
-5.82
-9.71
-13.31
-17.02
-21.26
-26.41
-32.79
-40.37
-48.65
-56.47
-62.18
-64.09
-61.07
-52.95
-40.71
-26.02
-10.85
3.21
15.13
24.49
31.23
35.42
37.22
36.89
34.97
32.27
29.73
28.17
28.06
29.39
31.67
34.21
36.32
37.54
37.66
36.74
34.94
32.42
29.28
25.55
21.24
16.4
11.13
5.58
-0.09
-5.67
-10.93
-15.68
-19.85
-23.48
-26.91
-30.63
-35.28
-41.39
-49.16
-58.22
-67.57
-75.69
-80.84
-81.54
-76.99
-67.35
-53.77
-38.0
-22.01
-7.37
4.95
14.61
21.75
26.7
29.81
31.39
31.81
31.53
31.07
30.98
31.64
33.16
35.34
37.84
40.2
42.05
43.13
43.31
42.57
40.97
38.65
35.79
32.55
29.04
25.31
21.35
17.18
12.82
8.35
3.8
-0.78
-5.34
-9.82
-14.11
-18.24
-22.35
-26.85
-32.32
-39.26
-47.84
-57.57
-67.23
-75.05
-79.14
-78.09
-71.38
-59.6
-44.27
-27.47
-11.19
3.02
14.31
22.57
28.14
31.53
33.24
33.68
33.2
32.22
31.26
30.82
31.25
32.64
34.71
37.05
39.24
41.04
42.32
42.96
42.8
41.6
39.23
35.73
31.43
26.79
22.16
17.74
13.5
9.3
5.06
0.75
-3.51
-7.64
-11.53
-15.18
-18.65
-22.16
-26.05
-30.76
-36.78
-44.3
-53.04
-62.03
-69.72
-74.29
-74.23
-68.81
-58.37
-44.33
-28.66
-13.36
0.1
10.92
18.95
24.3
27.09
27.49
25.79
22.59
18.92
16.01
14.9
16.11
19.39
23.84
28.28
31.69
33.5
33.73
32.79
31.18
29.23
26.97
24.19
20.61
16.12
10.86
5.22
-0.31
-5.34
-9.67
-13.39
-16.81
-20.41
-24.66
-29.99
-36.61
-44.43
-52.91
-60.98
-67.23
-70.09
-68.35
-61.54
-50.18
-35.65
-19.88
-4.75
8.32
18.64
26.07
30.85
33.29
33.69
32.42
30.05
27.33
25.1
24.02
24.38
26.07
28.6
31.38
33.81
35.43
35.96
35.3
33.61
31.15
28.25
25.11
21.75
18.04
13.79
8.97
3.72
-1.72
-7.09
-12.23
-17.09
-21.65
-25.96
-30.11
-34.4
-39.35
-45.49
-53.12
-61.88
-70.68
-77.73
-81.13
-79.4
-72.09
-59.88
-44.47
-28.01
-12.53
0.56
10.64
17.74
22.3
24.85
25.9
25.87
25.21
24.46
24.19
24.81
26.48
29.01
31.94
34.72
36.88
38.17
38.6
38.28
37.36
35.91
33.92
31.38
28.29
24.73
20.79
16.6
12.15
7.45
2.5
-2.61
-7.7
-12.55
-17.0
-21.09
-25.1
-29.48
-34.76
-41.37
-49.38
-58.31
-67.02
-73.78
-76.75
-74.53
-66.68
-53.95
-38.12
-21.39
-5.73
7.52
17.82
25.17
29.83
32.14
32.46
31.26
29.22
27.1
25.65
25.43
26.64
29.11
32.35
35.72
38.57
40.43
41.09
40.62
39.19
36.96
34.03
30.43
26.21
21.54
16.59
11.54
6.4
1.09
-4.49
-10.28
-16.06
-21.47
-26.37
-30.87
-35.46
-40.76
-47.38
-55.58
-65.03
-74.76
-83.23
-88.59
-89.17
-83.99
-73.18
-57.99
-40.51
-23.01
-7.37
5.28
14.73
21.26
25.44
27.81
28.85
29.0
28.76
28.64
29.04
30.21
32.09
34.43
36.9
39.16
41.03
42.34
43.01
42.94
42.04
40.24
37.54
34.08
30.09
25.82
21.53
17.35
13.26
9.12
4.79
0.18
-4.63
-9.42
-13.98
-18.26
-22.44
-27.01
-32.52
-39.46
-47.97
-57.67
-67.48
-75.82
-80.87
-81.09
-75.74
-65.18
-50.83
-34.69
-18.9
-5.0
6.15
14.49
20.33
24.11
26.16
26.74
26.16
24.9
23.7
23.26
24.11
26.37
29.65
33.31
36.67
39.22
40.75
41.25
40.76
39.35
37.03
33.88
30.05
25.75
21.2
16.55
11.86
7.2
2.63
-1.72
-5.76
-9.47
-13.02
-16.74
-20.99
-26.13
-32.37
-39.66
-47.67
-55.58
-62.18
-66.01
-65.69
-60.39
-50.26
-36.4
-20.68
-5.12
8.61
19.61
27.65
33.05
36.25
37.62
37.45
36.05
33.85
31.47
29.63
28.96
29.81
32.13
35.43
38.97
41.96
43.77
44.11
42.97
40.57
37.15
32.93
28.02
22.5
16.5
10.2
3.86
-2.26
-7.95
-13.1
-17.7
-21.8
-25.57
-29.32
-33.48
-38.58
-45.09
-53.16
-62.39
-71.63
-79.19
-83.15
-82.01
-75.18
-63.14
-47.41
-30.03
-13.05
1.88
13.82
22.55
28.35
31.82
33.62
34.33
34.37
34.09
33.82
33.92
34.7
36.3
38.65
41.43
44.23
46.73
48.63
49.8
50.07
49.21
47.05
43.56
38.99
33.78
28.5
23.52
18.94
14.59
10.12
5.3
0.07
-5.35
-10.63
-15.49
-19.93
-24.26
-29.04
-34.93
-42.39
-51.44
-61.5
-71.37
-79.36
-83.77
-83.22
-77.16
-66.04
-51.17
-34.47
-17.86
-2.91
9.45
18.88
25.49
29.55
31.4
31.44
30.18
28.27
26.48
25.5
25.76
27.36
29.97
33.02
35.83
37.89
38.91
38.88
38.02
36.59
34.79
32.59
29.82
26.19
21.53
15.91
9.62
3.19
-2.87
-8.17
-12.63
-16.48
-20.14
-24.17
-29.07
-35.19
-42.52
-50.61
-58.46
-64.66
-67.66
-66.19
-59.72
-48.68
-34.47
-19.0
-4.18
8.56
18.51
25.58
30.12
32.52
33.18
32.43
30.67
28.46
26.46
25.32
25.48
27.02
29.67
32.9
36.05
38.54
39.95
40.08
38.91
36.61
33.42
29.63
25.5
21.15
16.6
11.75
6.51
0.91
-4.87
-10.54
-15.79
-20.47
-24.64
-28.55
-32.66
-37.52
-43.66
-51.44
-60.78
-70.92
-80.3
-86.92
-88.81
-84.75
-74.72
-59.98
-42.65
-25.07
-9.12
4.04
14.1
21.24
25.93
28.72
30.16
30.8
31.16
31.68
32.64
34.19
36.25
38.62
41.03
43.21
44.96
46.13
46.67
46.51
45.54
43.63
40.65
36.62
31.79
26.56
21.38
16.55
12.13
7.95
3.77
-0.56
-4.98
-9.29
-13.29
-16.93
-20.38
-24.0
-28.29
-33.72
-40.7
-49.31
-59.07
-68.78
-76.66
-80.74
-79.47
-72.36
-60.22
-44.88
-28.68
-13.64
-1.05
8.73
15.92
21.0
24.39
26.32
26.97
26.59
25.59
24.5
23.88
24.14
25.45
27.7
30.48
33.29
35.62
37.15
37.75
37.47
36.42
34.69
32.29
29.24
25.56
21.4
16.95
12.37
7.77
3.14
-1.51
-6.12
-10.57
-14.75
-18.67
-22.57
-26.93
-32.29
-39.04
-47.11
-55.81
-63.79
-69.33
-70.8
-67.2
-58.44
-45.48
-30.03
-14.05
0.75
13.24
22.9
29.7
33.86
35.68
35.56
34.03
31.77
29.58
28.18
27.98
29.03
31.01
33.44
35.86
37.93
39.48
40.38
40.44
39.44
37.22
33.8
29.44
24.59
19.76
15.33
11.43
7.95
4.59
1.08
-2.79
-7.02
-11.45
-15.85
-20.03
-23.99
-27.96
-32.45
-38.06
-45.31
-54.26
-64.33
-74.17
-81.95
-85.77
-84.24
-77.0
-64.85
-49.56
-33.29
-17.96
-4.8
5.73
13.78
19.7
23.81
26.29
27.38
27.42
26.97
26.64
26.93
28.11
30.11
32.69
35.47
38.14
40.43
42.17
43.19
43.33
42.44
40.4
37.21
33.06
28.32
23.55
19.28
15.83
13.12
10.71
7.96
4.36
-0.23
-5.53
-10.99
-16.06
-20.48
-24.41
-28.39
-33.12
-39.2
-46.87
-55.73
-64.71
-72.13
-76.15
-75.23
-68.66
-56.93
-41.61
-24.92
-9.02
4.49
14.85
22.08
26.59
28.88
29.44
28.68
27.18
25.58
24.58
24.66
25.98
28.34
31.29
34.36
37.1
39.23
40.56
40.94
40.3
38.62
35.98
32.53
28.45
23.94
19.19
14.33
9.45
4.54
-0.42
-5.45
-10.48
-15.34
-19.81
-23.73
-27.16
-30.42
-34.09
-38.85
-45.29
-53.54
-63.15
-72.87
-80.94
-85.38
-84.64
-78.09
-66.31
-50.93
-34.18
-18.19
-4.48
6.26
14.1
19.5
23.05
25.21
26.32
26.71
26.71
26.68
27.0
27.88
29.38
31.33
33.48
35.59
37.5
39.22
40.74
42.05
42.96
43.14
42.18
39.81
36.06
31.32
26.25
21.52
17.48
14.03
10.61
6.57
1.5
-4.51
-10.89
-16.9
-22.01
-26.15
-29.81
-33.76
-38.75
-45.3
-53.4
-62.54
-71.59
-78.95
-82.85
-81.79
-75.09
-63.22
-47.77
-30.96
-14.98
-1.36
9.25
16.95
22.16
25.33
26.76
26.64
25.33
23.41
21.69
20.92
21.59
23.71
26.85
30.29
33.31
35.43
36.49
36.6
35.99
34.81
33.05
30.52
27.05
22.52
17.08
11.07
5.05
-0.46
-5.07
-8.68
-11.54
-14.09
-16.86
-20.34
-24.88
-30.72
-37.83
-45.87
-53.97
-60.78
-64.65
-64.18
-58.67
-48.52
-35.11
-20.38
-6.21
6.06
15.82
23.01
27.87
30.64
31.53
30.82
28.94
26.54
24.4
23.21
23.44
25.17
28.07
31.52
34.74
37.05
38.01
37.5
35.71
32.99
29.7
26.05
22.12
17.86
13.26
8.33
3.17
-2.12
-7.42
-12.63
-17.61
-22.3
-26.67
-30.86
-35.25
-40.36
-46.73
-54.66
-63.9
-73.44
-81.67
-86.61
-86.53
-80.56
-68.99
-53.31
-35.73
-18.5
-3.34
8.83
17.88
24.15
28.08
30.13
30.71
30.3
29.51
28.91
28.99
29.94
31.71
34.06
36.73
39.51
42.21
44.64
46.49
47.41
47.07
45.35
42.38
38.55
34.36
30.23
26.37
22.74
19.08
15.07
10.51
5.4
-0.02
-5.38
-10.39
-14.91
-19.13
-23.5
-28.61
-35.04
-43.08
-52.52
-62.5
-71.5
-77.62
-79.09
-74.85
-64.92
-50.55
-33.81
-17.04
