0
50.3
58.45
64.58
68.24
69.29
67.81
64.0
58.12
50.49
41.5
31.66
21.61
11.99
3.41
-3.82
-9.72
-14.65
-19.18
-23.92
-29.3
-35.45
-42.17
-48.93
-55.14
-60.36
-64.46
-67.8
-71.14
-75.53
-82.08
-91.67
-104.51
-119.7
-134.92
-146.56
-150.5
-143.29
-123.45
-92.22
-53.4
-12.28
25.89
57.19
79.66
93.15
98.67
97.65
91.47
81.41
68.78
55.08
42.07
31.54
25.02
23.38
26.57
33.6
42.83
52.39
60.72
66.84
70.39
71.43
70.14
66.67
61.1
53.58
44.5
34.48
24.28
14.6
5.92
-1.59
-7.99
-13.5
-18.44
-23.18
-28.09
-33.51
-39.56
-46.1
-52.67
-58.69
-63.68
-67.52
-70.65
-73.94
-78.6
-85.87
-96.59
-110.8
-127.18
-142.93
-153.98
-155.98
-145.64
-122.01
-87.08
-45.38
-2.66
35.74
66.19
87.22
99.16
103.32
101.24
94.3
83.75
70.97
57.64
45.66
36.82
32.42
32.89
37.7
45.52
54.67
63.51
70.81
75.86
78.39
78.41
76.07
71.54
65.06
56.93
47.62
37.72
27.88
18.75
10.83
4.31
-0.92
-5.3
-9.49
-14.09
-19.5
-25.74
-32.46
-39.11
-45.12
-50.2
-54.38
-58.12
-62.12
-67.34
-74.78
-85.26
-98.96
-114.94
-130.75
-142.64
-146.4
-138.7
-118.33
-86.88
-48.42
-8.25
28.58
58.48
79.78
92.42
97.3
95.65
88.71
77.81
64.54
50.83
38.69
29.98
25.89
26.7
31.73
39.53
48.39
56.73
63.52
68.35
71.19
72.13
71.04
67.59
61.48
52.71
41.93
30.33
19.38
10.26
3.45
-1.39
-5.26
-9.27
-14.21
-20.22
-26.76
-32.92
-37.87
-41.21
-43.19
-44.66
-46.81
-50.89
-57.85
-68.08
-81.06
-95.2
-107.79
-115.41
-114.79
-103.79
-82.22
-52.17
-17.47
17.38
48.37
72.79
89.5
98.54
100.63
96.69
87.76
75.14
60.56
46.19
34.3
26.79
24.62
27.53
34.19
42.62
50.89
57.64
62.21
64.6
64.99
63.52
60.04
54.33
46.35
36.49
25.66
15.06
5.79
-1.53
-7.02
-11.43
-15.77
-20.95
-27.37
-34.72
-42.19
-48.8
-53.8
-57.02
-59.01
-60.87
-64.02
-69.77
-79.02
-91.78
-106.86
-121.73
-132.85
-136.4
-129.43
-110.88
-82.23
-47.12
-10.44
23.09
50.12
69.13
80.33
84.91
84.36
79.98
72.79
63.77
54.14
45.32
38.78
35.7
36.5
40.74
47.22
54.42
60.91
65.72
68.46
69.23
68.26
65.7
61.52
55.57
47.87
38.73
28.88
19.31
10.9
4.2
-0.82
-4.68
-8.18
-12.16
-17.15
-23.32
-30.33
-37.56
-44.23
-49.7
-53.75
-56.76
-59.64
-63.62
-69.9
-79.26
-91.72
-106.18
-120.36
-131.01
-134.53
-127.98
-110.15
-82.17
-47.49
-10.93
22.69
49.86
69.0
80.37
85.3
85.31
81.62
75.04
66.34
56.58
47.2
39.82
35.76
35.57
38.83
44.33
50.59
56.3
60.68
63.47
64.7
64.42
62.52
58.81
53.17
45.76
37.04
27.66
18.34
9.73
2.28
-3.73
-8.38
-12.0
-15.28
-18.95
-23.59
-29.28
-35.6
-41.81
-47.15
-51.32
-54.51
-57.44
-61.09
-66.47
-74.4
-85.33
-99.01
-114.11
-128.08
-137.38
-138.35
-128.41
-107.2
-76.88
-41.72
-6.7
23.9
47.49
63.39
72.27
75.29
73.56
67.91
59.21
48.73
38.2
29.62
24.7
24.33
28.28
35.33
43.74
51.85
58.47
63.16
65.93
66.96
66.32
63.82
59.17
52.28
43.43
33.37
23.21
13.98
6.4
0.61
-3.9
-8.02
-12.65
-18.33
-25.0
-31.99
-38.41
-43.56
-47.31
-50.25
-53.48
-58.26
-65.64
-76.11
-89.39
-104.23
-118.32
-128.54
-131.48
-124.46
-106.55
-79.09
-45.57
-10.61
21.36
47.21
65.64
76.85
81.83
81.68
77.37
69.78
60.03
49.63
40.34
33.84
31.21
32.72
37.77
45.13
53.28
60.78
66.51
69.83
70.59
69.02
65.54
60.57
54.4
47.2
39.15
30.5
21.64
13.11
5.41
-1.15
-6.51
-10.98
-15.06
-19.41
-24.5
-30.52
-37.21
-43.99
-50.19
-55.36
-59.5
-63.14
-67.17
-72.66
-80.57
-91.5
-105.37
-121.08
-136.25
-147.43
-150.75
-143.07
-123.21
-92.52
-54.81
-15.26
21.06
50.47
71.32
83.83
89.35
89.59
85.92
79.41
70.9
61.4
52.26
44.95
40.8
40.46
43.78
49.79
57.1
64.42
70.77
75.65
78.8
80.05
79.2
76.09
70.81
63.78
55.64
47.11
38.78
30.92
23.6
16.76
10.36
4.39
-1.19
-6.56
-11.99
-17.76
-24.0
-30.63
-37.3
-43.59
-49.2
-54.07
-58.55
-63.24
-69.0
-76.69
-87.09
-100.43
-115.98
-131.71
-144.27
-149.71
-144.62
-127.45
-99.24
-63.52
-25.26
10.59
40.36
62.27
76.2
83.01
83.85
79.83
72.06
61.79
50.61
40.25
32.43
28.44
28.82
33.27
40.7
49.57
58.27
65.56
70.73
73.66
74.46
73.29
70.14
64.85
57.36
47.93
37.25
26.36
16.29
7.79
1.1
-4.12
-8.54
-12.93
-17.85
-23.47
-29.65
-35.95
-41.82
-46.83
-50.75
-53.6
-55.78
-58.11
-61.66
-67.61
-76.87
-89.45
-104.04
-117.89
-127.22
-128.21
-118.28
-97.0
-66.49
-30.85
5.05
36.9
61.88
78.93
88.35
91.11
88.24
80.64
69.35
55.75
41.84
29.9
22.05
19.57
22.49
29.66
39.12
48.81
57.15
63.31
67.16
68.91
68.81
66.82
62.71
56.28
47.61
37.24
26.15
15.47
6.2
-1.2
-6.81
-11.29
-15.54
-20.4
-26.32
-33.19
-40.36
-46.96
-52.27
-56.08
-58.92
-61.89
-66.38
-73.62
-84.32
-98.26
-114.11
-129.33
-140.45
-143.74
-136.3
-117.04
-87.35
-50.89
-12.63
22.57
51.17
71.6
84.04
89.66
89.85
85.74
78.23
68.33
57.41
47.23
39.59
35.76
36.18
40.3
46.9
54.54
61.95
68.19
72.69
75.1
75.21
72.95
68.4
61.84
53.65
44.35
34.44
24.49
15.03
6.56
-0.64
-6.54
-11.42
-15.8
-20.25
-25.17
-30.66
-36.46
-42.11
-47.14
-51.24
-54.52
-57.42
-60.76
-65.5
-72.62
-82.79
-96.05
-111.35
-126.33
-137.49
-140.9
-133.45
-113.97
-83.92
-47.09
-8.5
26.97
55.9
76.7
89.48
95.26
95.35
90.89
82.9
72.49
61.03
50.16
41.53
36.44
35.54
38.64
44.78
52.5
60.2
66.59
70.88
72.82
72.53
70.25
66.19
60.4
52.99
44.22
34.6
24.84
15.68
7.62
0.82
-4.91
-9.98
-14.92
-20.22
-26.21
-32.97
-40.23
-47.41
-53.77
-58.76
-62.28
-64.86
-67.55
-71.71
-78.51
-88.57
-101.56
-115.95
-129.05
-137.4
-137.51
-126.99
-105.43
-74.73
-38.8
-2.42
30.03
55.6
73.12
82.89
85.99
83.63
76.84
66.57
54.06
40.98
29.38
21.23
17.88
19.61
25.55
34.09
43.4
52.03
59.12
64.29
67.43
68.31
66.59
61.98
54.44
44.48
33.13
21.76
11.66
3.64
-2.3
-6.9
-11.37
-16.8
-23.64
-31.48
-39.25
-45.7
-50.07
-52.49
-54.02
-56.29
-60.98
-69.25
-81.35
-96.33
-112.02
-125.25
-132.4
-130.29
-117.13
-93.27
-61.36
-25.63
9.19
39.16
61.91
76.78
84.39
85.86
82.38
74.99
64.76
53.09
41.74
32.58
27.19
26.41
30.03
36.97
45.64
54.38
61.9
67.43
70.68
71.65
70.44
67.12
61.79
54.57
45.77
35.87
25.52
15.49
6.46
-1.18
-7.4
-12.58
-17.4
-22.57
-28.53
-35.24
-42.18
-48.6
-53.85
-57.72
-60.61
-63.37
-67.11
-72.88
-81.42
-93.0
-107.09
-122.08
-135.17
-142.7
-141.05
-127.83
-102.93
-68.89
-30.21
7.93
41.12
66.67
83.85
93.25
96.12
93.73
87.22
77.7
66.51
55.33
45.96
39.97
38.29
40.89
46.76
54.26
61.65
67.57
71.45
73.33
73.61
72.53
69.91
65.33
58.41
49.21
38.41
27.12
16.56
7.61
0.58
-4.87
-9.44
-13.95
-19.0
-24.81
-31.16
-37.53
-43.25
-47.86
-51.3
-54.04
-57.02
-61.38
-68.21
-78.2
-91.34
-106.56
-121.72
-133.66
-138.91
-134.56
-119.25
-93.89
-61.46
-26.31
7.04
35.06
55.76
68.7
74.46
74.13
68.84
59.8
48.36
36.22
25.28
17.38
13.85
15.11
20.61
28.98
38.52
47.7
55.48
61.34
65.04
66.38
65.05
60.85
53.96
45.09
35.48
26.51
19.13
13.51
8.99
4.42
-1.24
-8.37
-16.53
-24.67
-31.6
-36.63
-39.9
-42.36
-45.49
-50.81
-59.35
-71.22
-85.28
-99.1
-109.38
-112.63
-106.27
-89.5
-63.74
-32.33
0.42
30.43
54.78
72.11
82.43
86.51
85.28
79.67
70.59
59.17
46.99
35.93
27.86
24.07
24.9
29.68
36.89
44.76
51.79
57.06
60.26
61.45
60.66
57.8
52.61
44.94
35.07
23.84
12.59
2.68
-5.02
-10.48
-14.53
-18.49
-23.52
-30.11
-37.82
-45.57
-52.2
-56.95
-59.9
-61.93
-64.42
-68.84
-76.34
-87.3
-101.03
-115.5
-127.55
-133.45
-129.93
-115.32
-90.27
-57.71
-22.07
12.03
41.0
62.9
77.42
85.3
87.66
85.61
80.1
72.2
63.18
54.56
47.85
44.23
44.19
47.38
52.76
58.93
64.6
68.9
71.51
72.51
72.04
70.12
66.48
60.78
52.93
43.26
32.68
22.4
13.5
6.54
1.28
-3.12
-7.78
-13.54
-20.59
-28.44
-36.17
-42.83
-47.87
-51.41
-54.17
-57.32
-62.14
-69.71
-80.55
-94.26
-109.22
-122.6
-130.85
-130.6
-119.83
-98.63
-69.42
-36.23
-3.48
25.13
47.41
62.69
71.36
74.26
72.28
66.32
57.48
47.19
37.2
29.25
24.65
23.97
26.91
32.5
39.46
46.51
52.68
57.34
60.15
60.91
59.5
55.86
50.1
42.61
34.09
25.4
17.32
10.31
4.31
-1.15
-6.71
-12.81
-19.41
-25.98
-31.82
-36.39
-39.74
-42.57
-46.12
-51.78
-60.57
-72.59
-86.65
-100.18
-109.68
-111.64
-103.71
-85.56
-59.2
-28.32
2.75
30.4
52.4
68.06
77.67
81.91
81.38
76.61
68.36
57.87
46.94
37.61
31.6
29.87
32.27
37.74
44.62
51.3
56.61
59.99
61.41
61.02
58.87
54.85
48.75
40.55
30.67
20.01
9.77
1.07
-5.51
-10.22
-13.99
-18.06
-23.38
-30.13
-37.69
-44.84
-50.43
-53.96
-55.87
-57.41
-60.19
-65.67
-74.7
-87.27
-102.32
-117.7
-130.33
-136.73
-133.82
-120.03
-95.96
-64.5
-30.06
2.74
30.33
50.93
64.49
72.07
74.9
74.0
70.02
63.62
55.81
48.05
41.94
38.74
38.92
42.07
47.07
52.58
57.47
61.15
63.42
64.35
64.02
62.32
58.99
53.84
46.83
38.3
28.92
19.58
11.2
4.32
-1.04
-5.47
-9.9
-15.19
-21.68
-29.02
-36.35
-42.69
-47.48
-50.83
-53.58
-56.92
-62.1
-70.0
-80.91
-94.31
-108.67
-121.49
-129.62
-130.0
-120.6
-101.27
-73.98
-42.34
-10.57
17.68
40.14
56.11
66.05
70.85
71.43
68.49
62.72
55.09
46.86
39.49
34.32
32.17
33.2
36.89
42.27
48.24
53.75
57.97
60.32
60.46
58.28
53.89
47.61
39.92
31.42
22.73
14.36
6.6
-0.53
-7.27
-13.88
-20.51
-27.03
-33.1
-38.36
-42.69
-46.42
-50.28
-55.3
-62.35
-71.8
-83.07
-94.48
-103.35
-106.63
-101.8
-87.71
-65.16
-36.84
-6.52
21.92
45.54
62.84
73.66
78.8
79.32
76.26
70.46
62.76
54.15
45.9
39.37
35.77
35.69
38.98
44.75
51.63
58.18
63.17
65.8
65.73
62.92
57.69
50.54
42.17
33.27
24.36
15.76
7.43
-0.77
-9.03
-17.32
-25.39
-32.85
-39.34
-44.68
-49.01
-52.87
-57.09
-62.65
-70.41
-80.61
-92.56
-104.35
-113.01
-115.27
-108.55
-92.01
-67.0
-36.79
-5.63
22.51
44.93
60.51
69.43
72.55
70.79
64.94
55.79
44.36
32.14
20.94
12.55
8.29
8.63
13.1
20.45
29.05
37.3
43.94
48.22
49.77
48.5
44.55
38.3
30.33
21.4
12.3
3.54
-4.69
-12.48
-19.98
-27.16
-33.77
-39.41
-43.84
-47.11
-49.63
-52.14
-55.49
-60.5
-67.64
-76.74
-86.65
-95.13
-99.22
-96.1
-84.13
-63.61
-36.86
-7.55
20.43
44.06
61.64
72.78
77.8
77.29
71.93
62.54
50.34
37.06
24.69
15.18
9.98
9.66
13.87
21.42
30.59
39.52
46.65
50.94
52.03
50.1
45.67
39.36
31.73
23.21
14.11
4.67
-4.91
-14.46
-23.83
-32.85
-41.33
-49.05
-55.85
-61.72
-66.93
-72.12
-78.25
-86.3
-96.81
-109.25
-121.72
-131.04
-133.56
-126.31
-108.13
-80.25
-46.12
-10.32
22.64
49.47
68.56
79.83
84.2
82.94
77.32
68.54
57.85
46.6
36.25
28.23
23.67
23.13
26.43
32.72
40.73
49.07
56.53
62.25
65.6
66.18
63.72
58.25
50.21
40.51
30.36
20.84
12.49
5.12
-1.98
-9.57
-18.03
-27.08
-35.96
-43.82
-50.16
-55.07
-59.3
-64.05
-70.6
-79.99
-92.45
-106.99
-121.18
-131.41
-133.82
-125.53
-105.79
-76.48
-41.65
-6.29
25.14
49.78
66.65
76.28
79.78
78.32
72.8
64.09
53.34
42.11
32.22
25.27
22.19
23.06
27.22
33.57
41.03
48.67
55.74
61.54
65.28
66.25
63.98
58.49
50.36
40.54
30.09
19.83
10.16
1.1
-7.6
-16.15
-24.62
-32.82
-40.36
-46.84
-52.12
-56.45
-60.54
-65.47
-72.29
-81.55
-92.77
-104.17
-112.87
-115.59
-109.57
-93.64
-68.73
-37.73
-4.67
26.34
52.13
70.95
82.38
86.85
85.18
78.28
67.24
53.42
38.6
24.87
14.29
8.49
8.22
13.11
21.78
32.18
42.15
49.98
54.7
56.2
54.89
51.45
46.43
40.1
32.58
23.92
14.28
4.0
-6.46
-16.58
-25.91
-34.19
-41.4
-47.77
-53.8
-60.22
-67.89
-77.51
-89.25
-102.28
-114.6
-123.12
-124.5
-116.13
-97.16
-68.99
-35.02
0.31
32.69
58.99
77.63
88.5
92.35
90.3
83.51
73.16
60.58
47.35
35.25
26.05
21.08
20.88
25.11
32.5
41.31
49.73
56.29
60.15
61.06
59.24
55.12
49.12
41.61
32.87
23.22
12.95
2.41
-8.04
-18.05
-27.26
-35.38
-42.25
-47.92
-52.73
-57.36
-62.73
-69.83
-79.39
-91.42
-104.79
-117.09
-124.95
-124.9
-114.5
-93.3
-63.21
-28.07
7.47
39.21
64.34
81.74
91.68
95.12
93.15
86.78
76.97
64.97
52.38
41.11
32.93
28.96
29.47
33.77
40.6
48.53
56.34
63.12
68.19
70.98
70.9
67.51
60.79
51.27
40.05
28.47
17.71
8.33
0.21
-7.35
-15.14
-23.64
-32.65
-41.42
-48.97
-54.63
-58.39
-61.04
-63.96
-68.71
-76.45
-87.44
-100.69
-113.87
-123.63
-126.42
-119.49
-101.88
-74.93
-42.02
-7.68
23.7
48.91
66.38
76.05
78.75
75.59
67.72
56.38
43.12
29.82
18.63
11.38
9.25
12.33
19.67
29.61
40.17
49.57
56.57
60.53
61.38
59.49
55.39
49.63
42.61
34.54
25.44
15.4
4.7
-6.08
-16.17
-24.82
-31.64
-36.77
-40.86
-44.87
-49.84
-56.61
-65.65
-76.8
-89.02
-100.21
-107.41
-107.47
-98.02
-78.49
-50.54
-17.71
15.58
45.27
68.56
84.25
92.47
94.04
90.03
81.58
69.95
56.76
43.9
33.31
26.56
24.37
26.5
31.78
38.66
45.63
51.6
56.02
58.66
59.34
57.82
53.79
47.1
38.07
27.44
16.34
5.86
-3.28
-10.98
-17.7
-24.23
-31.23
-38.87
-46.67
-53.76
-59.26
-62.83
-64.91
-66.69
-69.79
-75.67
-85.07
-97.58
-111.37
-123.42
-130.03
-127.77
-114.56
-90.56
-58.27
-22.02
13.36
43.78
66.91
82.23
90.53
93.07
90.95
84.96
75.88
64.91
53.75
44.4
38.6
37.18
39.88
45.48
52.34
59.04
64.7
68.98
71.8
72.9
71.85
68.11
61.46
52.19
41.23
29.87
19.35
10.5
3.48
-2.19
-7.44
-13.22
-20.14
-28.14
-36.59
-44.43
-50.73
-55.08
-57.88
-60.23
-63.61
-69.45
-78.54
-90.78
-104.85
-118.29
-127.82
-130.06
-122.5
-104.35
-77.04
-43.95
-9.5
22.01
47.44
65.26
75.37
78.56
75.94
68.61
57.76
44.83
31.63
20.2
12.35
9.18
10.74
16.06
23.59
31.7
39.14
45.1
49.25
51.32
51.07
48.27
42.92
35.47
26.76
17.79
9.38
1.88
-4.83
-11.16
-17.45
-23.75
-29.76
-35.0
-39.13
-42.09
-44.28
-46.58
-50.1
-55.91
-64.66
-76.11
-88.79
-100.04
-106.49
-105.0
-93.68
-72.7
-44.34
-12.49
18.57
45.25
65.37
78.24
84.24
84.26
79.24
70.14
58.12
44.77
32.04
21.91
15.9
14.66
17.79
24.07
31.92
39.82
46.63
51.58
54.18
54.06
50.99
44.96
36.34
25.95
14.92
4.37
-4.97
-12.95
-20.04
-27.0
-34.43
-42.43
-50.5
-57.81
-63.6
-67.64
-70.41
-73.07
-77.08
-83.76
-93.79
-106.79
-121.01
-133.47
-140.43
-138.36
-125.13
-100.78
-67.83
-30.58
6.11
38.1
62.89
79.7
89.09
92.16
90.1
83.96
74.84
64.16
53.6
44.99
39.76
38.64
41.35
46.84
53.62
60.32
65.91
69.9
72.15
72.54
70.92
66.98
60.58
51.89
41.61
30.83
20.72
12.13
5.25
-0.4
-5.75
-11.75
-18.9
-27.06
-35.48
-43.16
-49.32
-53.78
-57.1
-60.4
-65.12
-72.56
-83.44
-97.51
-113.27
-127.99
-138.1
-140.04
-131.28
-111.28
-81.83
-46.66
-10.49
22.29
48.54
66.82
77.2
80.62
78.35
71.59
61.51
49.43
36.99
26.13
18.7
16.02
18.39
25.08
34.47
44.61
53.74
60.6
64.58
65.49
63.47
58.84
52.12
43.92
34.89
25.64
16.6
7.96
-0.19
-7.83
-14.87
-21.17
-26.58
-31.12
-35.0
-38.71
-43.02
-48.77
-56.66
-66.87
-78.65
-90.14
-98.52
-100.65
-94.03
-77.7
-52.83
-22.5
9.14
38.01
61.17
77.21
86.17
88.9
86.44
79.78
69.89
57.98
45.7
35.01
27.72
24.98
26.92
32.64
40.56
48.93
56.27
61.59
64.37
64.35
61.47
55.8
47.68
37.8
27.11
16.65
7.14
-1.21
-8.73
-16.02
-23.64
-31.68
-39.75
-47.12
-53.11
-57.49
-60.7
-63.84
-68.32
-75.53
-86.24
-100.17
-115.67
-129.77
-138.6
-138.44
-126.87
-103.74
-71.43
-34.28
2.68
35.08
60.26
77.41
87.17
90.81
89.6
84.6
76.83
67.52
58.2
50.56
45.99
45.16
47.83
52.97
59.15
65.08
69.92
73.31
75.23
75.63
74.21
70.43
63.87
54.54
43.13
30.94
19.43
9.71
2.1
-3.99
-9.69
-16.11
-23.71
-32.17
-40.49
-47.57
-52.71
-56.05
-58.52
-61.52
-66.49
-74.49
-85.81
-99.67
-114.05
-125.83
-131.41
-127.64
-112.96
-88.12
-56.22
-21.79
10.51
37.09
56.21
67.75
72.64
72.07
67.08
58.59
47.67
35.85
25.07
17.3
14.03
15.74
21.82
30.79
40.81
50.17
57.66
62.65
64.87
64.32
61.08
55.42
47.76
38.78
29.2
19.72
10.78
2.48
-5.26
-12.58
-19.47
-25.76
-31.16
-35.54
-39.14
-42.55
-46.75
-52.72
-61.22
-72.31
-85.09
-97.54
-106.76
-109.57
-103.44
-87.39
-62.52
-31.83
0.57
30.59
55.25
73.02
83.73
87.97
86.57
80.38
70.4
58.07
45.35
34.43
27.18
24.65
26.73
32.29
39.65
47.16
53.62
58.38
61.21
62.0
60.54
56.59
50.0
41.0
30.3
19.03
8.35
-0.86
-8.38
-14.64
-20.46
-26.59
-33.37
-40.5
-47.3
-53.03
-57.31
-60.37
-62.99
-66.33
-71.66
-80.02
-91.74
-106.06
-120.9
-132.9
-138.19
-133.47
-117.21
-90.38
-56.28
-19.68
14.7
43.37
64.67
78.61
86.07
88.15
85.79
79.77
71.1
61.21
51.89
44.89
41.46
41.91
45.59
51.11
56.93
61.83
65.15
66.86
67.2
66.33
64.09
60.05
53.73
45.0
34.34
22.79
11.72
2.24
-5.12
-10.66
-15.27
-20.01
-25.6
-32.11
-38.91
-45.07
-49.79
-52.88
-54.86
-56.86
-60.3
-66.42
-75.93
-88.71
-103.57
-118.2
-129.4
-133.75
-128.52
-112.62
-87.21
-55.47
-21.77
9.53
35.24
53.78
65.05
69.87
69.29
64.31
55.91
45.36
34.3
24.69
18.35
16.47
19.3
26.06
35.24
45.11
54.08
61.07
65.45
66.97
65.62
61.56
55.08
46.7
37.24
27.65
18.82
11.31
5.09
-0.37
-5.89
-12.08
-19.0
-26.13
-32.64
-37.9
-41.92
-45.44
-49.76
-56.16
-65.39
-77.13
-89.83
-100.81
-106.8
-104.83
-93.13
-71.94
-43.53
-11.74
19.15
45.57
65.36
77.96
83.87
84.11
79.68
71.58
60.9
49.1
37.96
29.33
24.69
24.63
28.73
35.63
43.55
50.82
56.34
59.71
61.04
60.55
58.28
54.04
47.57
38.92
28.63
17.76
7.5
-1.24
-8.22
-13.91
-19.22
-25.04
-31.73
-39.04
-46.12
-51.98
-55.96
-58.08
-59.12
-60.45
-63.66
-70.07
-80.35
-94.04
-109.37
-123.29
-132.02
-131.95
-120.8
-98.47
-67.21
-31.21
4.7
36.28
60.81
77.46
86.82
90.17
88.82
83.8
75.91
66.15
55.93
47.0
41.05
39.17
41.38
46.63
53.27
59.62
64.58
67.84
69.62
70.31
69.94
68.16
64.36
58.06
49.29
38.75
27.56
16.94
7.84
0.54
-5.27
-10.35
-15.52
-21.37
-27.99
-35.0
-41.7
-47.38
-51.67
-54.7
-57.15
-60.11
-64.78
-72.16
-82.67
-95.95
-110.54
-123.91
-132.77
-133.82
-124.73
-105.05
-76.62
-43.15
-9.29
20.74
44.13
59.85
68.3
70.59
67.83
60.89
50.65
38.33
25.78
15.2
8.61
7.18
10.82
18.34
27.91
37.69
46.34
53.06
57.46
59.29
58.37
54.69
48.55
40.68
32.08
23.7
16.15
9.45
3.21
-3.16
-10.05
-17.41
-24.75
-31.33
-36.62
-40.55
-43.71
-47.2
-52.35
-60.22
-71.15
-84.34
-97.63
-107.9
-111.67
-106.23
-90.62
-66.04
-35.65
-3.64
25.98
50.3
67.85
78.44
82.62
81.22
75.13
65.41
53.44
40.97
29.9
21.97
18.28
19.01
23.46
30.22
37.68
44.48
49.81
53.34
55.0
54.68
52.11
46.97
39.21
29.33
18.34
7.53
-2.05
-10.02
-16.78
-23.25
-30.34
-38.41
-47.07
-55.38
-62.27
-67.15
-70.17
-72.3
-75.01
-79.88
-88.08
-99.88
-114.32
-129.05
-140.62
-145.17
-139.55
-122.4
-94.81
-60.09
-22.93
12.02
41.25
63.04
77.28
84.77
86.64
83.83
77.21
67.84
57.17
47.08
39.46
35.71
36.32
40.75
47.68
55.55
63.06
69.4
74.24
77.44
78.74
77.67
73.74
66.72
56.95
45.39
33.38
22.23
12.72
4.92
-1.83
-8.54
-16.08
-24.73
-34.08
-43.13
-50.77
-56.3
-59.77
-62.0
-64.38
-68.38
-75.16
-85.26
-98.31
-112.83
-126.24
-135.17
-136.14
-126.63
-106.06
-76.27
-41.19
-5.71
25.69
50.1
66.53
75.51
78.21
75.75
69.01
58.81
46.43
33.7
22.79
15.63
13.31
15.78
21.97
30.26
39.01
46.96
53.31
57.61
59.5
58.73
55.2
49.12
41.17
32.29
23.51
15.52
8.57
2.4
-3.48
-9.51
-15.74
-21.8
-27.07
-31.03
-33.62
-35.42
-37.6
-41.64
-48.76
-59.45
-73.02
-87.43
-99.58
-105.96
-103.56
-90.86
-68.35
-38.52
-5.3
27.03
54.87
75.97
89.56
96.0
96.16
91.04
81.61
69.08
55.02
41.48
30.59
24.03
22.45
25.38
31.45
38.93
46.33
52.65
57.36
60.08
60.44
58.04
52.66
44.5
34.33
23.4
13.02
4.14
-3.04
-9.1
-15.07
-21.87
-29.77
-38.3
-46.39
-52.99
-57.59
-60.53
-62.87
-66.18
-72.0
-81.42
-94.61
-110.35
-125.91
-137.31
-140.32
-131.79
-110.88
-79.63
-42.35
-4.29
29.96
57.46
77.22
89.52
95.21
95.12
90.06
81.07
69.72
58.06
48.3
42.21
40.69
43.52
49.56
57.17
64.79
71.32
76.26
79.53
81.15
80.91
78.38
73.09
64.97
54.53
42.92
31.59
21.72
13.8
7.43
1.61
-4.81
-12.51
-21.38
-30.52
-38.72
-44.98
-49.02
-51.45
-53.57
-56.97
-63.08
-72.69
-85.72
-100.94
-115.93
-127.36
-131.57
-125.66
-108.46
-81.17
-47.22
-11.28
22.06
49.4
69.16
81.25
86.5
85.91
80.42
70.97
58.81
45.7
33.7
24.7
19.87
19.46
22.74
28.47
35.29
42.09
48.03
52.5
54.95
54.83
51.79
45.81
37.31
27.18
16.47
6.21
-2.95
-10.8
-17.59
-23.82
-29.97
-36.2
-42.29
-47.74
-52.0
-54.85
-56.61
-58.21
-60.92
-65.96
-73.95
-84.47
-95.84
-105.22
-109.31
-105.23
-91.5
-68.67
-39.32
-7.35
23.19
49.02
68.27
80.44
85.86
85.19
79.19
68.77
55.26
40.59
27.07
16.95
11.75
11.91
16.67
24.43
33.38
41.89
48.88
53.67
55.87
55.17
51.42
44.8
35.96
25.95
15.95
6.78
-1.34
-8.83
-16.38
-24.47
-33.06
-41.6
-49.27
-55.47
-60.07
-63.6
-67.03
-71.57
-78.38
-88.18
-100.84
-115.0
-127.94
-135.97
-135.43
-123.91
-101.32
-70.15
-34.8
-0.22
29.53
52.17
67.27
75.6
78.35
76.51
70.87
62.3
52.15
42.23
34.48
30.39
30.56
34.53
41.07
48.68
56.11
62.55
67.59
70.98
72.4
71.48
67.9
61.66
53.24
43.52
33.56
24.25
16.01
8.67
1.66
-5.69
-13.68
-22.11
-30.31
-37.51
-43.24
-47.64
-51.49
-56.04
-62.6
-72.12
-84.77
-99.58
-114.37
-125.9
-130.61
-125.65
-109.84
-84.26
-52.09
-17.7
14.55
41.39
61.13
73.58
79.53
80.06
76.19
68.88
59.21
48.53
38.53
30.91
26.92
26.99
30.59
36.46
43.15
49.46
54.65
58.32
60.17
59.79
56.72
50.78
42.33
32.32
21.98
12.42
4.2
-2.84
-9.29
-15.79
-22.64
-29.67
-36.32
-42.03
-46.5
-49.92
-52.92
-56.48
-61.65
-69.29
-79.64
-91.94
-104.17
-113.29
-115.88
-109.22
-92.3
-66.38
-34.67
-1.42
29.34
54.75
73.45
85.28
90.74
90.48
85.2
75.84
63.82
51.06
39.72
31.7
28.17
29.24
34.03
41.04
48.64
55.42
60.43
63.15
63.37
61.01
56.08
48.77
39.6
29.41
19.16
9.68
1.32
-6.12
-13.23
-20.65
-28.65
-36.98
-44.91
-51.64
-56.75
-60.52
-63.97
-68.54
-75.67
-86.19
-99.85
-114.99
-128.64
-137.0
-136.46
-124.73
-101.8
-70.09
-33.86
2.06
33.67
58.57
76.1
86.72
91.27
90.51
85.14
76.07
64.71
52.99
43.02
36.45
34.15
35.95
40.81
47.29
53.97
59.86
64.35
67.21
68.21
67.07
63.38
56.96
48.08
37.55
26.62
16.53
8.12
1.45
-4.06
-9.4
-15.45
-22.59
-30.47
-38.24
-44.9
-49.73
-52.7
-54.5
-56.49
-60.29
-67.31
-78.2
-92.37
-107.7
-120.75
-127.5
-124.46
-109.87
-84.44
-51.21
-14.75
20.16
49.78
72.03
86.5
93.87
95.21
91.63
84.13
73.85
62.22
51.02
42.03
36.69
35.63
38.47
44.02
50.76
57.28
62.69
66.59
68.87
69.43
67.92
63.88
57.0
47.52
36.31
24.74
14.22
5.63
-1.06
-6.66
-12.39
-19.23
-27.42
-36.32
-44.77
-51.61
-56.26
-58.96
-60.65
-62.73
-66.65
-73.55
-83.91
-97.2
-111.66
-124.32
-131.52
-129.93
-117.61
-94.82
-64.12
-29.62
4.14
33.35
55.67
70.29
77.52
78.28
73.69
64.96
53.43
40.72
28.7
19.26
13.98
13.72
18.39
26.92
37.57
48.35
57.48
63.74
66.54
65.8
61.81
55.09
46.35
36.36
25.92
15.66
5.94
-3.22
-12.01
-20.59
-28.94
-36.79
-43.74
-49.49
-54.12
-58.19
-62.72
-68.89
-77.67
-89.3
-102.81
-115.9
-125.26
-127.3
-119.35
-100.53
-72.28
-38.08
-2.52
30.0
56.32
74.9
85.73
89.65
87.79
81.22
71.08
58.68
45.76
34.29
26.12
22.42
23.41
28.23
35.36
43.12
50.17
55.7
59.29
60.7
59.61
55.63
48.61
38.84
27.31
15.42
4.49
-4.71
-12.3
-19.08
-26.03
-33.77
-42.18
-50.49
-57.63
-62.8
-65.91
-67.71
-69.6
-73.28
-80.23
-91.14
-105.49
-121.24
-134.94
-142.45
-140.02
-125.63
-99.76
-65.46
-27.43
9.32
40.84
64.94
81.21
90.27
93.17
90.94
84.52
75.11
64.24
53.82
45.73
41.37
41.27
45.03
51.46
59.11
66.58
72.92
77.63
80.5
81.4
80.05
76.09
69.25
59.67
48.08
35.79
24.23
14.5
6.84
0.63
-5.34
-12.22
-20.54
-29.93
-39.29
-47.33
-53.13
-56.63
-58.66
-60.74
-64.62
-71.81
-83.01
-97.72
-113.99
-128.51
-137.22
-136.44
-123.89
-99.75
-66.67
-29.09
7.98
40.33
65.43
82.45
91.79
94.39
91.24
83.36
72.0
58.88
46.14
35.92
29.82
28.43
31.26
37.06
44.26
51.56
58.1
63.4
67.1
68.8
67.98
64.21
57.43
48.15
37.37
26.37
16.29
7.72
0.52
-6.05
-12.92
-20.7
-29.36
-38.17
-46.04
-52.1
-56.11
-58.68
-61.08
-64.79
-71.07
-80.54
-92.88
-106.63
-119.21
-127.21
-127.2
-116.7
-95.15
-64.42
-28.38
8.16
40.79
66.56
84.32
94.32
97.5
94.89
87.44
76.26
62.9
49.5
38.38
31.46
29.62
32.54
38.85
46.75
54.61
61.33
66.35
69.37
70.14
68.29
63.54
55.95
46.09
35.04
24.05
14.06
5.44
-2.2
-9.67
-17.81
-27.01
-37.01
-47.01
-56.0
-63.22
-68.58
-72.74
-76.98
-82.85
-91.67
-103.96
-118.97
-134.42
-146.76
-151.94
-146.55
-129.06
-100.45
-64.07
-24.73
12.68
44.41
68.44
84.39
92.86
94.9
91.57
83.93
73.26
61.2
49.71
40.74
35.81
35.54
39.5
46.4
54.48
62.12
68.23
72.42
74.72
75.26
73.88
70.17
63.7
54.42
42.97
30.61
18.87
8.9
1.16
-4.82
-10.1
-15.81
-22.66
-30.58
-38.85
-46.42
-52.4
-56.56
-59.44
-62.25
-66.58
-73.92
-85.11
-99.89
-116.5
-131.81
-141.83
-142.73
-132.07
-109.67
-77.86
-40.85
-3.5
29.93
56.68
75.63
86.94
91.38
89.97
83.78
74.09
62.5
50.92
41.27
35.09
33.11
35.17
40.28
47.08
54.19
60.62
65.82
69.56
71.72
72.0
69.95
65.13
57.39
47.16
35.46
23.7
13.15
4.52
-2.29
-8.1
-14.0
-20.79
-28.67
-37.03
-44.9
-51.31
-55.85
-58.86
-61.34
-64.65
-70.1
-78.61
-90.4
-104.76
-119.83
-132.68
-139.75
-137.75
-124.7
-100.87
-68.89
-33.06
1.89
32.15
55.52
71.44
80.34
83.02
80.26
72.92
62.27
50.12
38.65
29.98
25.57
25.9
30.47
38.07
47.17
56.35
64.43
70.55
74.1
74.63
71.92
65.96
57.16
46.37
34.76
23.53
13.58
5.17
-2.1
-9.06
-16.5
-24.74
-33.45
-41.77
-48.79
-54.04
-57.8
-61.13
-65.55
-72.55
-83.02
-96.77
-112.2
-126.4
-135.58
-136.03
-125.29
-103.05
-71.48
-34.73
2.26
35.08
60.87
78.57
88.56
91.92
89.78
83.17
73.15
61.1
48.88
38.57
31.95
29.94
32.33
37.92
45.0
52.01
57.88
62.13
64.63
65.33
64.02
60.41
54.32
45.92
35.85
25.1
14.76
5.69
-1.78
-7.94
-13.56
-19.54
-26.45
-34.19
-42.04
-48.93
-54.01
-57.09
-58.87
-60.75
-64.47
-71.5
-82.56
-97.14
-113.36
-127.98
-137.07
-136.92
-125.19
-101.74
-68.97
-31.17
6.71
40.3
66.85
85.4
96.39
100.88
99.94
94.5
85.48
74.2
62.43
52.24
45.46
43.15
45.23
50.57
57.49
64.31
69.87
73.63
75.56
75.82
74.41
71.11
65.57
57.59
47.39
35.79
23.98
13.25
4.55
-1.84
-6.38
-10.11
-14.2
-19.46
-26.09
-33.56
-40.91
-47.18
-51.83
-55.02
-57.61
-60.95
-66.5
-75.4
-88.01
-103.55
-119.91
-133.77
-141.24
-138.86
-124.7
-99.17
-65.14
-27.21
9.58
40.99
64.51
79.39
86.18
86.05
80.3
70.21
57.27
43.31
30.38
20.43
14.83
14.02
17.5
24.12
32.48
41.3
49.58
56.58
61.68
64.29
63.95
60.45
54.02
45.37
35.53
25.6
16.46
8.5
1.6
-4.73
-11.12
-17.99
-25.38
-32.8
-39.5
-44.78
-48.43
-51.0
-53.86
-58.73
-67.08
-79.33
-94.28
-109.08
-119.82
-122.55
-114.56
-95.24
-66.35
-31.57
4.51
37.58
64.54
83.81
95.23
99.48
97.59
90.59
79.61
66.07
51.79
38.9
29.42
24.74
25.12
29.66
36.7
44.4
51.36
56.92
60.95
63.46
64.21
62.63
58.08
50.31
39.81
27.82
15.9
5.37
-3.2
-10.11
-16.3
-22.87
-30.48
-39.1
-48.04
-56.24
-62.73
-67.07
-69.5
-71.05
-73.31
-78.04
-86.57
