0
35.63
37.82
40.46
43.18
45.8
48.27
50.54
52.44
53.67
53.9
52.91
50.74
47.62
43.92
39.96
35.95
31.92
27.84
23.64
19.34
15.07
11.03
7.41
4.28
1.56
-0.96
-3.58
-6.54
-9.99
-13.91
-18.13
-22.4
-26.5
-30.35
-34.11
-38.14
-42.93
-48.87
-56.07
-64.15
-72.14
-78.65
-82.1
-81.22
-75.38
-64.91
-50.97
-35.34
-19.83
-5.88
5.65
14.46
20.62
24.33
25.83
25.49
23.88
21.71
19.81
18.81
19.05
20.54
23.01
26.11
29.46
32.82
35.96
38.71
40.89
42.24
42.49
41.41
38.87
35.05
30.35
25.38
20.72
16.74
13.44
10.48
7.37
3.72
-0.58
-5.28
-9.95
-14.09
-17.45
-20.09
-22.42
-25.13
-28.9
-34.22
-41.22
-49.43
-57.86
-65.08
-69.55
-69.92
-65.47
-56.32
-43.46
-28.48
-13.21
0.77
12.39
21.18
27.2
30.75
32.27
32.17
30.86
28.78
26.47
24.49
23.37
23.4
24.62
26.76
29.37
31.99
34.29
36.13
37.5
38.45
38.91
38.71
37.65
35.58
32.54
28.73
24.47
20.06
15.74
11.6
7.67
3.95
0.43
-2.95
-6.23
-9.48
-12.78
-16.14
-19.53
-22.92
-26.35
-29.88
-33.69
-38.01
-43.15
-49.35
-56.67
-64.77
-72.75
-79.22
-82.55
-81.34
-74.97
-63.8
-49.15
-32.94
-17.04
-2.9
8.76
17.78
24.39
28.9
31.59
32.72
32.66
31.9
31.07
30.75
31.29
32.79
35.05
37.76
40.61
43.43
46.09
48.51
50.5
51.8
52.13
51.31
49.31
46.31
42.61
38.58
34.53
30.64
26.93
23.28
19.5
15.51
11.36
7.28
3.6
0.53
-1.97
-4.2
-6.64
-9.72
-13.55
-17.94
-22.48
-26.79
-30.75
-34.53
-38.52
-43.17
-48.76
-55.35
-62.65
-69.99
-76.31
-80.24
-80.49
-76.21
-67.35
-54.79
-40.04
-24.91
-10.9
1.01
10.39
17.26
21.82
24.31
25.04
24.34
22.68
20.63
18.8
17.79
18.04
19.7
22.64
26.44
30.58
34.57
38.02
40.7
42.41
42.98
42.27
40.29
37.21
33.42
29.37
25.45
21.82
18.46
15.17
11.67
7.76
3.37
-1.42
-6.39
-11.21
-15.57
-19.24
-22.18
-24.59
-26.92
-29.71
-33.56
-38.87
-45.63
-53.29
-60.72
-66.4
-68.8
-66.83
-60.2
-49.55
-36.24
-21.95
-8.23
3.82
13.62
20.99
26.03
28.88
29.8
29.12
27.32
25.01
22.81
21.23
20.58
20.96
22.29
24.4
27.09
30.08
33.04
35.58
37.36
38.12
37.8
36.48
34.3
31.45
28.07
24.34
20.43
16.51
12.75
9.23
5.97
2.96
0.16
-2.53
-5.32
-8.48
-12.24
-16.64
-21.46
-26.25
-30.57
-34.2
-37.34
-40.5
-44.34
-49.4
-55.95
-63.87
-72.54
-80.87
-87.37
-90.41
-88.68
-81.62
-69.67
-54.22
-37.22
-20.61
-5.92
6.01
14.94
21.1
24.95
27.01
27.82
27.85
27.53
27.26
27.4
28.21
29.81
32.13
34.98
38.12
41.28
44.31
47.06
49.35
50.95
51.58
51.04
49.24
46.3
42.48
38.17
33.78
29.65
25.98
22.75
19.81
16.9
13.83
10.56
7.21
3.89
0.63
-2.66
-6.14
-9.94
-14.06
-18.36
-22.66
-26.88
-31.04
-35.35
-40.07
-45.54
-51.97
-59.39
-67.48
-75.48
-82.15
-85.99
-85.57
-80.04
-69.51
-55.07
-38.58
-22.14
-7.52
4.28
13.0
18.99
22.76
24.77
25.31
24.62
23.08
21.26
19.84
19.38
20.2
22.25
25.22
28.73
32.45
36.1
39.47
42.32
44.36
45.32
44.99
43.28
40.32
36.37
31.9
27.39
23.26
19.75
16.79
14.13
11.37
8.23
4.62
0.68
-3.29
-7.0
-10.3
-13.24
-16.02
-18.91
-22.22
-26.28
-31.36
-37.66
-45.09
-53.13
-60.74
-66.47
-68.81
-66.65
-59.68
-48.52
-34.59
-19.66
-5.36
7.18
17.4
25.15
30.49
33.55
34.45
33.49
31.16
28.21
25.45
23.62
23.16
24.17
26.41
29.45
32.8
36.0
38.7
40.68
41.85
42.22
41.82
40.72
38.95
36.58
33.69
30.38
26.73
22.81
18.67
14.41
10.24
6.41
3.14
0.45
-1.86
-4.17
-6.91
-10.35
-14.51
-19.18
-23.98
-28.58
-32.77
-36.61
-40.41
-44.68
-50.0
-56.78
-64.93
-73.72
-81.76
-87.29
-88.62
-84.74
-75.58
-62.08
-45.89
-28.9
-12.77
1.31
12.74
21.3
27.06
30.31
31.46
31.09
29.89
28.57
27.8
28.03
29.5
32.16
35.73
39.77
43.85
47.57
50.72
53.15
54.75
55.37
54.86
53.09
50.17
46.39
42.27
38.24
34.56
31.19
27.86
24.27
20.31
16.09
11.93
8.19
5.03
2.36
-0.15
-2.97
-6.42
-10.59
-15.27
-20.09
-24.67
-28.82
-32.61
-36.3
-40.35
-45.18
-51.19
-58.51
-66.85
-75.31
-82.4
-86.37
-85.64
-79.44
-68.14
-53.19
-36.64
-20.54
-6.37
5.09
13.68
19.58
23.02
24.25
23.6
21.61
19.04
16.76
15.52
15.76
17.55
20.58
24.35
28.35
32.17
35.57
38.47
40.83
42.58
43.54
43.48
42.19
39.59
35.81
31.15
26.12
21.25
16.98
13.5
10.69
8.16
5.45
2.21
-1.63
-5.8
-9.91
-13.61
-16.82
-19.72
-22.73
-26.32
-30.87
-36.58
-43.34
-50.72
-57.92
-63.82
-67.22
-67.08
-62.84
-54.6
-43.08
-29.52
-15.33
-1.89
9.76
18.96
25.44
29.25
30.6
29.89
27.63
24.48
21.28
18.84
17.84
18.58
20.96
24.51
28.61
32.66
36.18
38.88
40.58
41.24
40.86
39.55
37.43
34.65
31.33
27.57
23.5
19.25
14.98
10.82
6.89
3.26
-0.05
-3.08
-5.96
-8.85
-11.96
-15.4
-19.18
-23.2
-27.28
-31.26
-35.09
-38.9
-42.94
-47.63
-53.37
-60.38
-68.4
-76.56
-83.39
-87.06
-86.05
-79.57
-68.01
-52.75
-35.8
-19.15
-4.29
7.96
17.42
24.22
28.64
30.96
31.5
30.66
29.03
27.26
26.03
25.9
27.16
29.77
33.43
37.64
41.84
45.56
48.42
50.21
50.84
50.31
48.74
46.3
43.23
39.76
36.11
32.38
28.6
24.75
20.79
16.74
12.7
8.77
5.06
1.63
-1.58
-4.69
-7.92
-11.44
-15.33
-19.55
-23.92
-28.27
-32.5
-36.66
-41.02
-45.92
-51.71
-58.51
-66.03
-73.37
-79.22
-82.03
-80.57
-74.28
-63.5
-49.44
-33.79
-18.26
-4.23
7.47
16.52
22.87
26.69
28.21
27.76
25.8
23.06
20.4
18.69
18.56
20.22
23.4
27.46
31.7
35.5
38.55
40.74
42.07
42.54
42.1
40.66
38.17
34.65
30.25
25.29
20.18
15.34
11.09
7.42
4.07
0.65
-3.18
-7.45
-11.9
-16.15
-19.91
-23.18
-26.29
-29.74
-34.09
-39.76
-46.92
-55.35
-64.34
-72.67
-78.76
-81.09
-78.58
-70.97
-58.95
-43.95
-27.77
-12.1
1.78
13.15
21.75
27.7
31.28
32.87
32.92
31.9
30.4
29.0
28.27
28.59
30.07
32.52
35.6
38.93
42.18
45.13
47.55
49.21
49.8
49.11
47.12
44.04
40.26
36.2
32.1
28.03
23.95
19.83
15.75
11.91
8.49
5.53
2.89
0.28
-2.63
-6.05
-10.04
-14.5
-19.22
-23.97
-28.59
-33.01
-37.35
-41.85
-46.94
-53.03
-60.45
-69.12
-78.39
-87.0
-93.17
-95.07
-91.34
-81.59
-66.64
-48.28
-28.85
-10.55
5.09
17.36
26.28
32.29
35.89
37.57
37.73
36.82
35.4
34.12
33.56
34.13
35.9
38.64
41.9
45.21
48.16
50.51
52.19
53.18
53.46
52.94
51.52
49.13
45.81
41.79
37.4
32.96
28.67
24.59
20.66
16.81
13.07
9.54
6.33
3.43
0.67
-2.22
-5.5
-9.28
-13.48
-17.86
-22.18
-26.29
-30.25
-34.32
-38.87
-44.32
-50.95
-58.71
-67.05
-74.81
-80.36
-82.0
-78.48
-69.48
-55.82
-39.23
-21.87
-5.69
7.98
18.58
26.13
30.88
33.16
33.29
31.72
29.11
26.33
24.28
23.64
24.72
27.34
31.0
35.04
38.93
42.31
45.01
46.93
48.0
48.09
47.05
44.79
41.32
36.79
31.48
25.81
20.22
15.08
10.63
6.82
3.45
0.14
-3.43
-7.45
-11.87
-16.49
-21.02
-25.27
-29.2
-32.99
-36.97
-41.55
-47.13
-53.96
-61.99
-70.7
-79.07
-85.63
-88.78
-87.17
-80.19
-68.15
-52.32
-34.6
-17.0
-1.17
11.87
21.78
28.72
33.09
35.35
35.96
35.43
34.3
33.18
32.63
33.01
34.46
36.83
39.83
43.11
46.39
49.38
51.84
53.5
54.1
53.47
51.6
48.68
45.01
40.9
36.61
32.23
27.8
23.31
18.83
14.48
10.43
6.83
3.69
0.91
-1.76
-4.61
-7.93
-11.83
-16.23
-20.87
-25.39
-29.56
-33.38
-37.22
-41.63
-47.28
-54.57
-63.38
-72.94
-81.77
-87.98
-89.75
-85.87
-76.16
-61.63
-44.2
-26.14
-9.48
4.48
15.23
22.94
28.06
31.08
32.42
32.41
31.47
30.11
28.93
28.44
28.97
30.55
32.96
35.86
38.91
41.88
44.6
46.91
48.64
49.5
49.25
47.75
45.04
41.37
37.11
32.67
28.33
24.27
20.5
16.96
13.6
10.44
7.53
4.93
2.57
0.26
-2.29
-5.32
-8.91
-12.96
-17.17
-21.17
-24.76
-27.91
-30.91
-34.23
-38.46
-44.02
-50.98
-58.8
-66.34
-71.98
-74.07
-71.39
-63.57
-51.3
-36.11
-19.96
-4.72
8.26
18.27
25.23
29.34
30.95
30.45
28.31
25.19
21.9
19.31
18.03
18.36
20.15
23.01
26.44
30.04
33.48
36.51
38.86
40.32
40.73
40.09
38.56
36.3
33.47
30.17
26.44
22.37
18.09
13.77
9.6
5.71
2.17
-1.05
-4.06
-7.08
-10.37
-14.14
-18.43
-23.08
-27.71
-31.95
-35.64
-38.91
-42.23
-46.22
-51.44
-58.21
-66.39
-75.28
-83.62
-89.72
-91.88
-88.81
-80.16
-66.64
-49.96
-32.25
-15.57
-1.36
9.7
17.6
22.74
25.62
26.74
26.56
25.55
24.25
23.24
23.04
24.01
26.25
29.59
33.63
37.9
42.01
45.66
48.7
50.99
52.38
52.65
51.59
49.14
45.51
41.12
36.55
32.3
28.58
25.32
22.21
18.95
15.42
11.77
8.33
5.42
3.17
1.37
-0.42
-2.73
-5.96
-10.24
-15.38
-20.99
-26.66
-32.07
-37.11
-41.94
-46.91
-52.54
-59.26
-67.25
-76.14
-84.9
-91.87
-95.2
-93.39
-85.81
-73.01
-56.6
-38.71
-21.45
-6.33
5.85
14.9
21.03
24.55
25.83
25.35
23.74
21.76
20.18
19.58
20.22
22.05
24.76
27.96
31.31
34.57
37.57
40.22
42.41
44.0
44.76
44.47
42.92
40.11
36.2
31.56
26.7
22.07
17.99
14.52
11.53
8.74
5.87
2.72
-0.8
-4.59
-8.43
-12.02
-15.13
-17.72
-19.99
-22.43
-25.62
-30.05
-35.93
-43.02
-50.57
-57.4
-62.12
-63.44
-60.46
-53.0
-41.66
-27.76
-12.96
1.13
13.29
22.83
29.54
33.48
34.84
33.84
30.88
26.58
21.81
17.57
14.74
13.88
15.06
17.99
22.02
26.48
30.75
34.34
36.98
38.52
38.96
38.34
36.74
34.23
30.89
26.82
22.17
17.18
12.12
7.28
2.85
-1.12
-4.74
-8.23
-11.84
-15.73
-19.89
-24.18
-28.35
-32.2
-35.64
-38.8
-41.95
-45.54
-49.99
-55.75
-63.03
-71.7
-81.07
-89.87
-96.35
-98.68
-95.5
-86.42
-72.22
-54.63
-35.85
-17.94
-2.33
10.31
19.88
26.59
30.73
32.6
32.62
31.36
29.59
28.1
27.6
28.46
30.72
34.1
38.16
42.46
46.61
50.36
53.51
55.85
57.14
57.18
55.88
53.33
49.84
45.78
41.52
37.29
33.1
28.9
24.6
20.25
16.0
12.03
8.43
5.09
1.72
-2.01
-6.38
-11.38
-16.79
-22.23
-27.36
-32.03
-36.37
-40.77
-45.79
-52.02
-59.84
-69.16
-79.27
-88.75
-95.75
-98.42
-95.49
-86.63
-72.65
-55.23
-36.47
-18.34
-2.35
10.62
20.25
26.61
30.01
30.88
29.79
27.41
24.54
22.01
20.5
20.44
21.94
24.76
28.48
32.64
36.87
40.89
44.44
47.2
48.83
48.97
47.46
44.37
40.08
35.13
30.14
25.51
21.43
17.77
14.24
10.49
6.3
1.73
-3.01
-7.53
-11.5
-14.77
-17.47
-20.01
-22.98
-26.99
-32.52
-39.67
-47.96
-56.26
-62.89
-66.02
-64.23
-56.99
-44.89
-29.5
-12.89
3.0
16.78
27.72
35.63
40.57
42.71
42.28
39.75
35.81
31.39
27.43
24.73
23.73
24.48
26.7
29.82
33.23
36.39
38.97
40.89
42.19
42.97
43.11
42.37
40.45
37.17
32.62
27.19
21.37
15.66
10.37
5.61
1.32
-2.68
-6.63
-10.76
-15.24
-20.05
-24.99
-29.76
-34.1
-37.95
-41.52
-45.25
-49.68
-55.38
-62.68
-71.53
-81.28
-90.57
-97.48
-99.99
-96.57
-86.78
-71.48
-52.52
-32.25
-12.84
4.15
17.89
28.13
35.04
38.97
40.41
39.97
38.33
36.21
34.31
33.25
33.45
35.07
37.99
41.81
45.99
50.01
53.52
56.34
58.41
59.67
60.03
59.33
57.41
54.23
49.89
44.65
38.83
32.78
26.75
20.95
15.45
10.27
5.38
0.66
-3.99
-8.7
-13.52
-18.49
-23.54
-28.58
-33.55
-38.43
-43.32
-48.43
-54.13
-60.87
-68.96
-78.33
-88.14
-96.83
-102.31
-102.56
-96.45
-84.05
-66.8
-46.93
-26.84
-8.46
7.03
19.13
27.76
33.02
35.16
34.64
32.16
28.7
25.32
22.95
22.18
23.18
25.71
29.26
33.26
37.23
40.86
43.96
46.41
48.05
48.67
48.01
45.99
42.71
38.49
33.8
29.09
24.66
20.56
16.67
12.69
8.34
3.5
-1.73
-7.03
-11.96
-16.17
-19.58
-22.48
-25.52
-29.52
-35.2
-42.86
-52.12
-61.83
-70.19
-75.2
-75.14
-69.16
-57.57
-41.78
-23.91
-6.15
9.78
22.85
32.7
39.4
43.12
44.06
42.47
38.86
34.05
29.18
25.42
23.64
24.16
26.7
30.53
34.83
38.89
42.33
45.04
46.99
48.16
48.47
47.76
45.94
43.01
39.05
34.2
28.65
22.65
16.53
10.68
5.49
1.18
-2.32
-5.33
-8.35
-11.85
-16.11
-21.11
-26.57
-32.07
-37.24
-41.9
-46.13
-50.31
-55.01
-60.91
-68.51
-77.92
-88.53
-98.92
-107.02
-110.6
-107.85
-98.05
-81.84
-61.08
-38.38
-16.43
2.7
17.83
28.71
35.76
39.69
41.23
41.03
39.72
37.9
36.18
35.2
35.39
36.96
39.8
43.57
47.87
52.31
56.53
60.27
63.2
64.97
65.25
63.84
60.79
56.4
51.23
45.82
40.62
35.75
31.06
26.26
21.12
15.65
10.11
4.91
0.35
-3.56
-7.09
-10.7
-14.76
-19.41
-24.5
-29.73
-34.76
-39.48
-43.96
-48.5
-53.57
-59.64
-67.13
-76.1
-86.06
-95.81
-103.51
-107.05
-104.7
-95.68
-80.52
-61.01
-39.61
-18.83
-0.6
14.01
24.76
31.94
35.97
37.31
36.39
33.77
30.23
26.81
24.53
24.19
26.03
29.74
34.59
39.74
44.55
48.71
52.18
54.98
56.99
57.95
57.5
55.39
51.65
46.55
40.59
34.33
28.32
22.95
18.35
14.41
10.75
6.91
2.52
-2.46
-7.71
-12.74
-17.11
-20.69
-23.75
-26.8
-30.49
-35.34
-41.74
-49.81
-59.3
-69.35
-78.4
-84.45
-85.5
-80.29
-68.81
-52.37
-33.22
-13.83
3.77
18.38
29.51
37.18
41.62
43.14
42.19
39.41
35.64
31.83
28.86
27.33
27.54
29.38
32.49
36.3
40.31
44.08
47.33
49.86
51.47
51.96
51.14
48.94
45.51
41.19
36.41
31.55
26.77
22.06
17.27
12.36
7.4
2.65
-1.6
-5.25
-8.39
-11.36
-14.61
-18.46
-23.04
-28.18
-33.52
-38.64
-43.3
-47.47
-51.43
-55.75
-61.13
-68.18
-77.12
-87.46
-97.83
-106.16
-110.08
-107.71
-98.25
-82.35
-61.95
-39.68
-18.14
0.73
15.92
27.18
34.75
39.07
40.65
40.04
37.95
35.23
32.76
31.29
31.27
32.84
35.8
39.77
44.3
48.94
53.31
57.1
60.07
62.02
62.76
62.16
60.16
56.83
52.43
47.41
42.32
37.63
33.56
30.01
26.59
22.9
18.72
14.17
9.65
5.59
2.24
-0.5
-3.06
-6.0
-9.75
-14.44
-19.83
-25.48
-30.9
-35.8
-40.19
-44.37
-48.9
-54.34
-61.24
-69.86
-79.98
-90.73
-100.53
-107.32
-108.99
-104.12
-92.47
-75.19
-54.53
-33.18
-13.45
3.16
16.12
25.57
31.83
35.21
35.97
34.55
31.67
28.34
25.59
24.17
24.43
26.27
29.33
33.21
37.5
41.85
45.86
49.14
51.36
52.32
51.98
50.44
47.82
44.27
40.02
35.33
30.53
25.87
21.53
17.5
13.76
10.3
7.15
4.34
1.81
-0.65
-3.31
-6.34
-9.74
-13.32
-16.8
-20.04
-23.16
-26.51
-30.58
-35.81
-42.45
-50.4
-59.08
-67.36
-73.63
-76.12
-73.44
-65.14
-51.9
-35.39
-17.76
-0.95
13.63
25.26
33.67
38.82
40.79
39.85
36.58
31.86
26.78
22.4
19.5
18.47
19.32
21.77
25.3
29.32
33.26
36.67
39.25
40.9
41.59
41.32
40.08
37.88
34.78
30.98
26.72
22.24
17.7
13.12
8.51
3.95
-0.38
-4.28
-7.64
-10.59
-13.44
-16.6
-20.36
-24.75
-29.56
-34.45
-39.06
-43.23
-47.04
-50.78
-54.98
-60.32
-67.34
-76.21
-86.33
-96.24
-103.78
-106.67
-103.24
-93.03
-76.98
-57.19
-36.2
-16.35
0.74
14.27
24.11
30.58
34.17
35.46
35.1
33.78
32.17
30.87
30.34
30.82
32.36
34.81
37.97
41.59
45.43
49.3
52.98
56.2
58.59
59.74
59.38
57.41
54.09
49.86
45.31
40.88
36.83
33.13
29.58
25.9
21.9
17.55
13.02
8.62
4.61
1.1
-2.06
-5.27
-8.95
-13.4
-18.63
-24.34
-30.07
-35.44
-40.29
-44.83
-49.52
-55.08
-62.14
-70.99
-81.27
-91.77
-100.52
-105.29
-104.27
-96.65
-82.93
-64.81
-44.61
-24.63
-6.67
8.17
19.42
27.11
31.56
33.27
32.92
31.28
29.1
27.09
25.8
25.58
26.6
28.83
32.1
36.1
40.47
44.78
48.67
51.79
53.87
54.76
54.39
52.8
50.11
46.48
42.1
37.2
32.06
26.97
22.23
18.02
14.41
11.33
8.56
5.84
2.93
-0.34
-3.96
-7.85
-11.83
-15.7
-19.4
-22.99
-26.69
-30.82
-35.77
-41.89
-49.36
-57.95
-66.89
-74.73
-79.69
-80.03
-74.67
-63.66
-48.22
-30.42
-12.54
3.53
16.68
26.58
33.37
37.38
38.87
38.12
35.55
31.85
27.95
24.84
23.25
23.48
25.34
28.35
31.94
35.69
39.32
42.61
45.32
47.14
47.79
47.08
45.04
41.86
37.89
33.48
28.95
24.51
20.24
16.07
11.89
7.62
3.3
-0.9
-4.79
-8.28
-11.52
-14.78
-18.42
-22.6
-27.23
-32.01
-36.62
-40.86
-44.84
-48.92
-53.66
-59.65
-67.31
-76.57
-86.65
-95.92
-102.24
-103.48
-98.28
-86.53
-69.54
-49.58
-29.19
-10.49
5.21
17.48
26.4
32.38
35.84
37.23
37.01
35.72
33.95
32.34
31.42
31.6
33.01
35.54
38.85
42.54
46.26
49.73
52.75
55.11
56.54
56.71
55.4
52.57
48.48
43.61
38.49
33.57
29.06
24.92
20.96
16.97
12.88
8.78
4.88
1.41
-1.59
-4.29
-7.05
-10.27
-14.25
-18.97
-24.17
-29.4
-34.29
-38.69
-42.79
-47.08
-52.17
-58.57
-66.42
-75.34
-84.31
-91.79
-96.01
-95.4
-89.09
-77.25
-61.09
-42.59
-23.95
-6.98
7.16
18.11
25.96
30.99
33.48
33.66
31.87
28.75
25.21
22.22
20.6
20.72
22.51
25.54
29.27
33.24
37.18
40.91
44.28
47.08
48.98
49.63
48.73
46.15
42.03
36.72
30.76
24.71
19.01
13.86
9.22
4.79
0.26
-4.58
-9.76
-15.08
-20.25
-25.02
-29.26
-33.09
-36.82
-40.94
-46.04
-52.6
-60.76
-70.19
-79.82
-87.99
-92.79
-92.54
-86.33
-74.39
-58.02
-39.2
-20.12
-2.61
12.1
23.46
31.42
36.29
38.49
38.54
37.07
34.77
32.34
30.49
29.69
30.2
31.98
34.82
38.36
42.25
46.15
49.74
52.72
54.79
55.68
55.2
53.35
50.29
46.32
41.83
37.14
32.46
27.77
22.99
18.02
12.95
8.02
3.56
-0.22
-3.36
-6.17
-9.13
-12.62
-16.81
-21.59
-26.69
-31.8
-36.78
-41.69
-46.82
-52.64
-59.72
-68.42
-78.59
-89.32
-98.8
-104.73
-104.95
-98.21
-84.67
-65.9
-44.37
-22.71
-3.03
13.44
26.29
35.6
41.72
45.06
46.06
45.3
43.48
41.36
39.69
39.0
39.63
41.57
44.56
48.21
52.05
55.71
58.9
61.43
63.12
63.77
63.18
61.22
57.97
53.74
49.0
44.22
39.66
35.3
30.9
26.22
21.2
16.07
11.24
7.1
3.79
1.18
-1.11
-3.5
-6.34
-9.81
-13.95
-18.65
-23.73
-28.94
-34.05
-38.95
-43.75
-48.82
-54.69
-61.79
-70.06
-78.78
-86.45
-91.12
-90.92
-84.73
-72.56
-55.7
-36.32
-16.83
0.73
15.12
25.91
33.26
37.47
38.9
37.87
34.93
30.92
26.91
23.99
22.9
23.85
26.55
30.34
34.58
38.75
42.58
45.94
48.7
50.6
51.28
50.41
47.81
43.56
38.04
31.84
25.56
19.68
14.37
9.55
4.92
0.19
-4.83
-10.09
-15.35
-20.27
-24.55
-28.11
-31.14
-34.16
-37.85
-42.86
-49.61
-58.1
-67.7
-77.15
-84.74
-88.6
-87.23
-79.95
-67.14
-50.21
-31.24
-12.44
4.41
18.24
28.73
36.03
40.53
42.59
42.54
40.81
38.04
35.09
32.88
32.11
33.05
35.48
38.87
42.6
46.19
49.36
51.98
53.86
54.8
54.59
53.14
50.56
47.11
43.1
38.75
34.16
29.39
24.48
19.52
14.68
10.14
6.02
2.39
-0.83
-3.86
-6.98
-10.47
-14.44
-18.82
-23.37
-27.82
-32.03
-36.11
-40.41
-45.43
-51.73
-59.66
-69.15
-79.49
-89.23
-96.39
-98.91
-95.38
-85.53
-70.44
-52.18
-33.16
-15.48
-0.41
11.52
20.37
26.42
30.0
31.45
31.2
29.85
28.09
26.64
26.07
26.72
28.58
31.39
34.67
37.92
40.78
43.09
44.85
46.11
46.81
46.71
45.53
43.06
39.32
34.63
29.5
24.47
19.92
16.01
12.65
9.58
6.5
3.08
-0.79
-5.07
-9.47
-13.58
-17.06
-19.79
-22.0
-24.2
-26.97
-30.86
-36.16
-42.86
-50.56
-58.39
-65.07
-69.09
-69.06
-64.15
-54.38
-40.7
-24.75
-8.37
6.77
19.44
28.99
35.23
38.29
38.54
36.56
33.07
28.9
24.92
21.91
20.48
20.87
22.91
26.07
29.59
32.77
35.17
36.68
37.41
37.52
37.02
35.78
33.58
30.26
25.87
20.68
15.17
9.83
5.06
1.01
-2.44
-5.66
-9.12
-13.15
-17.79
-22.72
-27.44
-31.51
-34.82
-37.64
-40.56
-44.24
-49.21
-55.77
-63.85
-72.94
-82.06
-89.72
-94.17
-93.8
-87.66
-75.88
-59.69
-41.13
-22.43
-5.46
8.65
19.5
27.23
32.18
34.8
35.53
34.91
33.6
32.32
31.68
32.06
33.56
36.01
39.07
42.42
45.73
48.74
51.22
52.93
53.69
53.34
51.84
49.32
46.01
42.23
38.29
34.4
30.62
26.84
22.9
18.68
14.3
9.98
6.02
2.59
-0.38
-3.2
-6.24
-9.82
-14.06
-18.85
-23.97
-29.09
-33.97
-38.49
-42.78
-47.18
-52.29
-58.64
-66.51
-75.49
-84.41
-91.45
-94.64
-92.45
-84.27
-70.72
-53.38
-34.43
-15.99
0.32
13.61
23.63
30.58
34.85
36.81
36.94
35.76
33.93
32.14
30.96
30.73
31.52
33.17
35.45
38.13
40.98
43.72
46.05
47.69
48.43
48.17
46.98
44.95
42.21
38.87
35.09
31.07
27.01
23.06
19.27
15.61
12.03
8.54
5.24
2.19
-0.68
-3.55
-6.67
-10.22
-14.22
-18.53
-22.9
-27.15
-31.2
-35.15
-39.26
-43.91
-49.48
-56.16
-63.67
-71.09
-76.81
-79.0
-76.2
-67.88
-54.73
-38.48
-21.34
-5.3
8.29
18.85
26.34
31.01
33.1
32.89
30.74
27.24
23.21
19.55
17.07
16.25
17.21
19.7
23.2
27.09
30.84
34.07
36.59
38.33
39.25
39.27
38.23
36.0
32.53
27.92
22.51
16.78
11.17
6.03
1.47
-2.63
-6.51
-10.41
-14.4
-18.45
-22.39
-26.05
-29.43
-32.65
-36.03
-39.94
-44.68
-50.51
-57.46
-65.34
-73.54
-81.0
-86.23
-87.69
-84.15
-75.27
-61.74
-45.16
-27.55
-10.84
3.65
15.29
24.03
30.1
33.81
35.47
35.38
34.01
31.94
29.84
28.39
28.08
29.13
31.45
34.71
38.4
42.07
45.32
47.89
49.63
50.39
50.0
48.38
45.56
41.77
37.39
32.85
28.47
24.38
20.52
16.78
13.07
9.38
5.72
2.08
-1.61
-5.46
-9.57
-13.97
-18.61
-23.38
-28.13
-32.76
-37.18
-41.44
-45.76
-50.54
-56.34
-63.62
-72.37
-81.81
-90.32
-95.81
-96.34
-90.83
-79.42
-63.46
-45.0
-26.17
-8.64
6.55
18.94
28.41
35.01
38.93
40.51
40.33
39.14
37.7
36.68
36.48
37.24
38.85
41.1
43.74
46.59
49.52
52.35
54.85
56.7
57.53
57.1
55.35
52.41
48.61
44.29
39.81
35.39
31.19
27.21
23.37
19.54
15.61
11.6
7.7
4.16
1.18
-1.24
-3.37
-5.65
-8.51
-12.2
-16.7
-21.76
-26.97
-31.98
-36.61
-40.88
-45.05
-49.58
-55.06
-61.97
-70.35
-79.55
-88.16
-94.23
-95.82
-91.68
-81.65
-66.76
-48.9
-30.26
-12.76
2.27
14.16
22.73
28.13
30.69
30.84
29.12
26.25
23.04
20.37
18.96
19.3
21.43
25.03
29.51
34.22
38.63
42.42
45.4
47.49
48.57
48.49
47.15
44.51
40.68
35.93
30.66
25.29
20.2
15.6
11.48
7.63
3.76
-0.38
-4.81
-9.36
-13.72
-17.6
-20.93
-23.89
-26.83
-30.18
-34.32
-39.55
-46.07
-53.88
-62.6
-71.36
-78.73
-82.96
-82.47
-76.41
-65.0
-49.5
-31.83
-14.07
2.09
15.6
26.04
33.4
37.93
39.89
39.65
37.65
34.48
30.9
27.77
25.81
25.48
26.88
29.73
33.54
37.78
41.95
45.67
48.63
50.56
51.24
50.59
48.71
45.8
42.15
37.98
33.43
28.59
23.56
18.51
13.69
9.27
5.36
1.84
-1.55
-5.11
-9.06
-13.5
-18.31
-23.29
-28.18
-32.77
-36.97
-40.84
-44.67
-48.92
-54.21
-61.08
-69.66
-79.32
-88.62
-95.5
-97.83
-94.1
-84.01
-68.53
-49.61
-29.61
-10.59
6.02
19.53
29.81
36.96
41.18
42.74
42.03
39.65
36.43
33.26
30.9
29.84
30.22
31.86
34.4
37.43
40.52
43.36
45.68
47.3
48.1
48.06
47.21
45.6
43.25
40.17
36.38
31.9
26.9
21.6
16.31
11.35
6.9
2.98
-0.55
-3.97
-7.5
-11.24
-15.13
-18.97
-22.56
-25.78
-28.68
-31.48
-34.52
-38.22
-43.0
-49.18
-56.77
-65.19
-73.17
-78.91
-80.49
-76.55
-66.83
-52.25
-34.74
-16.53
0.39
14.71
25.85
33.67
38.33
40.0
39.04
35.98
31.65
27.01
23.04
20.46
19.6
20.39
22.45
25.26
28.38
31.5
34.49
37.21
39.41
40.72
40.71
39.07
35.8
31.19
25.77
20.09
14.57
9.49
4.89
0.69
-3.3
-7.33
-11.64
-16.34
-21.36
-26.41
-31.13
-35.24
-38.69
-41.79
-45.09
-49.31
-55.07
-62.53
-71.23
-79.95
-86.91
-90.15
-88.19
-80.44
-67.47
-50.79
-32.39
-14.22
2.19
15.91
26.51
33.9
38.2
39.73
38.98
36.61
33.44
30.31
28.01
27.09
27.81
30.08
33.49
37.5
41.51
45.05
47.84
49.77
50.8
50.95
50.18
48.43
45.68
42.01
37.57
32.6
27.39
22.21
17.25
12.64
8.41
4.53
0.94
-2.48
-5.88
-9.41
-13.2
-17.29
-21.61
-25.98
-30.23
-34.26
-38.19
-42.39
-47.44
-53.86
-61.92
-71.28
-80.93
-89.18
-94.1
-93.97
-87.84
-75.9
-59.43
-40.49
-21.34
-3.89
10.62
21.67
29.31
33.89
35.81
35.54
33.6
30.65
27.49
24.95
23.72
24.16
26.19
29.42
33.24
37.06
40.46
43.19
45.19
46.42
46.85
46.38
44.88
42.25
38.51
33.85
28.64
23.31
18.23
13.59
9.4
5.51
1.73
-2.08
-5.96
-9.88
-13.77
-17.52
-21.06
-24.35
-27.41
-30.41
-33.66
-37.54
-42.4
-48.4
-55.32
-62.52
-68.85
-72.91
-73.29
-69.02
-59.92
-46.74
-30.95
-14.4
1.27
14.84
25.7
33.6
38.49
40.43
39.64
36.66
32.38
27.9
24.26
22.21
22.01
23.52
26.38
30.08
34.17
38.18
41.73
44.49
46.22
46.84
46.37
44.9
42.58
39.51
35.8
31.52
26.77
21.7
16.51
11.45
6.77
2.58
-1.15
-4.66
-8.27
-12.23
-16.63
-21.33
-26.05
-30.53
-34.65
-38.53
-42.48
-46.96
-52.48
-59.45
-67.98
-77.65
-87.38
-95.4
-99.63
-98.25
-90.31
-76.2
-57.55
-36.86
-16.68
1.01
15.16
25.65
32.95
37.72
40.44
41.46
41.02
39.48
37.42
35.57
34.65
35.15
37.16
40.42
44.41
48.63
52.68
56.31
59.35
61.59
62.71
62.4
60.49
57.07
52.52
47.42
42.37
37.78
33.8
30.23
26.7
22.86
18.53
13.82
9.1
4.78
1.12
-1.92
-4.71
-7.77
-11.51
-16.06
-21.24
-26.63
-31.87
-36.76
-41.38
-46.03
-51.17
-57.34
-64.93
-74.05
-84.18
-94.1
-101.94
-105.59
-103.35
-94.49
-79.56
-60.27
-38.97
-18.0
0.78
16.24
28.02
36.23
41.3
43.74
44.13
43.03
41.13
39.13
37.76
37.61
38.97
41.74
45.46
49.51
53.39
56.83
59.8
62.33
64.38
65.67
65.84
64.59
61.85
57.82
52.94
47.69
42.53
37.73
33.36
29.34
25.44
21.42
17.1
12.54
7.97
3.74
0.1
-2.96
-5.75
-8.76
-12.45
-17.01
-22.28
-27.88
-33.37
-38.45
-43.09
-47.56
-52.28
-57.78
-64.49
-72.6
-81.77
-90.99
-98.64
-102.75
-101.59
-94.23
-80.94
-63.18
-43.15
-23.25
-5.43
9.1
19.88
27.04
31.0
32.25
31.31
28.82
25.5
22.23
19.85
18.98
19.9
22.43
26.09
30.24
34.36
38.12
41.41
44.24
46.56
48.19
48.85
48.22
46.13
42.63
38.04
32.88
27.71
22.98
18.85
15.23
11.83
8.35
4.6
0.58
-3.55
-7.59
-11.39
-14.9
-18.17
-21.36
-24.66
-28.42
-33.06
-38.96
-46.25
-54.42
-62.26
-68.01
-69.84
-66.51
-57.82
-44.71
-28.91
-12.4
3.12
16.49
27.07
34.57
38.92
40.25
38.89
35.49
30.96
26.31
22.47
20.14
19.64
20.87
23.45
26.8
30.35
33.66
36.45
38.61
40.02
40.6
40.22
38.83
36.43
33.12
29.03
24.34
19.24
13.99
8.86
4.15
0.03
-3.54
-6.75
-9.88
-13.2
-16.85
-20.87
-25.21
-29.77
-34.44
-39.06
-43.54
-47.92
-52.47
-57.65
-64.01
-71.88
-81.03
-90.45
-98.43
-102.94
-102.22
-95.35
-82.55
-65.19
-45.34
-25.28
-6.94
8.43
20.25
28.52
33.57
35.89
36.04
34.64
32.4
30.1
28.46
28.02
29.03
31.4
34.81
38.91
43.34
47.82
52.07
55.73
58.36
59.57
59.12
57.02
53.54
49.12
44.28
39.41
34.77
30.39
26.13
21.78
17.23
12.49
7.77
3.31
-0.74
-4.45
-8.1
-12.01
-16.42
-21.34
-26.55
-31.8
-36.84
-41.6
-46.2
-50.94
-56.24
-62.59
-70.28
-79.13
-88.28
-96.15
-100.77
-100.38
-93.96
-81.74
-65.07
-46.09
-27.06
-9.81
4.55
15.62
23.51
28.53
31.04
31.38
30.0
27.5
24.62
22.21
20.98
21.36
23.39
26.74
30.84
35.12
39.15
42.66
45.49
47.5
48.53
48.35
46.82
43.92
39.81
34.91
29.73
24.76
20.35
16.55
13.1
9.58
5.58
0.95
-4.12
-9.17
-13.7
-17.44
-20.44
-23.08
-25.92
-29.52
-34.36
-40.72
-48.54
-57.24
-65.6
-71.89
-74.34
-71.6
-63.35
-50.36
-34.31
-17.23
-0.97
13.16
24.46
32.68
37.87
40.21
40.01
37.78
34.16
30.01
26.21
23.54
22.56
23.39
25.77
29.15
32.9
36.5
39.61
42.05
43.7
44.47
44.18
42.71
39.99
36.13
31.34
25.97
20.34
14.74
9.36
4.33
-0.34
-4.63
-8.61
-12.34
-15.96
-19.66
-23.61
-27.89
-32.42
-36.96
-41.22
-45.08
-48.65
-52.38
-56.92
-62.89
-70.62
-79.83
-89.53
-98.09
-103.5
-103.92
-98.21
-86.32
-69.43
-49.6
-29.27
-10.58
5.07
17.15
25.75
31.35
34.42
35.45
34.94
33.54
32.03
31.18
31.53
33.25
36.11
39.71
43.6
47.48
51.2
54.61
57.47
59.47
60.27
59.61
57.52
54.2
50.01
45.3
40.33
35.25
