0
-18.27
-21.23
-24.9
-29.22
-33.71
-37.54
-39.64
-39.11
-35.47
-28.9
-20.21
-10.53
-1.08
7.16
13.59
17.98
20.42
21.22
20.79
19.59
18.11
16.79
15.97
15.88
16.56
17.82
19.35
20.81
21.89
22.47
22.52
22.08
21.14
19.66
17.57
14.93
11.94
8.85
5.91
3.23
0.78
-1.58
-3.93
-6.32
-8.69
-10.95
-13.08
-15.07
-16.99
-18.94
-21.08
-23.7
-27.1
-31.48
-36.71
-42.14
-46.64
-48.89
-47.81
-42.97
-34.83
-24.58
-13.76
-3.79
4.4
10.44
14.43
16.72
17.68
17.69
17.11
16.32
15.7
15.58
16.12
17.32
19.01
20.9
22.64
23.88
24.41
24.16
23.32
22.09
20.72
19.26
17.61
15.66
13.37
10.83
8.25
5.8
3.5
1.25
-1.09
-3.54
-6.04
-8.44
-10.66
-12.79
-15.06
-17.76
-21.13
-25.32
-30.29
-35.74
-41.0
-45.12
-46.92
-45.51
-40.52
-32.43
-22.4
-11.94
-2.39
5.42
11.18
15.0
17.15
17.92
17.63
16.71
15.67
15.02
15.1
16.0
17.54
19.35
21.07
22.4
23.15
23.26
22.82
21.89
20.59
18.97
17.06
14.89
12.54
10.14
7.81
5.65
3.64
1.7
-0.24
-2.22
-4.18
-6.08
-7.92
-9.77
-11.78
-14.09
-16.83
-20.06
-23.81
-27.93
-32.06
-35.47
-37.2
-36.31
-32.19
-24.96
-15.54
-5.4
3.9
11.25
16.18
18.88
19.79
19.4
18.02
15.96
13.65
11.71
10.77
11.27
13.15
15.96
18.97
21.47
23.04
23.55
23.11
21.94
20.3
18.4
16.41
14.42
12.42
10.34
8.02
5.36
2.34
-0.96
-4.35
-7.64
-10.66
-13.34
-15.71
-17.91
-20.16
-22.76
-26.04
-30.22
-35.31
-40.95
-46.32
-50.27
-51.63
-49.5
-43.68
-34.77
-24.01
-13.0
-3.14
4.63
10.02
13.23
14.77
15.16
14.8
13.98
12.99
12.16
11.89
12.46
13.96
16.14
18.55
20.69
22.15
22.79
22.63
21.84
20.55
18.88
16.87
14.6
12.16
9.65
7.15
4.67
2.2
-0.34
-3.0
-5.79
-8.64
-11.47
-14.13
-16.55
-18.83
-21.24
-24.19
-28.1
-33.08
-38.79
-44.37
-48.61
-50.33
-48.71
-43.64
-35.66
-25.8
-15.3
-5.31
3.31
10.0
14.56
17.06
17.88
17.57
16.78
16.12
15.98
16.51
17.69
19.35
21.3
23.31
25.14
26.53
27.24
27.12
26.16
24.48
22.3
19.87
17.4
15.01
12.79
10.74
8.81
6.91
4.93
2.8
0.47
-2.09
-4.81
-7.6
-10.33
-12.91
-15.41
-18.14
-21.58
-26.24
-32.25
-39.13
-45.7
-50.38
-51.69
-48.82
-41.92
-32.01
-20.6
-9.19
1.01
9.36
15.56
19.61
21.71
22.16
21.42
20.04
18.64
17.8
17.93
19.16
21.36
24.08
26.7
28.64
29.45
28.98
27.32
24.76
21.66
18.4
15.27
12.45
10.08
8.15
6.52
5.01
3.41
1.57
-0.53
-2.78
-4.98
-7.01
-8.83
-10.62
-12.69
-15.42
-19.15
-24.0
-29.76
-35.78
-40.95
-44.01
-43.83
-39.86
-32.38
-22.46
-11.63
-1.45
6.97
13.11
17.03
19.05
19.62
19.13
18.02
16.75
15.82
15.68
16.55
18.39
20.89
23.63
26.14
28.01
28.93
28.77
27.53
25.44
22.79
19.94
17.16
14.51
11.95
9.38
6.72
3.98
1.2
-1.56
-4.29
-6.98
-9.65
-12.34
-15.17
-18.43
-22.47
-27.59
-33.73
-40.34
-46.4
-50.62
-51.79
-49.15
-42.68
-33.09
-21.7
-10.06
0.4
8.66
14.3
17.44
18.56
18.22
16.99
15.32
13.71
12.66
12.68
14.1
16.92
20.68
24.62
27.95
30.1
30.91
30.57
29.44
27.83
25.94
23.8
21.44
18.91
16.28
13.57
10.75
7.75
4.48
1.0
-2.57
-6.05
-9.31
-12.39
-15.47
-18.87
-23.0
-28.13
-34.28
-41.04
-47.53
-52.48
-54.57
-52.8
-46.9
-37.41
-25.61
-13.17
-1.66
7.79
14.66
18.97
21.13
21.72
21.35
20.58
19.87
19.64
20.14
21.52
23.7
26.37
29.07
31.28
32.6
32.82
31.98
30.22
27.72
24.66
21.21
17.55
13.94
10.63
7.74
5.29
3.13
1.12
-0.86
-2.82
-4.72
-6.55
-8.36
-10.28
-12.45
-15.09
-18.46
-22.75
-28.09
-34.22
-40.42
-45.52
-48.18
-47.36
-42.62
-34.42
-23.92
-12.67
-2.12
6.71
13.34
17.8
20.37
21.42
21.29
20.33
19.0
17.82
17.22
17.53
18.76
20.64
22.71
24.53
25.77
26.29
26.11
25.36
24.16
22.63
20.82
18.77
16.45
13.88
11.11
8.21
5.29
2.49
-0.11
-2.5
-4.69
-6.78
-8.88
-11.15
-13.73
-16.78
-20.42
-24.75
-29.7
-34.89
-39.66
-42.95
-43.69
-41.05
-34.86
-25.7
-14.84
-3.8
6.0
13.65
18.85
21.74
22.74
22.31
20.89
18.95
17.03
15.72
15.48
16.51
18.63
21.31
23.86
25.69
26.47
26.21
25.14
23.51
21.51
19.19
16.59
13.77
10.87
8.1
5.57
3.32
1.26
-0.73
-2.78
-4.89
-7.07
-9.31
-11.73
-14.58
-18.17
-22.71
-28.17
-34.08
-39.59
-43.57
-44.95
-43.02
-37.69
-29.63
-20.03
-10.26
-1.48
5.61
10.81
14.29
16.29
17.09
16.92
16.07
14.95
14.08
13.91
14.72
16.46
18.8
21.25
23.31
24.61
24.98
24.42
23.01
20.92
18.3
15.3
12.11
8.92
5.93
3.25
0.88
-1.31
-3.48
-5.74
-8.16
-10.65
-13.13
-15.52
-17.83
-20.16
-22.74
-25.81
-29.58
-34.06
-38.88
-43.23
-45.97
-45.91
-42.27
-35.05
-25.07
-13.8
-2.84
6.51
13.58
18.24
20.76
21.57
21.15
19.99
18.56
17.38
16.9
17.33
18.65
20.61
22.81
24.86
26.42
27.23
27.14
26.12
24.26
21.78
18.93
15.95
13.0
10.16
7.42
4.77
2.22
-0.28
-2.69
-4.99
-7.1
-8.98
-10.66
-12.25
-13.99
-16.14
-18.96
-22.62
-27.11
-32.19
-37.34
-41.7
-44.21
-43.85
-40.01
-32.79
-23.1
-12.39
-2.27
6.07
12.03
15.64
17.29
17.49
16.7
15.31
13.75
12.48
11.97
12.5
14.06
16.36
18.89
21.11
22.63
23.25
23.01
22.05
20.54
18.69
16.6
14.36
11.99
9.51
6.95
4.36
1.81
-0.7
-3.14
-5.58
-8.01
-10.37
-12.6
-14.67
-16.74
-19.18
-22.45
-26.8
-32.07
-37.48
-41.82
-43.75
-42.3
-37.2
-29.02
-18.95
-8.43
1.22
9.13
14.93
18.69
20.69
21.26
20.7
19.34
17.58
15.95
15.04
15.25
16.64
18.83
21.13
22.84
23.51
23.1
21.88
20.22
18.32
16.21
13.78
10.96
7.81
4.55
1.38
-1.54
-4.16
-6.54
-8.69
-10.69
-12.57
-14.42
-16.43
-18.82
-21.89
-25.77
-30.4
-35.31
-39.67
-42.37
-42.36
-39.0
-32.31
-23.12
-12.8
-2.87
5.46
11.53
15.32
17.19
17.65
17.15
16.04
14.67
13.4
12.62
12.63
13.58
15.34
17.55
19.79
21.55
22.47
22.3
21.01
18.71
15.67
12.27
8.82
5.52
2.38
-0.64
-3.59
-6.37
-8.86
-10.92
-12.56
-13.94
-15.27
-16.79
-18.69
-21.13
-24.27
-28.25
-33.05
-38.29
-43.16
-46.49
-47.12
-44.29
-37.93
-28.79
-18.13
-7.48
1.88
9.11
13.96
16.68
17.75
17.78
17.26
16.55
15.93
15.66
15.99
17.13
19.12
21.73
24.47
26.73
27.96
27.93
26.69
24.55
21.93
19.15
16.43
13.86
11.37
8.85
6.15
3.22
0.07
-3.14
-6.24
-9.04
-11.55
-13.83
-16.0
-18.23
-20.66
-23.54
-27.11
-31.57
-36.75
-41.94
-45.94
-47.36
-45.2
-39.26
-30.34
-19.89
-9.53
-0.52
6.5
11.47
14.66
16.44
17.12
16.96
16.29
15.49
14.99
15.14
16.07
17.75
19.88
22.07
23.92
25.09
25.42
24.91
23.71
22.06
20.18
18.17
16.02
13.67
11.05
8.17
5.1
1.94
-1.23
-4.31
-7.23
-9.89
-12.19
-14.17
-16.01
-18.08
-20.83
-24.62
-29.51
-35.15
-40.79
-45.37
-47.79
-47.15
-43.04
-35.69
-25.99
-15.24
-4.82
4.15
11.08
15.81
18.51
19.51
19.19
18.02
16.57
15.51
15.4
16.57
18.92
21.99
25.12
27.64
29.11
29.37
28.49
26.69
24.28
21.55
18.67
15.71
12.62
9.34
5.83
2.27
-1.06
-3.85
-5.9
-7.24
-8.09
-8.83
-9.82
-11.39
-13.76
-17.08
-21.33
-26.17
-30.91
-34.53
-35.94
-34.38
-29.68
-22.36
-13.43
-4.17
4.27
11.06
15.74
18.28
18.94
18.23
16.76
15.14
13.87
13.3
13.65
14.91
16.92
19.38
21.8
23.7
24.68
24.57
23.43
21.44
18.86
15.91
12.73
9.41
6.04
2.72
-0.42
-3.25
-5.69
-7.68
-9.31
-10.78
-12.34
-14.28
-16.8
-20.06
-24.12
-28.97
-34.43
-40.01
-44.88
-47.95
-48.18
-44.99
-38.52
-29.63
-19.59
-9.7
-0.88
6.39
12.0
15.97
18.34
19.2
18.84
17.73
16.54
15.9
16.16
17.31
19.02
20.85
22.44
23.57
24.17
24.19
23.59
22.3
20.36
17.91
15.16
12.35
9.57
6.83
4.08
1.26
-1.57
-4.26
-6.65
-8.59
-10.07
-11.21
-12.33
-13.82
-16.1
-19.43
-23.84
-28.93
-33.97
-38.0
-40.03
-39.38
-35.82
-29.65
-21.65
-12.83
-4.23
3.27
9.18
13.31
15.83
17.11
17.54
17.5
17.29
17.15
17.33
18.06
19.52
21.68
24.29
26.85
28.79
29.67
29.29
27.76
25.38
22.51
19.44
16.3
13.14
9.96
6.79
3.64
0.58
-2.34
-5.09
-7.7
-10.2
-12.66
-15.1
-17.54
-20.01
-22.63
-25.62
-29.24
-33.55
-38.25
-42.55
-45.35
-45.51
-42.34
-35.85
-26.8
-16.45
-6.19
2.84
9.92
14.79
17.52
18.43
17.97
16.68
15.19
14.12
13.94
14.95
17.11
20.1
23.34
26.23
28.25
29.07
28.65
27.11
24.73
21.79
18.54
15.22
11.96
8.85
5.91
3.13
0.55
-1.8
-3.84
-5.62
-7.29
-9.12
-11.41
-14.36
-18.04
-22.32
-26.93
-31.49
-35.38
-37.85
-38.14
-35.62
-30.18
-22.33
-13.13
-3.9
4.23
10.59
15.03
17.76
19.09
19.25
18.42
16.82
14.88
13.19
12.36
12.74
14.32
16.69
19.29
21.57
23.13
23.77
23.4
22.03
19.76
16.83
13.51
10.11
6.78
3.53
0.28
-2.99
-6.2
-9.18
-11.79
-14.04
-16.05
-18.1
-20.45
-23.35
-27.02
-31.6
-36.91
-42.34
-46.78
-48.9
-47.56
-42.37
-33.87
-23.39
-12.57
-2.78
5.19
11.13
15.22
17.75
19.04
19.42
19.26
18.96
18.91
19.33
20.27
21.61
23.14
24.57
25.6
25.96
25.47
24.11
22.02
19.49
16.76
14.02
11.3
8.6
5.88
3.19
0.6
-1.84
-4.13
-6.27
-8.3
-10.3
-12.39
-14.78
-17.71
-21.39
-25.92
-31.15
-36.63
-41.64
-45.19
-46.32
-44.35
-39.11
-31.12
-21.46
-11.51
-2.47
4.83
10.19
13.79
16.04
17.29
17.81
17.76
17.37
16.99
16.98
17.63
19.01
20.9
22.91
24.63
25.76
26.18
25.88
24.87
23.15
20.79
17.94
14.85
11.82
9.07
6.62
4.36
2.09
-0.33
-2.96
-5.75
-8.63
-11.49
-14.28
-17.01
-19.78
-22.84
-26.49
-30.87
-35.77
-40.46
-43.86
-44.85
-42.7
-37.39
-29.56
-20.3
-10.76
-1.9
5.65
11.49
15.47
17.61
18.17
17.53
16.2
14.75
13.7
13.45
14.24
16.06
18.67
21.57
24.18
26.01
26.78
26.43
25.12
23.09
20.56
17.73
14.77
11.81
8.94
6.12
3.29
0.34
-2.69
-5.69
-8.5
-11.02
-13.33
-15.65
-18.3
-21.55
-25.48
-29.86
-34.19
-37.7
-39.52
-38.85
-35.22
-28.71
-19.96
-10.14
-0.5
7.84
14.24
18.54
20.92
21.72
21.23
19.75
17.63
15.4
13.72
13.18
14.1
16.34
19.37
22.47
24.94
26.32
26.47
25.48
23.56
21.0
18.05
14.91
11.72
8.58
5.54
2.66
-0.0
-2.42
-4.61
-6.75
-9.04
-11.65
-14.69
-18.19
-22.14
-26.55
-31.35
-36.23
-40.5
-43.18
-43.25
-40.13
-33.89
-25.37
-15.77
-6.33
2.11
9.1
14.5
18.29
20.46
21.08
20.43
18.96
17.25
15.85
15.18
15.44
16.64
18.53
20.68
22.58
23.79
24.06
23.4
21.98
20.04
17.71
15.05
12.06
8.8
5.48
2.32
-0.5
-2.93
-5.04
-6.94
-8.79
-10.67
-12.68
-14.93
-17.6
-20.81
-24.68
-29.17
-33.99
-38.54
-41.92
-43.14
-41.42
-36.56
-28.99
-19.72
-10.04
-1.06
6.52
12.47
16.83
19.75
21.36
21.79
21.28
20.21
19.08
18.37
18.37
19.15
20.55
22.26
23.9
25.13
25.63
25.22
23.89
21.76
19.12
16.28
13.5
10.88
8.41
5.97
3.45
0.78
-2.03
-4.9
-7.74
-10.44
-12.93
-15.21
-17.36
-19.6
-22.21
-25.52
-29.67
-34.52
-39.47
-43.52
-45.5
-44.46
-39.98
-32.39
-22.72
-12.36
-2.67
5.36
11.28
15.08
17.0
17.42
16.72
15.39
13.94
12.96
12.88
13.93
15.99
18.67
21.41
23.69
25.18
25.71
25.3
24.01
22.01
19.49
16.68
13.85
11.15
8.58
6.05
3.43
0.7
-2.03
-4.53
-6.65
-8.37
-9.9
-11.54
-13.57
-16.24
-19.71
-24.0
-28.92
-33.93
-38.15
-40.51
-40.13
-36.61
-30.2
-21.77
-12.47
-3.4
4.62
11.11
15.84
18.81
20.17
20.23
19.5
18.49
17.71
17.44
17.8
18.73
20.07
21.6
23.08
24.24
24.82
24.63
23.63
21.94
19.84
17.61
15.46
13.4
11.29
8.88
6.04
2.78
-0.66
-3.99
-6.95
-9.49
-11.77
-14.09
-16.78
-20.03
-23.91
-28.39
-33.29
-38.22
-42.58
-45.52
-46.12
-43.69
-38.07
-29.79
-20.0
-10.11
-1.36
5.46
10.18
13.08
14.61
15.18
15.11
14.66
14.13
13.89
14.27
15.41
17.21
19.32
21.29
22.72
23.38
23.19
22.22
20.59
18.48
16.08
13.58
11.15
8.84
6.59
4.33
1.98
-0.49
-3.02
-5.51
-7.82
-9.82
-11.52
-13.05
-14.7
-16.85
-19.9
-24.0
-29.04
-34.58
-39.83
-43.89
-45.83
-44.96
-40.99
-34.17
-25.29
-15.53
-6.13
1.83
7.79
11.65
13.7
14.37
14.08
13.25
12.29
11.64
11.76
12.98
15.33
18.47
21.82
24.72
26.7
27.55
27.32
26.22
24.49
22.33
19.95
17.49
15.04
12.62
10.19
7.69
5.08
2.45
-0.1
-2.48
-4.67
-6.66
-8.54
-10.38
-12.35
-14.65
-17.57
-21.34
-26.0
-31.26
-36.4
-40.43
-42.25
-41.02
-36.47
-29.0
-19.69
-9.91
-0.97
6.2
11.22
14.17
15.39
15.27
14.21
12.56
10.79
9.41
8.87
9.41
10.97
13.21
15.62
17.72
19.22
19.98
19.97
19.29
18.05
16.42
14.62
12.83
11.13
9.42
7.55
5.37
2.83
0.12
-2.48
-4.63
-6.09
-6.86
-7.14
-7.32
-7.86
-9.22
-11.73
-15.51
-20.41
-25.96
-31.37
-35.65
-37.79
-37.09
-33.36
-27.04
-19.18
-11.15
-4.22
0.79
3.68
4.81
4.84
4.43
3.98
3.65
3.46
3.43
3.74
4.63
6.32
8.77
11.75
14.79
17.43
19.31
20.25
20.28
19.52
18.14
16.29
14.12
11.74
9.23
6.65
4.02
1.43
-1.02
-3.23
-5.18
-6.93
-8.67
-10.62
-12.95
-15.78
-19.22
-23.35
-28.19
-33.52
-38.73
-42.81
-44.55
-43.06
-38.13
-30.34
-20.95
-11.36
-2.7
4.44
9.92
13.83
16.34
17.61
17.85
17.48
16.97
16.81
17.28
18.45
20.16
22.16
24.14
25.83
26.99
27.4
26.93
25.62
23.58
21.0
18.12
15.08
12.02
8.99
6.04
3.21
0.43
-2.36
-5.25
-8.21
-11.14
-13.86
-16.25
-18.33
-20.37
-22.77
-25.97
-30.21
-35.36
-40.8
-45.56
-48.5
-48.6
-45.32
-38.77
-29.69
-19.28
-8.86
0.42
7.83
13.07
16.2
17.5
17.38
16.34
14.94
13.75
13.2
13.54
14.72
16.46
18.38
20.18
21.64
22.64
23.12
23.0
22.24
20.83
18.88
16.59
14.13
11.65
9.23
6.86
4.52
2.17
-0.18
-2.56
-4.92
-7.21
-9.39
-11.48
-13.55
-15.84
-18.66
-22.31
-26.9
-32.2
-37.62
-42.18
-44.74
-44.38
-40.63
-33.72
-24.51
-14.3
-4.42
4.08
10.64
15.17
17.89
19.14
19.27
18.62
17.52
16.38
15.62
15.59
16.46
18.17
20.47
22.91
25.03
26.42
26.84
26.25
24.82
22.79
20.43
17.91
15.25
12.45
9.48
6.42
3.4
0.57
-2.0
-4.31
-6.44
-8.49
-10.55
-12.67
-15.0
-17.75
-21.15
-25.31
-30.06
-34.82
-38.68
-40.58
-39.6
-35.33
-28.01
-18.52
-8.17
1.71
10.08
16.38
20.55
22.85
23.61
23.16
21.8
19.85
17.79
16.23
15.72
16.63
18.85
21.82
24.69
26.65
27.2
26.3
24.32
21.74
19.08
16.6
14.35
12.22
10.02
7.62
4.99
2.15
-0.79
-3.74
-6.66
-9.51
-12.31
-15.14
-18.15
-21.55
-25.57
-30.29
-35.45
-40.37
-43.99
-45.13
-42.97
-37.3
-28.75
-18.54
-8.07
1.44
9.21
14.96
18.72
20.69
21.15
20.45
19.03
17.4
16.08
15.49
15.9
17.36
19.66
22.33
24.77
26.33
26.6
25.49
23.28
20.47
17.51
14.65
11.94
9.28
6.59
3.88
1.18
-1.52
-4.32
-7.29
-10.49
-13.81
-17.13
-20.44
-23.87
-27.69
-32.13
-37.22
-42.55
-47.34
-50.54
-51.14
-48.47
-42.44
-33.62
-23.12
-12.26
-2.23
6.18
12.61
17.09
19.86
21.22
21.47
20.96
20.12
19.39
19.2
19.82
21.34
23.59
26.24
28.82
30.84
31.94
31.93
30.86
28.98
26.6
24.01
21.36
18.65
15.78
12.65
9.21
5.51
1.64
-2.28
-6.13
-9.8
-13.21
-16.38
-19.48
-22.87
-26.98
-32.09
-38.11
-44.39
-49.78
-52.93
-52.7
-48.58
-40.84
-30.48
-18.9
-7.55
2.44
10.41
16.18
19.95
22.09
23.03
23.14
22.74
22.12
21.6
21.49
22.01
23.19
24.82
26.48
27.68
28.03
27.37
25.77
23.51
20.89
18.17
15.47
12.76
9.95
6.91
3.68
0.37
-2.8
-5.61
-7.98
-10.02
-12.02
-14.34
-17.27
-21.0
-25.51
-30.61
-35.85
-40.52
-43.71
-44.45
-42.03
-36.21
-27.52
-17.04
-6.19
3.69
11.73
17.53
21.18
23.02
23.39
22.64
21.16
19.44
18.08
17.66
18.53
20.63
23.47
26.3
28.36
29.22
28.8
27.42
25.57
23.61
21.74
19.84
17.69
15.1
12.07
8.7
5.16
1.65
-1.74
-4.98
-8.06
-11.08
-14.24
-17.89
-22.4
-27.93
-34.23
-40.51
-45.59
-48.27
-47.69
-43.61
-36.5
-27.27
-17.0
-6.67
3.01
11.56
18.69
24.25
28.21
30.66
31.87
32.24
32.29
32.49
33.24
34.68
36.7
38.93
40.78
41.68
41.21
39.19
35.75
31.27
26.18
20.91
15.72
10.73
5.99
1.5
-2.69
-6.5
-9.84
-12.67
-15.1
-17.3
-19.54
-22.12
-25.3
-29.24
-33.95
-39.23
-44.6
-49.25
-52.17
-52.37
-49.16
-42.42
-32.78
-21.47
-9.99
0.27
8.45
14.28
18.01
20.14
21.1
21.24
20.82
20.14
19.62
19.7
20.63
22.41
24.74
27.14
29.17
30.49
30.94
30.46
29.09
26.9
24.08
20.88
17.55
14.28
11.09
7.97
4.83
1.69
-1.37
-4.23
-6.89
-9.43
-12.03
-14.93
-18.36
-22.46
-27.31
-32.79
-38.53
-43.87
-47.85
-49.48
-47.96
-42.96
-34.82
-24.45
-13.13
-2.21
7.26
14.64
19.73
22.73
24.0
23.98
23.12
21.87
20.66
19.9
19.86
20.65
22.13
24.0
25.86
27.29
27.96
27.69
26.44
24.39
21.81
19.02
16.3
13.71
11.17
8.49
5.55
2.34
-0.96
-4.14
-7.07
-9.77
-12.44
-15.32
-18.56
-22.26
-26.48
-31.18
-36.29
-41.5
-46.14
-49.28
-49.85
-47.09
-40.82
-31.62
-20.68
-9.42
0.85
9.29
15.55
19.63
21.72
22.06
20.96
18.85
16.38
14.27
13.18
13.44
14.98
17.33
19.87
21.96
23.17
23.31
22.41
20.61
18.13
15.19
11.98
8.62
5.17
1.65
-1.84
-5.2
-8.28
-11.01
-13.4
-15.55
-17.62
-19.8
-22.25
-25.19
-28.83
-33.24
-38.17
-42.92
-46.42
-47.5
-45.35
-39.84
-31.72
-22.3
-13.07
-5.19
0.8
5.01
7.99
10.41
12.8
15.52
18.75
22.61
27.17
32.38
37.98
43.51
48.41
52.19
54.53
55.36
54.74
52.84
49.84
45.92
41.33
36.29
30.98
25.46
19.68
13.63
7.44
1.41
-4.07
-8.77
-12.69
-16.13
-19.56
-23.42
-28.0
-33.39
-39.44
-45.75
-51.62
-56.11
-58.18
-56.97
-52.12
-43.99
-33.61
-22.38
-11.7
-2.64
4.33
9.22
12.42
14.39
15.53
16.14
16.41
16.57
16.9
17.67
19.03
20.87
22.9
24.64
25.7
25.87
25.16
23.72
21.74
19.33
16.59
13.53
10.2
6.64
2.93
-0.83
-4.48
-7.79
-10.56
-12.72
-14.38
-15.9
-17.72
-20.21
-23.57
-27.82
-32.77
-38.06
-43.18
-47.32
-49.53
-48.86
-44.76
-37.38
-27.59
-16.8
-6.5
2.24
8.89
13.49
16.35
17.83
18.27
17.99
17.39
16.92
16.99
17.84
19.48
21.67
23.99
26.04
27.41
27.83
27.19
25.54
23.12
20.26
17.31
14.46
11.72
8.95
5.94
2.59
-1.03
-4.68
-8.09
-11.0
-13.39
-15.41
-17.4
-19.74
-22.76
-26.64
-31.34
-36.57
-41.81
-46.35
-49.32
-49.91
-47.47
-41.82
-33.37
-23.04
-12.13
-1.94
6.56
12.91
17.18
19.71
20.95
21.26
20.91
20.19
19.48
19.2
19.68
20.98
22.83
24.76
26.28
27.08
27.03
26.22
24.78
22.86
20.56
18.0
15.27
12.49
9.66
6.79
3.86
0.86
-2.16
-5.11
-7.94
-10.64
-13.22
-15.75
-18.29
-20.98
-24.05
-27.7
-31.94
-36.49
-40.66
-43.49
-44.03
-41.62
-36.17
-28.23
-18.79
-9.03
-0.04
7.46
13.12
16.94
19.1
19.85
19.5
18.39
16.98
15.79
15.36
15.97
17.59
19.79
21.96
23.5
24.09
23.69
22.49
20.7
18.47
15.84
12.89
9.75
6.61
3.64
0.9
-1.69
-4.31
-7.04
-9.86
-12.63
-15.2
-17.47
-19.51
-21.54
-23.85
-26.74
-30.34
-34.55
-38.93
-42.72
-44.99
-44.85
-41.75
-35.73
-27.42
-17.9
-8.39
0.06
6.79
11.54
14.39
15.62
15.6
14.78
13.64
12.66
12.27
12.74
14.15
16.35
18.98
21.53
23.47
24.4
24.16
22.87
20.84
18.46
16.03
13.58
10.99
8.05
4.7
1.09
-2.49
-5.69
-8.3
-10.31
-11.93
-13.46
-15.27
-17.66
-20.85
-24.91
-29.68
-34.71
-39.29
-42.47
-43.32
-41.15
-35.8
-27.74
-17.95
-7.71
1.82
9.8
15.8
19.78
21.91
22.47
21.76
20.2
18.35
16.87
16.33
17.05
18.9
21.37
23.7
25.24
25.51
24.44
22.28
19.42
16.29
13.17
10.18
7.3
4.38
1.34
-1.86
-5.13
-8.28
-11.12
-13.53
-15.48
-17.19
-18.95
-21.15
-24.2
-28.35
-33.64
-39.73
-45.82
-50.76
-53.31
-52.42
-47.69
-39.54
-29.12
-17.97
-7.58
1.06
7.57
12.05
14.88
16.43
16.97
16.75
16.1
15.43
15.19
15.73
17.14
19.21
21.51
23.51
24.74
24.93
24.09
22.45
20.37
18.2
16.13
14.13
11.98
9.44
6.43
3.09
-0.27
-3.38
-6.06
-8.39
-10.53
-12.69
-15.02
-17.67
-20.81
-24.67
-29.33
-34.65
-40.06
-44.66
-47.34
-47.13
-43.52
-36.61
-27.15
-16.37
-5.65
3.79
11.21
16.36
19.46
20.92
21.2
20.7
19.72
18.62
17.83
17.7
18.47
20.07
22.23
24.55
26.65
28.23
29.13
29.21
28.42
26.77
24.41
21.62
18.65
15.73
12.92
10.17
7.37
4.48
1.54
-1.39
-4.24
-7.02
-9.81
-12.67
-15.68
-18.91
-22.47
-26.52
-31.18
-36.33
-41.47
-45.67
-47.8
-46.9
-42.51
-34.93
-25.11
-14.42
-4.2
4.55
11.3
16.01
18.85
20.17
20.32
19.67
18.62
17.63
17.16
17.55
18.95
21.2
23.87
26.38
28.23
29.08
28.87
27.73
25.91
23.63
21.01
18.1
14.99
11.78
8.59
5.52
2.59
-0.21
-2.85
-5.29
-7.45
-9.37
-11.17
-13.12
-15.52
-18.65
-22.66
-27.49
-32.79
-37.91
-41.88
-43.62
-42.25
-37.46
-29.7
-20.05
-9.89
-0.47
7.43
13.51
17.76
20.36
21.47
21.32
20.35
19.13
18.35
18.54
19.93
22.39
25.43
28.37
30.54
31.43
30.79
28.76
25.76
22.35
19.04
16.06
13.39
10.82
8.14
5.28
2.32
-0.55
-3.24
-5.71
-8.08
-10.44
-12.89
-15.47
-18.28
-21.49
-25.32
-29.91
-35.01
-39.93
-43.56
-44.7
-42.45
-36.55
-27.58
-16.77
-5.65
4.42
12.52
18.34
21.96
23.74
24.05
23.29
21.91
20.44
19.46
19.41
20.49
22.54
25.09
27.57
29.41
30.24
29.91
28.47
26.16
23.31
20.31
17.45
14.84
12.37
9.79
6.88
3.67
0.37
-2.69
-5.29
-7.52
-9.66
-12.09
-15.01
-18.5
-22.49
-26.98
-32.01
-37.56
-43.26
-48.29
-51.48
-51.65
-48.13
-41.07
-31.4
-20.59
-10.09
-0.99
6.18
11.39
14.91
17.11
18.31
18.77
18.78
18.65
18.72
19.27
20.48
22.3
24.51
26.74
28.56
29.61
29.66
28.67
26.76
24.18
21.19
18.08
15.04
12.18
9.52
6.95
4.31
1.43
-1.73
-5.06
-8.32
-11.2
-13.57
-15.54
-17.44
-19.78
-23.01
-27.39
-32.81
-38.77
-44.38
-48.5
-50.02
-48.1
-42.55
-33.92
-23.41
-12.54
-2.7
5.19
10.76
14.2
15.92
16.4
16.09
15.38
14.7
14.43
14.92
16.31
18.47
21.06
23.56
25.46
26.37
26.11
24.76
22.6
20.05
17.44
14.98
12.71
10.47
8.1
5.53
2.84
0.21
-2.18
-4.19
-5.87
-7.28
-8.62
-10.06
-11.87
-14.36
-17.83
-22.43
-27.99
-33.98
-39.48
-43.41
-44.71
-42.67
-37.14
-28.66
-18.35
-7.63
2.09
9.79
15.03
17.94
18.98
18.75
17.78
16.49
15.23
14.35
14.16
14.89
16.53
18.83
21.33
23.51
24.94
25.37
24.79
23.36
21.28
18.74
15.88
12.75
9.4
5.91
2.38
-1.02
-4.12
-6.78
-8.95
-10.73
-12.34
-14.07
-16.21
-19.06
-22.79
-27.44
-32.82
-38.35
-43.12
-45.95
-45.77
-41.95
-34.62
-24.69
-13.54
-2.62
6.99
14.69
20.33
23.94
25.65
25.7
24.46
22.56
20.69
19.44
19.08
19.59
20.7
22.07
23.41
24.46
25.03
24.89
23.95
22.16
19.63
16.55
13.15
9.63
6.07
2.55
-0.91
-4.25
-7.4
-10.28
-12.83
-15.05
-17.03
-18.95
-21.04
-23.49
-26.46
-30.04
-34.19
-38.71
-43.07
-46.44
-47.77
-46.12
-41.08
-32.97
-22.82
-12.03
-1.9
6.67
13.3
17.95
20.77
21.95
21.74
20.59
19.06
17.76
17.18
17.53
18.73
20.5
22.51
24.43
25.98
26.95
27.11
26.37
24.74
22.41
19.69
16.89
14.19
11.62
9.06
6.4
3.62
0.83
-1.82
-4.25
-6.57
-8.96
-11.67
-14.78
-18.25
-22.05
-26.24
-31.0
-36.42
-42.24
-47.67
-51.45
-52.27
-49.28
-42.45
-32.65
-21.32
-10.03
-0.01
8.03
13.85
17.54
19.33
19.55
18.63
17.08
15.52
14.51
14.51
15.71
17.98
20.91
23.88
26.27
27.58
27.63
26.44
24.27
21.45
18.34
15.21
12.25
9.52
6.97
4.48
1.94
-0.74
-3.47
-6.15
-8.65
-10.93
-13.05
-15.18
-17.52
-20.28
-23.68
-27.88
-32.8
-37.99
-42.54
-45.23
-44.91
-40.91
-33.34
-23.17
-11.84
-0.87
8.59
15.94
21.05
24.1
25.38
25.17
23.83
21.85
19.86
18.51
18.3
19.39
21.54
24.15
26.5
27.98
28.29
27.46
25.7
23.35
20.66
17.77
14.75
11.63
8.44
5.2
1.95
-1.26
-4.35
-7.24
-9.87
-12.27
-14.55
-16.97
-19.83
-23.43
-27.93
-33.21
-38.74
-43.63
-46.74
-47.04
-43.87
-37.3
-28.01
-17.21
-6.23
3.73
11.87
17.79
21.44
23.06
23.07
22.03
20.58
19.39
18.99
19.69
21.49
24.12
27.08
29.84
31.94
33.03
32.92
31.52
28.9
25.28
21.03
16.59
12.38
8.56
5.06
1.67
-1.84
-5.49
-9.1
-12.44
-15.34
-17.82
-20.08
-22.4
-25.09
-28.44
-32.67
-37.81
-43.53
-49.02
-53.07
-54.42
-52.17
-46.14
-36.94
-25.81
-14.18
-3.35
5.78
12.75
17.54
20.37
21.64
21.76
21.13
20.15
19.25
18.87
19.43
21.08
23.68
26.68
29.36
31.14
31.68
31.04
29.52
27.45
25.07
22.44
19.55
16.4
13.01
9.45
5.82
2.22
-1.2
-4.33
-7.12
-9.61
-11.93
-14.31
-16.95
-20.03
-23.69
-28.05
-33.08
-38.51
-43.65
-47.43
-48.64
-46.3
-40.08
-30.54
-19.0
-7.12
3.56
12.07
18.13
21.98
24.08
24.87
24.66
23.71
22.34
21.01
20.25
20.49
21.86
24.1
26.62
28.67
29.69
29.39
27.84
25.37
22.41
19.27
16.16
13.15
10.3
7.64
5.18
2.9
0.74
-1.44
-3.7
-6.08
-8.46
-10.75
-12.87
-14.93
-17.24
-20.21
-24.18
-29.21
-34.88
-40.33
-44.35
-45.77
-43.75
-38.13
-29.48
-18.97
-8.08
1.86
9.88
15.55
18.9
20.17
19.77
18.2
16.02
13.92
12.57
12.53
14.04
16.91
20.57
24.21
27.05
28.52
28.43
26.96
24.57
21.75
18.88
16.12
13.43
10.68
7.77
4.76
1.73
-1.24
-4.17
-7.06
-9.94
-12.74
-15.38
-17.95
-20.69
-23.97
-28.0
-32.7
-37.44
-41.26
-43.04
-41.92
-37.51
-30.04
-20.31
-9.5
1.1
10.33
17.4
21.99
24.22
24.48
23.32
21.31
19.03
17.04
15.91
16.04
17.54
20.1
23.09
25.73
27.36
27.65
26.63
24.61
21.98
19.06
16.05
13.03
9.99
6.88
3.68
0.39
-2.91
-6.11
-9.1
-11.77
-14.13
-16.3
-18.54
-21.19
-24.59
-28.97
-34.27
-40.05
-45.47
-49.39
-50.7
-48.62
-42.94
-34.19
-23.41
-11.99
-1.21
7.87
14.66
18.96
20.96
21.09
19.94
18.15
16.38
15.12
14.77
15.53
17.43
20.2
23.42
26.45
28.66
29.55
28.96
27.05
24.26
21.08
17.88
14.85
11.99
9.16
6.27
3.27
0.2
-2.89
-5.97
-9.02
-12.0
-14.92
-17.78
-20.68
-23.82
-27.46
-31.79
-36.76
-41.85
-46.19
-48.63
-48.12
-44.07
-36.66
-26.84
-16.07
-5.85
2.7
9.12
13.46
16.11
17.44
17.74
17.27
16.38
15.59
15.45
16.34
18.27
20.91
23.74
26.27
28.17
29.23
29.36
28.51
26.76
24.32
21.54
18.73
16.07
13.53
10.93
8.13
5.07
1.85
-1.39
-4.47
-7.29
-9.82
-12.11
-14.29
-16.62
-19.44
-23.09
-27.74
-33.2
-38.84
-43.69
-46.61
-46.6
-43.1
-36.22
-26.76
-16.05
-5.57
3.39
10.08
14.35
16.51
17.06
16.47
15.22
13.71
12.42
11.83
12.34
14.08
16.81
20.03
23.08
25.39
26.58
26.56
25.45
23.57
21.36
19.18
17.21
15.38
13.39
10.9
7.73
4.0
0.08
-3.59
-6.73
-9.36
-11.72
-14.11
-16.81
-19.94
-23.61
-27.87
-32.68
-37.72
-42.2
-45.02
-44.95
-41.24
-33.92
-23.93
-12.83
-2.29
6.44
12.75
16.67
18.59
19.01
18.37
17.02
15.3
13.68
12.64
12.61
13.79
16.03
18.8
21.32
22.82
22.87
21.47
19.04
16.15
13.26
10.58
8.0
5.28
2.22
-1.26
-5.12
-9.26
-13.54
-17.93
-22.35
-26.76
-31.17
-35.68
-40.54
-46.07
-52.55
-60.04
-68.21
-76.27
-83.07
-87.36
-88.2
-85.35
-79.34
-71.35
-62.75
-54.67
-47.62
-41.57
-36.04
-30.51
-24.55
-17.9
-10.37
-1.79
7.94
18.79
30.43
42.26
53.55
63.56
71.71
77.61
81.1
82.17
81.05
78.17
74.08
69.3
64.21
58.97
53.56
47.92
42.09
36.24
30.56
25.25
20.35
15.82
11.49
7.16
2.59
-2.47
-8.22
-14.7
-21.62
-28.29
-33.73
-36.82
-36.71
-33.05
-26.15
-16.96
-6.83
2.88
11.09
17.27
21.35
23.6
24.44
24.22
23.3
22.02
20.77
19.97
19.97
20.96
22.84
25.23
27.56
29.28
29.98
29.51
27.96
25.61
22.78
19.75
16.68
13.58
10.38
7.02
3.5
-0.01
-3.32
-6.24
-8.72
-10.87
-12.92
-15.1
-17.61
