0
-4.06
-5.63
-6.98
-8.01
-8.78
-9.42
-10.24
-11.51
-13.33
-15.5
-17.54
-18.85
-18.91
-17.53
-14.83
-11.19
-7.11
-3.03
0.68
3.75
6.0
7.35
7.81
7.54
6.82
6.04
5.48
5.34
5.6
6.09
6.63
7.06
7.39
7.76
8.37
9.35
10.62
11.95
12.99
13.42
13.11
12.11
10.68
9.07
7.48
5.94
4.33
2.55
0.56
-1.51
-3.46
-5.08
-6.34
-7.32
-8.19
-9.14
-10.26
-11.56
-13.01
-14.6
-16.32
-18.09
-19.63
-20.54
-20.31
-18.61
-15.4
-11.1
-6.39
-2.05
1.48
4.09
6.0
7.46
8.62
9.37
9.51
8.95
7.85
6.6
5.6
5.13
5.18
5.58
6.1
6.58
6.99
7.33
7.6
7.75
7.72
7.46
7.02
6.49
5.96
5.46
4.95
4.37
3.62
2.71
1.67
0.5
-0.81
-2.36
-4.23
-6.5
-9.1
-11.86
-14.56
-16.93
-18.74
-19.73
-19.71
-18.57
-16.31
-13.11
-9.33
-5.37
-1.63
1.63
4.3
6.41
8.01
9.15
9.86
10.09
9.79
8.96
7.65
6.07
4.51
3.27
2.64
2.69
3.35
4.41
5.61
6.73
7.6
8.11
8.21
7.86
7.04
5.78
4.22
2.46
0.65
-1.14
-2.88
-4.55
-6.1
-7.53
-8.83
-10.07
-11.34
-12.79
-14.51
-16.45
-18.37
-19.85
-20.4
-19.62
-17.37
-13.85
-9.54
-4.98
-0.65
3.22
6.54
9.34
11.62
13.27
14.22
14.42
13.93
12.88
11.48
9.98
8.64
7.7
7.36
7.67
8.51
9.66
10.82
11.79
12.43
12.68
12.48
11.78
10.53
8.73
6.5
4.03
1.59
-0.64
-2.55
-4.19
-5.72
-7.34
-9.15
-11.19
-13.35
-15.46
-17.4
-19.12
-20.61
-21.84
-22.66
-22.87
-22.2
-20.48
-17.68
-13.98
-9.64
-5.02
-0.43
3.84
7.55
10.48
12.51
13.59
13.81
13.36
12.49
11.45
10.44
9.61
9.04
8.75
8.78
9.07
9.56
10.16
10.69
10.98
10.89
10.36
9.45
8.3
7.08
5.91
4.76
3.52
2.09
0.41
-1.45
-3.3
-4.9
-6.08
-6.83
-7.26
-7.64
-8.21
-9.25
-10.86
-12.97
-15.35
-17.62
-19.3
-19.93
-19.23
-17.11
-13.77
-9.62
-5.13
-0.77
3.11
6.31
8.78
10.51
11.55
11.95
11.76
11.06
9.98
8.72
7.46
6.43
5.76
5.52
5.71
6.21
6.89
7.57
8.1
8.37
8.32
7.92
7.22
6.31
5.33
4.44
3.75
3.25
2.85
2.38
1.64
0.53
-0.88
-2.45
-3.98
-5.34
-6.58
-7.84
-9.3
-11.07
-13.09
-15.14
-16.95
-18.24
-18.77
-18.36
-16.88
-14.31
-10.81
-6.69
-2.45
1.41
4.48
6.59
7.81
8.36
8.5
8.4
8.13
7.69
7.09
6.4
5.79
5.41
5.37
5.66
6.23
6.95
7.7
8.4
8.97
9.32
9.32
8.9
8.07
6.94
5.69
4.45
3.28
2.09
0.78
-0.72
-2.39
-4.11
-5.8
-7.43
-9.09
-10.96
-13.21
-15.85
-18.71
-21.37
-23.31
-24.06
-23.34
-21.17
-17.84
-13.86
-9.7
-5.67
-1.95
1.42
4.37
6.75
8.37
9.06
8.79
7.67
5.96
3.96
2.04
0.55
-0.21
0.03
1.33
3.59
6.47
9.52
12.3
14.51
16.05
16.93
17.23
17.0
16.23
14.88
12.96
10.52
7.8
5.07
2.64
0.69
-0.81
-2.09
-3.45
-5.12
-7.19
-9.56
-12.02
-14.4
-16.54
-18.22
-19.15
-18.95
-17.33
-14.21
-9.89
-4.97
-0.2
3.77
6.61
8.33
9.17
9.46
9.46
9.25
8.81
8.12
7.27
6.5
6.11
6.28
6.99
7.94
8.78
9.2
9.11
8.67
8.12
7.69
7.43
7.25
6.95
6.36
5.36
3.94
2.12
0.01
-2.21
-4.34
-6.2
-7.77
-9.12
-10.47
-12.01
-13.88
-16.09
-18.52
-20.99
-23.27
-25.11
-26.21
-26.26
-24.99
-22.33
-18.47
-13.8
-8.89
-4.22
-0.11
3.37
6.29
8.69
10.54
11.68
11.96
11.42
10.29
8.97
7.87
7.28
7.21
7.56
8.12
8.77
9.52
10.36
11.24
11.94
12.19
11.72
10.51
8.73
6.7
4.78
3.17
1.88
0.73
-0.5
-1.98
-3.76
-5.73
-7.69
-9.47
-11.03
-12.44
-13.89
-15.56
-17.48
-19.52
-21.4
-22.75
-23.24
-22.69
-21.0
-18.21
-14.47
-10.0
-5.14
-0.27
4.19
7.87
10.53
12.1
12.66
12.41
11.62
10.54
9.37
8.31
7.54
7.18
7.36
8.08
9.21
10.51
11.66
12.41
12.6
12.27
11.58
10.72
9.79
8.78
7.6
6.11
4.27
2.16
-0.02
-2.06
-3.84
-5.32
-6.61
-7.87
-9.2
-10.63
-12.12
-13.69
-15.42
-17.38
-19.52
-21.55
-22.98
-23.27
-22.05
-19.27
-15.24
-10.43
-5.37
-0.47
3.96
7.78
10.86
13.13
14.56
15.18
15.05
14.28
12.99
11.34
9.59
8.05
7.03
6.73
7.11
7.94
8.88
9.64
10.08
10.19
10.06
9.77
9.36
8.78
7.95
6.86
5.51
3.96
2.34
0.74
-0.75
-2.09
-3.3
-4.41
-5.51
-6.66
-7.97
-9.5
-11.35
-13.6
-16.29
-19.25
-22.12
-24.34
-25.28
-24.48
-21.71
-17.27
-11.74
-5.95
-0.64
3.7
6.9
9.06
10.39
11.05
11.13
10.72
9.92
8.93
7.99
7.32
7.07
7.28
7.95
9.05
10.49
12.08
13.55
14.59
14.99
14.69
13.78
12.49
10.97
9.31
7.46
5.36
3.0
0.49
-1.97
-4.17
-5.98
-7.44
-8.73
-10.16
-11.98
-14.31
-17.08
-20.01
-22.67
-24.59
-25.36
-24.66
-22.32
-18.37
-13.13
-7.16
-1.16
4.22
8.5
11.59
13.63
14.9
15.58
15.69
15.14
13.88
12.07
10.06
8.28
7.11
6.7
6.96
7.67
8.59
9.51
10.33
10.99
11.42
11.55
11.29
10.6
9.44
7.9
6.03
3.93
1.71
-0.55
-2.76
-4.84
-6.78
-8.64
-10.54
-12.64
-15.07
-17.87
-20.88
-23.73
-25.97
-27.11
-26.81
-24.91
-21.51
-16.91
-11.56
-5.97
-0.64
4.05
7.89
10.82
12.86
14.04
14.38
13.89
12.69
11.05
9.41
8.26
7.97
8.62
9.99
11.7
13.37
14.73
15.71
16.35
16.71
16.81
16.59
15.95
14.78
13.06
10.76
7.99
4.95
1.91
-0.85
-3.13
-4.91
-6.39
-7.8
-9.4
-11.35
-13.68
-16.35
-19.28
-22.25
-24.89
-26.63
-26.83
-25.08
-21.42
-16.39
-10.89
-5.79
-1.64
1.52
3.98
6.18
8.33
10.41
12.14
13.21
13.45
12.95
11.97
10.9
10.09
9.77
10.02
10.8
11.95
13.34
14.81
16.17
17.24
17.79
17.67
16.83
15.37
13.5
11.4
9.21
6.97
4.7
2.42
0.17
-2.06
-4.29
-6.56
-8.88
-11.27
-13.74
-16.32
-19.11
-22.1
-25.09
-27.61
-28.97
-28.53
-25.96
-21.41
-15.46
-8.96
-2.72
2.72
7.08
10.34
12.63
14.15
15.06
15.47
15.42
14.94
14.17
13.31
12.64
12.44
12.86
13.87
15.22
16.58
17.6
18.09
17.96
17.31
16.26
14.94
13.44
11.76
9.93
7.92
5.82
3.67
1.6
-0.35
-2.16
-3.89
-5.64
-7.56
-9.75
-12.33
-15.33
-18.71
-22.29
-25.75
-28.63
-30.42
-30.68
-29.17
-25.94
-21.33
-15.89
-10.22
-4.81
0.04
4.27
7.92
11.02
13.53
15.27
16.05
15.78
14.62
12.95
11.24
9.94
9.25
9.16
9.49
10.06
10.73
11.46
12.22
12.92
13.4
13.47
12.97
11.86
10.22
8.23
6.17
4.27
2.68
1.41
0.33
-0.79
-2.21
-4.15
-6.68
-9.81
-13.35
-17.01
-20.4
-23.05
-24.54
-24.55
-22.98
-19.93
-15.68
-10.67
-5.41
-0.35
4.09
7.68
10.33
12.03
12.89
12.97
12.35
11.13
9.55
7.92
6.61
5.94
5.98
6.65
7.69
8.82
9.86
10.7
11.37
11.86
12.14
12.11
11.6
10.47
8.7
6.42
3.93
1.59
-0.32
-1.72
-2.8
-3.92
-5.48
-7.75
-10.75
-14.33
-18.15
-21.78
-24.68
-26.33
-26.31
-24.34
-20.48
-15.13
-8.98
-2.8
2.7
7.09
10.22
12.21
13.3
13.72
13.67
13.23
12.48
11.5
10.41
9.41
8.65
8.29
8.39
8.92
9.78
10.8
11.76
12.5
12.82
12.69
12.11
11.18
9.98
8.56
6.89
4.96
2.79
0.44
-1.96
-4.32
-6.62
-8.95
-11.35
-13.89
-16.57
-19.35
-22.16
-24.85
-27.17
-28.72
-29.09
-27.91
-25.02
-20.55
-14.91
-8.69
-2.47
3.23
8.13
12.09
15.09
17.1
18.09
18.08
17.16
15.62
13.87
12.33
11.3
10.87
10.86
11.1
11.45
11.84
12.32
12.84
13.31
13.54
13.39
12.84
11.98
10.9
9.64
8.17
6.44
4.46
2.37
0.3
-1.63
-3.47
-5.41
-7.67
-10.37
-13.57
-17.14
-20.88
-24.51
-27.7
-30.05
-31.12
-30.57
-28.26
-24.32
-19.14
-13.26
-7.23
-1.41
3.96
8.77
12.87
16.03
18.01
18.71
18.24
16.97
15.42
14.03
13.0
12.37
12.0
11.88
12.05
12.66
13.72
15.06
16.32
17.13
17.23
16.61
15.44
13.93
12.21
10.32
8.22
5.88
3.42
1.05
-1.03
-2.73
-4.11
-5.4
-6.86
-8.73
-11.09
-13.89
-17.01
-20.3
-23.55
-26.47
-28.58
-29.32
-28.16
-24.86
-19.69
-13.37
-6.86
-1.03
3.61
6.95
9.23
10.72
11.57
11.85
11.52
10.69
9.53
8.36
7.47
7.03
7.07
7.43
7.9
8.33
8.64
8.83
8.98
9.08
9.05
8.81
8.24
7.34
6.14
4.76
3.27
1.76
0.25
-1.16
-2.34
-3.24
-3.88
-4.48
-5.36
-6.84
-9.09
-12.06
-15.45
-18.76
-21.43
-22.92
-22.91
-21.29
-18.23
-14.09
-9.33
-4.4
0.3
4.42
7.71
9.99
11.19
11.4
10.87
9.86
8.64
7.41
6.36
5.68
5.55
6.02
6.98
8.11
9.07
9.65
9.88
9.95
10.02
10.11
10.01
9.43
8.15
6.16
3.65
0.93
-1.76
-4.26
-6.57
-8.69
-10.67
-12.58
-14.48
-16.46
-18.61
-20.89
-23.17
-25.11
-26.27
-26.17
-24.46
-21.06
-16.18
-10.37
-4.33
1.31
6.01
9.53
11.82
13.02
13.41
13.24
12.73
12.01
11.12
10.04
8.86
7.76
6.98
6.75
7.12
7.97
8.96
9.78
10.23
10.26
9.93
9.34
8.54
7.55
6.42
5.21
3.97
2.72
1.43
0.07
-1.33
-2.67
-3.89
-4.96
-6.02
-7.31
-9.07
-11.41
-14.25
-17.34
-20.31
-22.73
-24.15
-24.22
-22.69
-19.57
-15.19
-10.09
-4.94
-0.32
3.45
6.33
8.43
9.91
10.87
11.32
11.25
10.71
9.86
8.95
8.25
7.94
8.11
8.66
9.48
10.45
11.5
12.64
13.84
15.01
15.97
16.49
16.37
15.52
14.01
12.04
9.83
7.53
5.22
2.9
0.54
-1.86
-4.24
-6.55
-8.74
-10.87
-13.0
-15.27
-17.75
-20.42
-23.06
-25.29
-26.62
-26.58
-24.92
-21.65
-17.05
-11.63
-5.96
-0.58
4.13
7.93
10.76
12.6
13.58
13.82
13.53
12.94
12.27
11.71
11.35
11.17
11.12
11.09
11.01
10.85
10.61
10.31
9.95
9.47
8.87
8.14
7.3
6.36
5.3
4.1
2.71
1.18
-0.42
-1.96
-3.29
-4.35
-5.1
-5.67
-6.2
-6.99
-8.27
-10.27
-13.0
-16.19
-19.34
-21.76
-22.85
-22.25
-20.0
-16.44
-12.11
-7.58
-3.28
0.52
3.69
6.21
8.14
9.5
10.27
10.4
9.86
8.75
7.31
5.9
4.92
4.61
4.98
5.81
6.83
7.77
8.53
9.16
9.75
10.34
10.86
11.11
10.84
9.88
8.26
6.17
3.95
1.91
0.2
-1.32
-2.94
-4.96
-7.45
-10.3
-13.24
-16.02
-18.49
-20.59
-22.22
-23.13
-22.93
-21.29
-18.13
-13.73
-8.63
-3.48
1.22
5.21
8.45
10.98
12.77
13.77
13.85
13.07
11.62
9.9
8.38
7.41
7.16
7.53
8.27
9.05
9.68
10.1
10.35
10.47
10.44
10.16
9.58
8.69
7.55
6.18
4.6
2.78
0.73
-1.49
-3.69
-5.7
-7.44
-8.99
-10.56
-12.36
-14.51
-17.03
-19.81
-22.68
-25.41
-27.63
-28.88
-28.65
-26.61
-22.74
-17.42
-11.33
-5.26
0.18
4.63
8.08
10.76
12.87
14.52
15.67
16.17
15.88
14.84
13.3
11.63
10.25
9.42
9.2
9.51
10.14
10.89
11.65
12.27
12.59
12.41
11.58
10.11
8.23
6.28
4.56
3.17
1.99
0.72
-0.88
-2.9
-5.18
-7.44
-9.39
-10.89
-12.07
-13.18
-14.55
-16.39
-18.66
-21.07
-23.14
-24.33
-24.24
-22.65
-19.63
-15.45
-10.55
-5.42
-0.46
4.0
7.82
10.97
13.47
15.28
16.36
16.61
15.99
14.63
12.8
10.84
9.09
7.76
6.94
6.64
6.82
7.4
8.23
9.11
9.85
10.31
10.4
10.13
9.53
8.63
7.46
6.08
4.59
3.11
1.67
0.25
-1.25
-2.98
-5.01
-7.37
-9.99
-12.75
-15.53
-18.18
-20.56
-22.54
-24.04
-24.93
-25.08
-24.33
-22.54
-19.66
-15.85
-11.42
-6.74
-2.18
2.05
5.82
9.0
11.43
12.89
13.32
12.8
11.64
10.25
9.06
8.33
8.19
8.65
9.62
10.93
12.3
13.43
14.07
14.12
13.69
12.94
12.05
11.07
9.94
8.49
6.65
4.42
1.91
-0.69
-3.25
-5.71
-8.08
-10.38
-12.68
-15.0
-17.34
-19.66
-21.85
-23.72
-24.97
-25.2
-24.05
-21.32
-17.1
-11.82
-6.11
-0.62
4.17
8.01
10.87
12.77
13.68
13.56
12.44
10.52
8.25
6.13
4.59
3.82
3.75
4.12
4.68
5.26
5.82
6.42
7.03
7.6
7.96
7.96
7.47
6.48
5.04
3.27
1.37
-0.49
-2.22
-3.78
-5.22
-6.7
-8.38
-10.39
-12.82
-15.62
-18.62
-21.48
-23.74
-24.94
-24.74
-23.01
-19.89
-15.73
-11.01
-6.22
-1.76
2.09
5.19
7.53
9.14
10.14
10.59
10.55
10.09
9.32
8.43
7.62
7.09
6.95
7.23
7.86
8.73
9.75
10.78
11.68
12.32
12.59
12.42
11.82
10.82
9.49
7.96
6.32
4.64
2.94
1.16
-0.78
-2.94
-5.32
-7.83
-10.45
-13.16
-16.01
-18.99
-21.9
-24.43
-26.13
-26.6
-25.58
-23.1
-19.39
-14.83
-9.84
-4.84
-0.15
3.99
7.43
10.09
11.97
13.11
13.52
13.28
12.52
11.46
10.33
9.34
8.63
8.25
8.2
8.45
8.94
9.52
10.04
10.29
10.13
9.5
8.48
7.18
5.66
3.97
2.11
0.13
-1.88
-3.8
-5.57
-7.18
-8.7
-10.2
-11.71
-13.22
-14.77
-16.43
-18.28
-20.28
-22.19
-23.58
-23.93
-22.9
-20.4
-16.67
-12.19
-7.48
-2.93
1.22
4.88
8.03
10.62
12.52
13.61
13.85
13.38
12.49
11.52
10.8
10.48
10.53
10.85
11.33
11.9
12.54
13.22
13.81
14.13
14.02
13.41
12.31
10.81
9.02
7.01
4.83
2.55
0.28
-1.92
-4.01
-6.03
-8.0
-9.96
-11.93
-13.93
-16.03
-18.26
-20.63
-22.93
-24.78
-25.72
-25.35
-23.47
-20.13
-15.57
-10.2
-4.5
0.98
5.7
9.26
11.51
12.56
12.77
12.53
12.16
11.78
11.38
10.91
10.38
9.84
9.43
9.22
9.26
9.51
9.91
10.42
10.94
11.41
11.68
11.59
10.97
9.71
7.82
5.48
2.97
0.64
-1.23
-2.52
-3.32
-3.9
-4.63
-5.8
-7.54
-9.78
-12.34
-14.98
-17.47
-19.61
-21.18
-21.98
-21.73
-20.28
-17.63
-14.0
-9.76
-5.4
-1.32
2.19
5.02
7.12
8.52
9.22
9.23
8.65
7.64
6.49
5.51
4.98
5.07
5.75
6.91
8.27
9.56
10.51
10.94
10.81
10.17
9.15
7.89
6.55
5.23
4.0
2.89
1.88
0.93
-0.03
-1.08
-2.29
-3.65
-5.21
-6.97
-9.0
-11.32
-13.94
-16.76
-19.49
-21.71
-22.93
-22.68
-20.68
-16.97
-11.85
-5.95
-0.0
5.3
9.44
12.24
13.8
14.45
14.54
14.38
14.08
13.6
12.89
11.91
10.75
9.62
8.77
8.43
8.67
9.44
10.54
11.7
12.64
13.15
13.09
12.43
11.23
9.63
7.75
5.72
3.66
1.67
-0.17
-1.82
-3.28
-4.63
-5.96
-7.41
-9.1
-11.15
-13.6
-16.42
-19.47
-22.5
-25.13
-26.9
-27.36
-26.16
-23.22
-18.73
-13.2
-7.31
-1.74
3.01
6.68
9.27
10.95
11.97
12.46
12.55
12.26
11.64
10.81
9.93
9.19
8.74
8.66
8.92
9.46
10.18
10.95
11.65
12.16
12.38
12.23
11.7
10.8
9.6
8.2
6.7
5.18
3.75
2.47
1.35
0.37
-0.56
-1.59
-2.83
-4.37
-6.19
-8.23
-10.42
-12.7
-15.06
-17.46
-19.8
-21.79
-23.07
-23.22
-21.93
-19.17
-15.16
-10.38
-5.43
-0.84
3.06
6.13
8.44
10.14
11.35
12.13
12.49
12.41
11.98
11.35
10.7
10.21
10.02
10.18
10.65
11.34
12.09
12.77
13.2
13.31
13.04
12.39
11.39
10.13
8.67
7.11
5.49
3.81
2.05
0.2
-1.7
-3.56
-5.23
-6.61
-7.72
-8.72
-9.85
-11.38
-13.46
-16.07
-18.96
-21.71
-23.85
-24.95
-24.76
-23.25
-20.59
-17.08
-13.02
-8.72
-4.47
-0.52
2.84
5.44
7.25
8.38
8.98
9.21
9.07
8.53
7.61
6.49
5.57
5.2
5.57
6.53
7.73
8.79
9.52
9.94
10.2
10.41
10.52
10.41
9.92
9.05
7.87
6.49
4.98
3.33
1.54
-0.37
-2.26
-4.0
-5.48
-6.69
-7.73
-8.82
-10.18
-11.97
-14.26
-16.87
-19.4
-21.31
-22.01
-21.11
-18.55
-14.65
-9.94
-5.05
-0.5
3.38
6.46
8.73
10.19
10.86
10.78
10.08
8.98
7.78
6.77
6.19
6.11
6.46
7.1
7.87
8.65
9.36
9.97
10.41
10.56
10.3
9.6
8.52
7.19
5.77
4.36
2.97
1.55
-0.03
-1.83
-3.84
-5.97
-8.1
-10.09
-11.92
-13.59
-15.23
-16.94
-18.83
-20.93
-23.13
-25.16
-26.6
-27.02
-26.1
-23.71
-19.95
-15.15
-9.75
-4.23
0.97
5.49
9.03
11.41
12.6
12.69
11.93
10.7
9.38
8.33
7.78
7.78
8.28
9.09
10.04
11.01
11.91
12.74
13.48
14.05
14.35
14.25
13.66
12.57
11.09
9.34
7.45
5.51
3.56
1.61
-0.28
-2.01
-3.46
-4.55
-5.36
-6.06
-6.92
-8.15
-9.84
-11.94
-14.32
-16.83
-19.28
-21.53
-23.36
-24.53
-24.73
-23.75
-21.49
-18.09
-13.84
-9.15
-4.41
0.1
4.21
7.82
10.88
13.25
14.77
15.29
14.88
13.8
12.47
11.33
10.65
10.45
10.57
10.77
10.92
11.01
11.1
11.16
11.12
10.79
10.05
8.88
7.36
5.65
3.95
2.42
1.18
0.26
-0.4
-0.91
-1.38
-1.89
-2.46
-3.06
-3.69
-4.39
-5.27
-6.43
-7.95
-9.84
-12.08
-14.61
-17.27
-19.76
-21.6
-22.27
-21.42
-19.01
-15.37
-11.1
-6.78
-2.83
0.58
3.48
5.92
7.86
9.17
9.78
9.7
9.11
8.31
7.54
6.93
6.5
6.13
5.73
5.31
5.01
5.01
5.47
6.36
7.5
8.56
9.23
9.31
8.76
7.69
6.28
4.74
3.24
1.89
0.74
-0.19
-0.98
-1.71
-2.48
-3.4
-4.5
-5.83
-7.41
-9.26
-11.37
-13.7
-16.1
-18.34
-20.13
-21.11
-20.99
-19.59
-16.96
-13.35
-9.14
-4.78
-0.65
2.98
5.95
8.17
9.62
10.33
10.33
9.7
8.59
7.17
5.69
4.45
3.71
3.67
4.35
5.6
7.12
8.59
9.76
10.52
10.85
10.76
10.27
9.37
8.04
6.38
4.52
2.65
0.87
-0.76
-2.28
-3.78
-5.3
-6.87
-8.46
-10.04
-11.62
-13.31
-15.19
-17.28
-19.42
-21.25
-22.26
-22.03
-20.36
-17.32
-13.3
-8.8
-4.32
-0.21
3.32
6.24
8.54
10.22
11.28
11.75
11.69
11.22
10.49
9.65
8.84
8.09
7.45
6.95
6.64
6.64
6.99
7.68
8.58
9.46
10.1
10.33
10.1
9.42
8.38
7.01
5.34
3.42
1.35
-0.7
-2.57
-4.15
-5.47
-6.66
-7.9
-9.34
-11.0
-12.88
-14.91
-17.07
-19.28
-21.39
-23.08
-23.95
-23.56
-21.63
-18.24
-13.74
-8.67
-3.61
0.98
4.92
8.13
10.68
12.58
13.79
14.24
13.94
13.03
11.8
10.58
9.65
9.13
8.98
9.12
9.43
9.85
10.36
10.94
11.47
11.82
11.83
11.41
10.6
9.46
8.12
6.66
5.16
3.64
2.09
0.51
-1.08
-2.62
-4.04
-5.31
-6.45
-7.56
-8.8
-10.32
-12.2
-14.48
-17.05
-19.7
-22.13
-23.93
-24.73
-24.24
-22.35
-19.18
-15.08
-10.45
-5.68
-1.05
3.24
7.02
10.15
12.47
13.97
14.74
15.05
15.13
15.14
15.12
14.97
14.64
14.15
13.68
13.44
13.55
13.96
14.46
14.8
14.7
14.06
12.9
11.3
9.41
7.37
5.3
3.28
1.4
-0.31
-1.82
-3.19
-4.47
-5.73
-7.05
-8.48
-10.09
-11.91
-13.99
-16.27
-18.71
-21.2
-23.6
-25.67
-27.09
-27.55
-26.72
-24.45
-20.83
-16.23
-11.17
-6.23
-1.77
2.05
5.3
8.05
10.28
11.86
12.66
12.65
11.99
10.99
9.99
9.24
8.85
8.81
9.05
9.5
10.06
10.59
10.94
10.98
10.65
9.98
9.06
8.0
6.89
5.76
4.62
3.51
2.45
1.36
0.22
-1.08
-2.57
-4.25
-6.09
-8.1
-10.31
-12.82
-15.62
-18.59
-21.4
-23.64
-24.81
-24.56
-22.75
-19.51
-15.21
-10.35
-5.43
-0.87
3.08
6.33
8.86
10.71
11.92
12.53
12.64
12.34
11.75
11.0
10.26
9.75
9.67
10.1
10.92
11.82
12.41
12.41
11.77
10.68
9.42
8.24
7.2
6.18
4.98
3.44
1.5
-0.76
-3.16
-5.53
-7.73
-9.69
-11.48
-13.26
-15.21
-17.46
-19.95
-22.45
-24.61
-26.07
-26.54
-25.81
-23.76
-20.42
-15.89
-10.53
-4.8
0.77
5.75
9.88
13.09
15.43
16.95
17.66
17.55
16.68
15.23
13.44
11.64
10.09
9.03
8.56
8.78
9.66
11.03
12.61
14.01
14.83
14.84
14.0
12.53
10.77
9.05
7.55
6.18
4.74
2.98
0.83
-1.55
-3.89
-5.95
-7.68
-9.26
-11.01
-13.15
-15.74
-18.64
-21.61
-24.4
-26.82
-28.61
-29.44
-28.92
-26.77
-22.99
-17.95
-12.31
-6.78
-1.91
2.1
5.3
7.87
9.94
11.54
12.63
13.14
13.15
12.8
12.33
11.96
11.83
12.01
12.47
13.16
14.03
14.99
15.93
16.68
17.0
16.76
15.89
14.54
12.93
11.31
9.79
8.32
6.77
4.98
2.89
0.55
-1.94
-4.43
-6.79
-8.89
-10.68
-12.23
-13.74
-15.5
-17.8
-20.73
-24.1
-27.45
-30.1
-31.35
-30.72
-28.06
-23.63
-17.98
-11.82
-5.74
-0.19
4.61
8.59
11.68
13.83
15.03
15.33
14.94
14.2
13.39
12.77
12.47
12.5
12.83
13.4
14.15
15.01
15.87
16.59
17.05
17.12
16.7
15.77
14.38
12.67
10.81
9.0
7.36
5.93
4.61
3.27
1.79
0.11
-1.73
-3.56
-5.23
-6.66
-7.87
-9.09
-10.58
-12.59
-15.19
-18.28
-21.53
-24.44
-26.5
-27.19
-26.15
-23.22
-18.57
-12.74
-6.57
-0.98
3.31
6.04
7.44
8.05
8.44
8.91
9.44
9.77
9.63
8.93
7.87
6.81
6.15
6.16
6.84
8.03
9.38
10.54
11.3
11.61
11.62
11.52
11.44
11.38
11.23
10.81
10.02
8.87
7.4
5.67
3.74
1.65
-0.55
-2.79
-5.0
-7.16
-9.21
-11.14
-12.99
-14.84
-16.81
-18.99
-21.31
-23.45
-24.92
-25.2
-23.88
-20.91
-16.52
-11.19
-5.48
0.12
5.2
9.5
12.87
15.22
16.57
16.99
16.56
15.4
13.65
11.52
9.31
7.35
5.93
5.18
5.13
5.58
6.29
6.96
7.37
7.44
7.2
6.8
6.34
5.88
5.37
4.69
3.73
2.45
0.94
-0.64
-2.13
-3.48
-4.75
-6.05
-7.5
-9.21
-11.2
-13.46
-15.93
-18.52
-21.01
-23.1
-24.39
-24.46
-22.96
-19.8
-15.21
-9.7
-3.96
1.39
5.93
9.51
12.16
13.98
15.04
15.32
14.83
13.7
12.17
10.59
9.26
8.38
8.01
8.1
8.53
9.16
9.81
10.32
10.52
10.35
9.88
9.22
8.49
7.77
7.02
6.1
4.86
3.19
1.09
-1.29
-3.76
-6.07
-8.09
-9.81
-11.36
-12.97
-14.87
-17.26
-20.16
-23.42
-26.65
-29.3
-30.71
-30.36
-27.96
-23.64
-17.93
-11.58
-5.33
0.29
5.06
8.95
12.03
14.28
15.6
15.93
15.36
14.12
12.59
11.15
10.05
9.38
9.12
9.15
9.39
9.76
10.16
10.52
10.75
10.81
10.7
10.48
10.17
9.71
8.98
7.81
6.13
4.0
1.63
-0.73
-2.89
-4.81
-6.61
-8.44
-10.47
-12.81
-15.47
-18.44
-21.63
-24.82
-27.66
-29.69
-30.36
-29.31
-26.41
-21.85
-16.12
-9.85
-3.72
1.7
6.05
9.24
11.36
12.68
13.49
14.01
14.34
14.45
14.28
13.84
13.23
12.65
12.31
12.33
12.71
13.38
14.18
15.01
15.79
16.42
16.83
16.9
16.48
15.4
13.65
11.29
8.56
5.75
3.1
0.73
-1.38
-3.36
-5.34
-7.47
-9.83
-12.44
-15.36
-18.64
-22.24
-25.94
-29.29
-31.71
-32.6
-31.56
-28.57
-23.92
-18.18
-12.01
-5.97
-0.49
4.21
8.07
11.12
13.43
15.05
15.97
16.2
15.75
14.77
13.52
12.4
11.81
12.04
13.17
15.04
17.23
19.26
20.68
21.2
20.77
19.58
17.93
16.14
14.41
12.73
11.0
9.06
6.83
4.31
1.63
-1.07
-3.68
-6.13
-8.45
-10.72
-13.05
-15.59
-18.44
-21.63
-25.04
-28.33
-30.98
-32.39
-32.1
-29.91
-25.95
-20.66
-14.64
-8.51
-2.75
2.31
6.54
9.94
12.52
14.29
15.22
15.31
14.65
13.48
12.15
11.03
10.43
10.45
11.04
12.03
13.2
14.35
15.33
16.01
16.29
16.12
15.52
14.57
13.36
11.98
10.44
8.69
6.65
4.33
1.79
-0.86
-3.44
-5.84
-8.01
-9.99
-11.89
-13.92
-16.27
-19.02
-22.06
-24.95
-27.12
-27.87
-26.74
-23.64
-18.91
-13.2
-7.19
-1.47
3.64
7.96
11.44
13.96
15.4
15.72
15.03
13.59
11.83
10.18
8.99
8.46
8.61
9.37
10.61
12.13
13.75
15.23
16.4
17.11
17.25
16.8
15.73
14.14
12.11
9.78
7.21
4.49
1.67
-1.17
-3.94
-6.55
-8.96
-11.21
-13.45
-15.84
-18.45
-21.23
-23.89
-25.99
-27.0
-26.5
-24.27
-20.35
-15.08
-8.98
-2.67
3.31
8.56
12.85
16.1
18.29
19.39
19.45
18.54
16.85
14.69
12.45
10.53
9.27
8.8
9.05
9.79
10.68
11.42
11.85
11.92
11.61
10.95
9.93
8.54
6.84
4.93
2.92
0.94
-0.96
-2.79
-4.54
-6.24
-7.88
-9.46
-11.02
-12.7
-14.67
-17.09
-19.99
-23.23
-26.46
-29.14
-30.65
-30.49
-28.42
-24.54
-19.27
-13.26
-7.11
-1.34
3.77
8.09
11.6
14.31
16.23
17.39
17.83
17.63
16.91
15.83
14.62
13.54
12.84
12.65
12.92
13.44
13.94
14.18
14.06
13.62
12.98
12.28
11.58
10.9
10.17
9.33
8.23
6.78
4.93
2.69
0.17
-2.47
-5.06
-7.47
-9.65
-11.67
-13.68
-15.97
-18.76
-22.15
-25.97
-29.73
-32.69
-34.11
-33.46
-30.61
-25.84
-19.75
-13.0
-6.25
0.06
5.59
10.19
13.79
16.37
17.95
18.62
18.49
17.79
16.79
15.76
14.89
14.3
13.97
13.82
13.85
14.08
14.55
15.22
15.91
16.34
16.33
15.79
14.83
13.61
12.23
10.73
9.02
7.08
4.92
2.65
0.4
-1.76
-3.82
-5.84
-7.83
-9.8
-11.73
-13.69
-15.8
-18.23
-21.13
-24.43
-27.79
-30.63
-32.24
-32.05
-29.8
-25.6
-19.93
-13.44
-6.77
-0.51
4.94
9.31
12.5
14.58
15.75
16.24
16.23
15.81
15.04
14.02
13.01
12.3
12.14
12.6
13.55
14.76
16.0
17.1
17.95
18.43
18.36
17.55
15.98
13.84
11.46
9.25
7.43
6.04
4.9
3.75
2.36
0.59
-1.55
-3.96
-6.5
-9.04
-11.47
-13.77
-16.02
-18.39
-21.01
-23.92
-26.86
-29.36
-30.87
-30.87
-29.12
-25.71
-20.99
-15.48
-9.69
-4.05
1.17
5.75
9.51
12.3
13.99
14.59
14.3
13.49
12.55
11.85
11.56
11.69
12.13
12.75
13.51
14.35
15.21
15.95
16.36
16.24
15.53
14.3
12.76
11.17
9.71
8.42
7.22
5.92
4.34
2.38
0.09
-2.37
-4.8
-7.04
-9.06
-10.94
-12.87
-15.03
-17.57
-20.47
-23.52
-26.37
-28.51
-29.4
-28.64
-26.04
-21.71
-16.08
-9.76
-3.48
2.14
6.67
9.94
12.04
13.18
13.58
13.36
12.49
10.97
8.92
6.66
4.7
3.5
3.33
4.09
5.43
6.92
8.24
9.22
9.89
10.26
10.33
9.98
9.09
7.61
5.66
3.45
1.3
-0.55
-2.02
-3.22
-4.45
-5.96
-7.94
-10.34
-12.97
-15.62
-18.17
-20.61
-22.86
-24.73
-25.77
-25.43
-23.34
-19.46
-14.22
-8.28
-2.39
2.99
7.6
11.44
14.5
16.73
17.97
18.12
17.21
15.51
13.47
11.63
10.39
9.97
10.31
11.12
12.08
12.87
13.26
13.19
12.67
11.79
10.61
9.24
7.69
5.97
4.09
2.1
0.09
-1.83
-3.58
-5.17
-6.72
-8.36
-10.22
-12.34
-14.68
-17.26
-20.11
-23.35
-26.94
-30.62
-33.81
-35.75
-35.8
-33.63
-29.39
-23.64
-17.11
-10.5
-4.28
1.28
6.04
9.89
12.71
14.43
15.11
14.94
14.24
13.31
12.4
11.65
11.08
10.65
10.34
10.12
10.02
10.09
10.31
10.61
10.88
10.97
10.75
10.16
9.14
7.67
5.78
3.53
1.09
-1.35
-3.57
-5.41
-6.84
-7.94
-8.89
-9.9
-11.14
-12.79
-14.97
-17.72
-20.95
-24.41
-27.64
-30.06
-31.09
-30.33
-27.64
-23.22
-17.58
-11.34
-5.15
0.46
5.23
9.13
12.21
14.57
16.27
17.3
17.66
17.41
16.7
15.75
14.76
13.88
13.21
12.84
12.82
13.21
13.95
14.88
15.76
16.33
16.38
15.8
14.61
12.92
10.87
8.62
6.27
3.92
1.62
-0.62
-2.86
-5.14
-7.52
-10.02
-12.64
-15.38
-18.29
-21.43
-24.83
-28.36
-31.64
-34.11
-35.06
-33.92
-30.45
-24.86
-17.77
-10.07
-2.63
3.84
8.95
12.6
14.93
16.16
16.56
16.37
15.75
14.86
13.85
12.91
12.24
12.02
12.28
12.99
13.95
14.99
15.92
16.62
16.99
16.92
16.28
15.02
13.2
11.04
8.87
6.99
5.6
4.69
4.08
3.55
2.82
1.74
0.24
-1.69
-3.93
-6.38
-9.02
-11.89
-15.15
-18.87
-22.96
-27.05
-30.47
-32.52
-32.6
-30.49
-26.37
-20.81
-14.51
-8.14
-2.23
2.94
7.21
10.53
12.88
14.24
14.62
14.11
12.89
11.31
9.78
8.72
8.44
9.03
10.35
12.12
13.94
15.45
16.36
16.55
15.98
14.79
13.16
11.33
9.48
7.65
5.84
3.96
1.99
-0.01
-1.95
-3.75
-5.39
-6.93
-8.43
-9.96
-11.54
-13.24
-15.15
-17.38
-19.94
-22.67
-25.06
-26.48
-26.29
-24.16
-20.15
-14.78
-8.78
-2.87
2.42
6.86
10.4
13.08
14.92
15.9
15.99
15.29
13.98
12.41
10.94
9.88
9.39
9.48
10.02
10.84
11.78
12.69
13.42
13.84
13.84
13.36
12.42
11.08
9.46
7.64
5.69
3.62
1.42
-0.94
-3.43
-6.03
-8.7
-11.37
-13.93
-16.37
-18.72
-21.14
-23.76
-26.57
-29.32
-31.44
-32.25
-31.18
-27.97
-22.82
-16.31
-9.22
-2.28
3.95
9.15
13.19
16.05
17.77
18.48
18.33
17.53
16.31
14.86
13.4
12.11
11.17
10.73
10.91
11.67
12.85
14.21
15.45
16.35
16.79
16.71
16.12
15.04
13.45
11.38
8.93
6.25
3.56
1.04
-1.21
-3.14
-4.8
-6.27
-7.62
-8.95
-10.39
-12.06
-14.1
-16.61
-19.62
-23.04
-26.65
-30.04
-32.64
-33.87
-33.21
-30.47
-25.85
-19.89
-13.36
-7.01
-1.38
3.31
7.03
9.94
12.13
13.64
14.44
14.58
14.18
13.5
12.9
12.66
12.9
13.54
14.39
15.19
15.83
16.28
16.62
16.96
17.31
17.6
17.63
17.17
16.06
14.26
11.93
9.36
6.91
4.84
3.24
1.96
0.74
-0.73
-2.6
