0
25.08
23.82
22.05
19.63
16.42
12.41
7.68
2.41
-3.14
-8.67
-13.93
-18.75
-23.14
-27.32
-31.71
-36.78
-42.77
-49.51
-56.2
-61.56
-64.12
-62.65
-56.57
-46.14
-32.4
-16.88
-1.23
13.19
25.41
34.89
41.38
44.82
45.34
43.31
39.44
34.76
30.37
27.18
25.58
25.39
25.94
26.4
26.17
25.05
23.2
20.95
18.57
16.07
13.28
9.9
5.74
0.77
-4.82
-10.67
-16.34
-21.46
-25.85
-29.58
-33.01
-36.68
-41.08
-46.46
-52.55
-58.57
-63.35
-65.54
-64.0
-58.16
-48.14
-34.82
-19.58
-3.96
10.62
23.07
32.71
39.21
42.5
42.8
40.65
36.9
32.6
28.78
26.2
25.07
25.15
25.82
26.4
26.42
25.69
24.29
22.37
20.08
17.39
14.2
10.38
5.97
1.13
-3.77
-8.36
-12.36
-15.72
-18.63
-21.45
-24.66
-28.63
-33.57
-39.24
-44.99
-49.7
-52.13
-51.15
-46.18
-37.36
-25.55
-12.07
1.61
14.21
24.83
32.93
38.29
40.92
41.02
38.94
35.23
30.55
25.67
21.3
17.99
15.95
15.05
14.86
14.8
14.31
12.97
10.57
7.12
2.81
-2.06
-7.13
-12.06
-16.65
-20.9
-24.99
-29.28
-34.14
-39.89
-46.62
-54.09
-61.55
-67.84
-71.55
-71.32
-66.32
-56.58
-42.97
-27.0
-10.39
5.37
19.24
30.64
39.32
45.17
48.13
48.31
46.05
42.09
37.4
32.95
29.42
27.03
25.5
24.34
23.1
21.52
19.61
17.42
14.96
12.05
8.54
4.39
-0.22
-4.97
-9.63
-14.18
-18.85
-24.0
-29.88
-36.43
-43.21
-49.36
-53.79
-55.36
-53.18
-46.86
-36.67
-23.54
-8.84
5.95
19.54
30.98
39.69
45.32
47.81
47.37
44.57
40.27
35.45
31.01
27.46
24.98
23.44
22.55
22.06
21.77
21.48
20.96
19.95
18.18
15.53
12.06
7.99
3.62
-0.74
-4.97
-9.07
-13.21
-17.64
-22.6
-28.34
-34.9
-42.03
-49.06
-54.87
-58.09
-57.42
-52.16
-42.39
-29.15
-14.03
1.18
15.04
26.55
35.23
40.9
43.56
43.4
40.93
37.01
32.69
28.98
26.49
25.32
25.07
25.12
24.91
24.2
23.02
21.6
20.16
18.76
17.22
15.22
12.45
8.7
4.08
-1.09
-6.34
-11.3
-15.83
-20.07
-24.36
-29.08
-34.43
-40.32
-46.3
-51.49
-54.85
-55.3
-52.06
-44.93
-34.39
-21.54
-7.79
5.45
17.02
26.17
32.54
36.11
37.17
36.22
33.91
30.89
27.75
24.88
22.55
20.84
19.71
19.04
18.64
18.29
17.79
17.0
15.79
14.08
11.76
8.72
4.92
0.45
-4.44
-9.39
-14.03
-18.16
-21.87
-25.51
-29.62
-34.63
-40.62
-47.08
-52.93
-56.75
-57.2
-53.43
-45.4
-33.85
-20.08
-5.69
7.88
19.44
28.25
33.96
36.68
36.81
34.98
31.88
28.15
24.31
20.84
18.13
16.47
15.93
16.27
16.98
17.43
17.1
15.76
13.52
10.65
7.49
4.25
1.01
-2.3
-5.85
-9.88
-14.67
-20.44
-27.17
-34.46
-41.5
-47.16
-50.21
-49.66
-45.04
-36.56
-25.12
-12.08
1.06
12.98
22.7
29.64
33.55
34.44
32.63
28.71
23.55
18.14
13.32
9.63
7.12
5.52
4.32
3.07
1.46
-0.68
-3.34
-6.45
-9.85
-13.38
-16.93
-20.53
-24.4
-28.92
-34.47
-41.18
-48.75
-56.31
-62.52
-65.85
-65.09
-59.63
-49.77
-36.56
-21.48
-6.11
8.21
20.44
29.89
36.05
38.77
38.24
35.08
30.35
25.2
20.67
17.37
15.39
14.4
13.83
13.15
11.98
10.21
7.89
5.16
2.08
-1.38
-5.31
-9.78
-14.84
-20.55
-27.09
-34.55
-42.8
-51.15
-58.27
-62.35
-61.7
-55.42
-43.74
-28.1
-10.6
6.65
22.03
34.61
43.98
50.04
52.82
52.47
49.44
44.51
38.75
33.26
28.95
26.22
24.98
24.66
24.5
23.78
22.04
19.18
15.43
11.14
6.67
2.25
-2.09
-6.47
-11.15
-16.48
-22.81
-30.39
-39.14
-48.42
-56.9
-62.77
-64.23
-60.07
-50.14
-35.48
-17.94
0.32
17.37
31.84
42.94
50.26
53.69
53.39
49.9
44.21
37.66
31.62
27.14
24.64
23.87
24.11
24.49
24.33
23.31
21.45
18.93
15.95
12.58
8.81
4.6
-0.02
-4.96
-10.21
-15.84
-22.12
-29.3
-37.37
-45.73
-53.09
-57.69
-57.77
-52.24
-41.1
-25.57
-7.65
10.44
26.77
40.08
49.6
55.05
56.38
53.93
48.42
41.06
33.31
26.6
21.9
19.53
19.14
19.9
20.78
20.88
19.65
17.01
13.24
8.89
4.47
0.29
-3.57
-7.27
-11.11
-15.46
-20.77
-27.42
-35.55
-44.67
-53.51
-60.13
-62.43
-58.85
-49.0
-33.86
-15.43
3.91
21.97
37.17
48.62
55.92
59.04
58.3
54.3
48.0
40.56
33.22
27.02
22.62
20.12
19.13
18.92
18.66
17.66
15.59
12.52
8.7
4.51
0.2
-4.18
-8.71
-13.63
-19.2
-25.71
-33.42
-42.37
-52.2
-61.88
-69.71
-73.67
-71.95
-63.64
-49.13
-30.08
-8.96
11.69
29.83
44.23
54.36
60.21
61.93
59.91
54.81
47.68
39.91
32.91
27.75
24.85
23.89
24.09
24.48
24.29
23.07
20.73
17.4
13.3
8.68
3.74
-1.35
-6.49
-11.67
-16.98
-22.6
-28.84
-36.06
-44.46
-53.82
-63.17
-70.8
-74.58
-72.58
-63.83
-48.75
-29.05
-7.22
14.24
33.25
48.5
59.32
65.51
67.23
65.01
59.82
52.95
45.8
39.58
35.02
32.31
31.12
30.83
30.77
30.4
29.41
27.69
25.24
22.07
18.16
13.52
8.24
2.56
-3.23
-8.86
-14.21
-19.37
-24.66
-30.54
-37.48
-45.65
-54.68
-63.39
-69.94
-72.26
-68.71
-58.73
-43.11
-23.79
-3.21
16.33
33.12
46.16
54.9
59.18
59.19
55.59
49.58
42.69
36.38
31.65
28.76
27.33
26.65
26.05
25.16
23.92
22.46
20.92
19.25
17.28
14.72
11.32
7.04
2.01
-3.47
-9.03
-14.39
-19.41
-24.15
-28.84
-33.81
-39.43
-45.91
-53.1
-60.22
-65.88
-68.41
-66.29
-58.75
-46.15
-29.85
-11.83
5.89
21.68
34.45
43.6
48.83
50.17
48.01
43.15
36.74
30.07
24.28
20.09
17.72
16.93
17.16
17.73
18.02
17.61
16.31
14.14
11.25
7.81
3.97
-0.09
-4.18
-8.11
-11.8
-15.4
-19.26
-23.88
-29.58
-36.29
-43.28
-49.29
-52.75
-52.26
-47.06
-37.29
-24.02
-8.88
6.31
19.99
31.07
39.01
43.6
44.9
43.2
39.04
33.21
26.7
20.52
15.44
11.87
9.7
8.45
7.49
6.23
4.35
1.81
-1.18
-4.39
-7.64
-10.99
-14.67
-18.99
-24.27
-30.67
-38.14
-46.33
-54.55
-61.69
-66.41
-67.4
-63.79
-55.45
-43.15
-28.3
-12.62
2.35
15.51
26.2
34.02
38.78
40.41
39.11
35.43
30.29
24.83
20.03
16.47
14.24
12.96
12.06
11.02
9.49
7.4
4.88
2.09
-0.86
-3.96
-7.31
-11.06
-15.42
-20.6
-26.79
-33.95
-41.71
-49.16
-55.01
-57.78
-56.3
-50.11
-39.64
-26.11
-11.15
3.59
16.83
27.7
35.69
40.57
42.35
41.32
38.08
33.51
28.56
24.06
20.51
18.06
16.47
15.38
14.39
13.23
11.79
10.07
8.13
5.99
3.58
0.77
-2.57
-6.58
-11.35
-16.92
-23.29
-30.27
-37.35
-43.66
-48.02
-49.24
-46.55
-39.85
-29.81
-17.68
-4.86
7.39
18.11
26.66
32.59
35.65
35.83
33.46
29.24
24.17
19.24
15.26
12.62
11.28
10.88
10.9
10.84
10.35
9.23
7.46
5.11
2.34
-0.66
-3.7
-6.68
-9.68
-12.98
-16.96
-21.94
-27.89
-34.31
-40.24
-44.47
-45.97
-44.12
-38.98
-31.11
-21.42
-10.91
-0.52
8.96
16.85
22.63
25.97
26.78
25.32
22.15
18.06
13.92
10.44
8.05
6.84
6.58
6.92
7.46
7.92
8.12
7.94
7.31
6.15
4.37
1.93
-1.18
-4.99
-9.55
-14.81
-20.52
-26.07
-30.55
-32.95
-32.46
-28.77
-22.11
-13.14
-2.78
8.04
18.39
27.39
34.24
38.31
39.29
37.36
33.19
27.81
22.36
17.71
14.31
12.13
10.73
9.56
8.19
6.4
4.22
1.74
-0.94
-3.85
-7.08
-10.72
-14.79
-19.35
-24.41
-29.96
-35.77
-41.26
-45.5
-47.39
-45.98
-40.86
-32.28
-21.16
-8.74
3.71
15.16
24.86
32.34
37.26
39.43
38.85
35.87
31.22
25.88
20.91
17.11
14.83
13.9
13.71
13.54
12.79
11.15
8.65
5.58
2.28
-1.0
-4.17
-7.34
-10.76
-14.72
-19.5
-25.19
-31.6
-38.17
-44.0
-47.92
-48.85
-46.01
-39.22
-28.98
-16.38
-2.81
10.28
21.64
30.36
35.95
38.32
37.79
35.01
30.9
26.44
22.49
19.57
17.79
16.91
16.5
16.16
15.61
14.7
13.34
11.45
8.96
5.88
2.37
-1.31
-4.9
-8.27
-11.49
-14.77
-18.39
-22.59
-27.5
-33.02
-38.77
-44.06
-47.85
-49.05
-46.83
-40.94
-31.86
-20.66
-8.68
2.84
13.01
21.26
27.3
31.03
32.54
32.11
30.21
27.4
24.29
21.37
19.0
17.4
16.57
16.35
16.43
16.43
16.04
15.08
13.56
11.58
9.31
6.89
4.35
1.69
-1.22
-4.52
-8.34
-12.74
-17.63
-22.78
-27.83
-32.29
-35.54
-36.92
-35.82
-31.87
-25.12
-16.12
-5.83
4.63
14.27
22.33
28.4
32.24
33.84
33.31
31.04
27.65
23.96
20.71
18.42
17.19
16.74
16.61
16.32
15.53
14.15
12.24
9.88
7.1
3.9
0.25
-3.82
-8.17
-12.64
-17.15
-21.79
-26.75
-32.11
-37.65
-42.68
-46.14
-46.98
-44.52
-38.73
-30.23
-20.06
-9.4
0.76
9.65
16.8
21.87
24.7
25.31
23.93
21.04
17.28
13.33
9.77
7.0
5.13
4.03
3.36
2.73
1.81
0.42
-1.49
-3.86
-6.56
-9.49
-12.55
-15.71
-19.01
-22.59
-26.68
-31.52
-37.08
-43.02
-48.52
-52.48
-53.8
-51.65
-45.84
-36.83
-25.65
-13.55
-1.73
8.87
17.63
24.23
28.48
30.4
30.2
28.36
25.62
22.76
20.41
18.87
18.07
17.71
17.44
17.01
16.32
15.3
13.87
11.98
9.64
6.96
4.09
1.14
-1.89
-5.11
-8.67
-12.68
-17.23
-22.35
-27.99
-33.97
-39.76
-44.53
-47.22
-46.88
-42.96
-35.56
-25.39
-13.6
-1.39
10.14
20.21
28.27
34.04
37.45
38.6
37.83
35.61
32.53
29.16
26.0
23.41
21.57
20.48
19.98
19.85
19.8
19.57
18.92
17.72
15.89
13.48
10.55
7.2
3.5
-0.45
-4.55
-8.65
-12.68
-16.69
-20.91
-25.6
-30.88
-36.51
-41.76
-45.56
-46.8
-44.73
-39.19
-30.65
-20.08
-8.61
2.66
12.81
21.16
27.21
30.69
31.62
30.3
27.34
23.59
19.93
17.09
15.42
14.85
15.05
15.51
15.85
15.85
15.4
14.44
12.92
10.78
8.09
5.09
2.07
-0.71
-3.2
-5.59
-8.27
-11.62
-15.83
-20.84
-26.2
-31.23
-35.03
-36.72
-35.63
-31.48
-24.53
-15.46
-5.23
5.08
14.56
22.44
28.24
31.69
32.8
31.8
29.16
25.53
21.6
17.97
15.06
13.04
11.79
11.01
10.34
9.49
8.29
6.69
4.73
2.45
-0.15
-3.05
-6.25
-9.78
-13.75
-18.27
-23.41
-29.02
-34.53
-39.06
-41.58
-41.3
-37.88
-31.54
-22.97
-13.05
-2.7
7.24
16.05
23.13
28.06
30.6
30.78
28.92
25.57
21.44
17.27
13.66
10.92
9.04
7.74
6.66
5.51
4.18
2.69
1.1
-0.65
-2.7
-5.2
-8.23
-11.82
-16.0
-20.79
-26.21
-32.0
-37.51
-41.73
-43.58
-42.23
-37.45
-29.67
-19.79
-8.93
1.91
11.93
20.6
27.53
32.44
35.14
35.61
34.07
30.96
26.97
22.84
19.22
16.47
14.61
13.36
12.35
11.26
9.96
8.46
6.83
5.1
3.2
1.02
-1.58
-4.67
-8.29
-12.46
-17.19
-22.44
-28.03
-33.51
-38.16
-41.0
-41.08
-37.8
-31.15
-21.76
-10.77
0.51
11.02
19.98
27.01
31.87
34.47
34.86
33.31
30.37
26.75
23.14
20.03
17.6
15.85
14.68
13.95
13.48
13.07
12.42
11.26
9.46
7.02
4.1
0.93
-2.25
-5.3
-8.18
-11.03
-14.17
-18.01
-22.87
-28.66
-34.79
-40.17
-43.51
-43.79
-40.52
-33.93
-24.83
-14.35
-3.63
6.31
14.69
21.04
25.14
27.05
27.08
25.65
23.24
20.33
17.34
14.69
12.68
11.48
11.05
11.13
11.31
11.2
10.55
9.34
7.76
6.06
4.39
2.78
1.06
-1.03
-3.76
-7.28
-11.57
-16.41
-21.37
-25.8
-28.95
-30.04
-28.5
-24.14
-17.25
-8.57
0.87
10.02
18.02
24.24
28.35
30.26
30.06
28.11
24.95
21.25
17.64
14.53
12.06
10.11
8.45
6.88
5.26
3.52
1.63
-0.43
-2.65
-4.99
-7.42
-9.98
-12.85
-16.31
-20.58
-25.67
-31.21
-36.44
-40.33
-41.88
-40.4
-35.74
-28.31
-18.95
-8.67
1.61
11.17
19.46
26.04
30.48
32.52
32.15
29.8
26.27
22.48
19.21
16.81
15.24
14.17
13.23
12.15
10.8
9.12
7.12
4.84
2.33
-0.31
-3.01
-5.78
-8.79
-12.31
-16.63
-21.89
-27.86
-33.87
-38.85
-41.64
-41.28
-37.41
-30.37
-21.09
-10.75
-0.52
8.75
16.51
22.41
26.28
28.08
28.04
26.55
24.21
21.59
19.14
17.1
15.5
14.26
13.24
12.32
11.41
10.5
9.6
8.69
7.66
6.26
4.18
1.22
-2.59
-7.03
-11.8
-16.71
-21.74
-26.82
-31.68
-35.64
-37.82
-37.34
-33.82
-27.49
-19.1
-9.67
-0.1
8.92
16.85
23.28
27.77
30.05
30.11
28.31
25.3
21.8
18.43
15.61
13.5
12.1
11.29
10.88
10.61
10.18
9.33
7.95
6.1
3.96
1.75
-0.45
-2.72
-5.27
-8.31
-11.94
-16.1
-20.62
-25.31
-29.91
-34.06
-37.23
-38.73
-37.91
-34.35
-28.14
-19.84
-10.36
-0.68
8.37
16.16
22.27
26.33
28.16
27.81
25.67
22.44
18.93
15.85
13.6
12.29
11.69
11.48
11.29
10.84
9.98
8.71
7.17
5.56
4.02
2.49
0.81
-1.26
-3.88
-7.07
-10.75
-14.73
-18.8
-22.61
-25.7
-27.5
-27.46
-25.25
-20.82
-14.5
-6.85
1.41
9.56
16.9
22.79
26.74
28.55
28.33
26.5
23.66
20.38
17.12
14.18
11.7
9.74
8.24
7.05
5.93
4.64
2.97
0.87
-1.59
-4.24
-6.93
-9.64
-12.53
-15.85
-19.82
-24.46
-29.45
-34.1
-37.54
-38.87
-37.54
-33.4
-26.72
-18.17
-8.55
1.28
10.43
18.1
23.6
26.54
26.93
25.23
22.2
18.73
15.55
13.07
11.34
10.15
9.15
8.04
6.67
5.03
3.25
1.43
-0.45
-2.5
-4.93
-7.93
-11.6
-15.9
-20.75
-26.0
-31.42
-36.6
-40.89
-43.48
-43.56
-40.65
-34.75
-26.43
-16.66
-6.48
3.22
11.79
18.81
23.99
27.15
28.23
27.42
25.19
22.24
19.32
17.03
15.58
14.84
14.39
13.8
12.79
11.33
9.59
7.78
6.0
4.23
2.28
-0.03
-2.85
-6.3
-10.46
-15.38
-20.98
-26.93
-32.57
-37.02
-39.3
-38.66
-34.8
-27.94
-18.8
-8.4
2.19
11.94
20.07
26.09
29.78
31.26
30.85
29.04
26.38
23.43
20.63
18.3
16.58
15.48
14.84
14.43
13.99
13.28
12.14
10.49
8.34
5.81
3.03
0.14
-2.81
-5.82
-8.96
-12.41
-16.31
-20.81
-25.87
-31.16
-36.06
-39.68
-41.14
-39.79
-35.47
-28.55
-19.81
-10.23
-0.74
7.91
15.11
20.43
23.56
24.44
23.33
20.77
17.55
14.44
12.01
10.51
9.92
9.97
10.34
10.71
10.79
10.39
9.44
7.98
6.16
4.19
2.19
0.16
-2.04
-4.6
-7.69
-11.31
-15.3
-19.39
-23.19
-26.26
-28.1
-28.24
-26.29
-22.07
-15.72
-7.73
1.11
9.92
17.81
24.06
28.2
30.03
29.64
27.39
23.93
20.05
16.48
13.74
11.97
10.96
10.28
9.49
8.34
6.78
4.92
2.92
0.84
-1.35
-3.73
-6.41
-9.5
-13.09
-17.25
-21.99
-27.12
-32.16
-36.34
-38.72
-38.46
-35.1
-28.71
-19.9
-9.64
1.02
11.07
19.69
26.27
30.4
31.96
31.1
28.36
24.53
20.45
16.82
14.0
11.96
10.39
8.89
7.17
5.17
3.0
0.84
-1.2
-3.21
-5.42
-8.09
-11.38
-15.33
-19.9
-25.09
-30.87
-37.08
-43.23
-48.47
-51.72
-51.99
-48.75
-42.09
-32.69
-21.56
-9.75
1.82
12.35
21.17
27.71
31.57
32.67
31.32
28.3
24.55
21.05
18.49
17.13
16.75
16.84
16.79
16.13
14.69
12.49
9.75
6.68
3.46
0.27
-2.77
-5.58
-8.28
-11.21
-14.89
-19.74
-25.84
-32.68
-39.21
-44.07
-46.03
-44.33
-38.9
-30.32
-19.65
-8.13
3.11
13.16
21.4
27.5
31.36
33.07
32.85
31.15
28.49
25.47
22.62
20.27
18.56
17.44
16.76
16.33
15.9
15.2
14.0
12.17
9.8
7.09
4.3
1.59
-1.11
-4.03
-7.48
-11.71
-16.81
-22.73
-29.15
-35.52
-40.98
-44.53
-45.2
-42.43
-36.25
-27.33
-16.77
-5.75
4.69
13.82
21.16
26.43
29.45
30.24
29.0
26.24
22.65
19.0
15.94
13.81
12.64
12.16
11.98
11.72
11.22
10.44
9.44
8.22
6.7
4.76
2.35
-0.48
-3.66
-7.18
-11.17
-15.76
-20.86
-26.0
-30.32
-32.78
-32.53
-29.14
-22.77
-14.04
-3.83
6.89
17.16
26.08
32.86
36.91
38.04
36.45
32.76
27.84
22.65
17.95
14.24
11.64
9.93
8.72
7.54
6.09
4.25
2.06
-0.34
-2.91
-5.7
-8.93
-12.85
-17.72
-23.61
-30.33
-37.33
-43.67
-48.18
-49.71
-47.46
-41.22
-31.45
-19.12
-5.53
8.06
20.49
30.83
38.35
42.53
43.2
40.67
35.79
29.84
24.17
19.82
17.2
16.05
15.62
15.16
14.17
12.55
10.47
8.14
5.66
2.93
-0.2
-3.84
-8.06
-12.93
-18.61
-25.17
-32.38
-39.51
-45.36
-48.47
-47.69
-42.47
-33.14
-20.73
-6.63
7.71
21.08
32.55
41.45
47.36
50.09
49.78
46.89
42.23
36.78
31.54
27.27
24.31
22.6
21.76
21.25
20.6
19.54
17.93
15.77
13.08
9.88
6.16
1.93
-2.75
-7.85
-13.37
-19.33
-25.76
-32.51
-39.15
-44.89
-48.64
-49.24
-45.83
-38.16
-26.76
-12.84
2.02
16.28
28.7
38.45
45.11
48.52
48.79
46.36
41.98
36.68
31.49
27.19
24.13
22.21
21.07
20.31
19.64
18.89
17.92
16.55
14.58
11.94
8.68
5.03
1.24
-2.53
-6.3
-10.24
-14.54
-19.39
-24.87
-30.94
-37.37
-43.56
-48.58
-51.21
-50.32
-45.28
-36.25
-24.2
-10.63
2.87
14.98
24.83
31.94
36.15
37.51
36.35
33.23
28.94
24.36
20.28
17.19
15.3
14.5
14.49
14.86
15.2
15.17
14.59
13.48
11.93
10.1
8.03
5.7
3.02
-0.04
-3.52
-7.4
-11.71
-16.48
-21.71
-27.16
-32.24
-36.06
-37.62
-36.11
-31.21
-23.21
-12.94
-1.54
9.8
20.02
28.28
34.04
37.0
37.24
35.13
31.35
26.76
22.18
18.24
15.27
13.32
12.18
11.5
10.89
10.04
8.74
6.97
4.76
2.24
-0.54
-3.65
-7.29
-11.71
-17.09
-23.43
-30.41
-37.4
-43.52
-47.76
-49.22
-47.26
-41.75
-33.11
-22.21
-10.22
1.69
12.47
21.29
27.59
31.0
31.52
29.49
25.65
21.0
16.54
12.93
10.43
8.84
7.72
6.66
5.38
3.83
2.04
0.05
-2.12
-4.5
-7.13
-10.07
-13.42
-17.35
-21.99
-27.37
-33.23
-38.89
-43.31
-45.29
-43.88
-38.66
-30.01
-18.92
-6.75
5.19
15.87
24.61
30.96
34.68
35.73
34.35
31.1
26.84
22.51
18.88
16.32
14.76
13.79
12.9
11.69
10.03
8.0
5.8
3.59
1.39
-0.93
-3.6
-6.82
-10.74
-15.41
-20.76
-26.64
-32.65
-38.14
-42.19
-43.78
-42.12
-36.89
-28.46
-17.8
-6.19
5.15
15.24
23.47
29.48
33.16
34.49
33.7
31.26
27.85
24.24
21.06
18.66
17.05
15.98
15.05
13.9
12.31
10.21
7.71
4.99
2.22
-0.5
-3.21
-6.05
-9.18
-12.75
-16.87
-21.6
-26.98
-32.89
-38.92
-44.32
-48.05
-49.04
-46.53
-40.42
-31.29
-20.32
-8.89
1.8
10.9
17.99
22.92
25.72
26.48
25.45
23.02
19.81
16.5
13.67
11.66
10.5
10.01
9.87
9.82
9.7
9.4
8.85
7.96
6.61
4.73
2.25
-0.76
-4.21
-7.96
-11.92
-16.08
-20.46
-25.02
-29.57
-33.62
-36.47
-37.37
-35.74
-31.42
-24.66
-16.14
-6.71
2.74
11.42
18.64
23.87
26.76
27.2
25.4
21.88
17.43
12.91
9.07
6.4
5.05
4.83
5.31
6.01
6.5
6.47
5.79
4.45
2.5
0.09
-2.63
-5.53
-8.59
-11.91
-15.67
-20.01
-24.83
-29.64
-33.68
-36.05
-35.97
-33.02
-27.28
-19.31
-9.97
-0.26
8.85
16.56
22.28
25.69
26.7
25.48
22.45
18.25
13.64
9.33
5.87
3.47
1.98
1.03
0.18
-0.92
-2.38
-4.23
-6.37
-8.76
-11.39
-14.33
-17.73
-21.73
-26.44
-31.76
-37.34
-42.43
-46.11
-47.48
-45.9
-41.22
-33.78
-24.32
-13.72
-2.92
7.26
16.13
23.12
27.81
29.98
29.65
27.12
23.05
18.29
13.79
10.29
8.19
7.37
7.37
7.51
7.2
6.1
4.14
1.47
-1.64
-4.95
-8.34
-11.88
-15.81
-20.51
-26.21
-32.82
-39.73
-45.88
-49.98
-50.88
-47.89
-41.02
-30.88
-18.55
-5.32
7.57
19.1
28.51
35.36
39.46
40.84
39.71
36.57
32.15
27.38
23.15
20.08
18.37
17.76
17.71
17.61
17.02
15.75
13.81
11.26
8.2
4.7
0.75
-3.58
-8.28
-13.29
-18.68
-24.54
-30.95
-37.84
-44.75
-50.8
-54.71
-55.15
-51.24
-42.84
-30.73
-16.37
-1.44
12.51
24.36
33.39
39.23
41.8
41.37
38.57
34.35
29.76
25.71
22.75
21.0
20.33
20.38
20.77
21.09
21.03
20.37
19.01
17.03
14.55
11.69
8.49
4.94
1.06
-3.11
-7.52
-12.17
-17.2
-22.8
-29.1
-35.91
-42.58
-48.05
-51.05
-50.44
-45.58
-36.57
-24.25
-10.04
4.51
17.96
29.23
37.67
43.0
45.2
44.61
41.8
37.65
33.12
29.03
25.91
23.89
22.85
22.46
22.44
22.49
22.38
21.89
20.82
19.04
16.53
13.35
9.64
5.58
1.35
-2.92
-7.18
-11.58
-16.42
-21.97
-28.25
-34.77
-40.45
-43.9
-43.84
-39.51
-30.97
-19.11
-5.3
8.94
22.2
33.4
41.81
46.99
48.86
47.59
43.72
38.06
31.63
25.51
20.6
17.4
15.9
15.62
15.81
15.71
14.82
12.91
10.05
6.44
2.32
-2.07
-6.51
-10.83
-14.99
-19.18
-23.75
-29.16
-35.62
-42.97
-50.38
-56.53
-59.84
-58.92
-53.03
-42.4
-28.15
-12.05
4.03
18.49
30.3
38.94
44.27
46.38
45.54
42.26
37.35
31.81
26.65
22.66
20.2
19.13
18.98
19.08
18.8
17.72
15.71
12.91
9.57
5.97
2.22
-1.67
-5.76
-10.13
-14.87
-20.1
-26.06
-32.95
-40.71
-48.74
-55.84
-60.38
-60.79
-56.14
-46.45
-32.73
-16.64
-0.06
15.34
28.38
38.35
44.99
48.42
48.99
47.27
43.91
39.64
35.14
31.01
27.71
25.43
24.13
23.54
23.26
22.94
22.3
21.18
19.49
17.14
14.1
10.38
6.03
1.17
-4.06
-9.52
-15.16
-21.01
-27.19
-33.79
-40.77
-47.67
-53.58
-57.19
-57.24
-52.91
-44.2
-31.93
-17.51
-2.48
11.84
24.42
34.5
41.52
45.16
45.45
42.89
38.37
32.98
27.75
23.37
20.23
18.34
17.56
17.58
18.04
18.54
18.67
18.06
16.47
13.83
10.32
6.21
1.89
-2.32
-6.27
-9.94
-13.45
-17.03
-20.94
-25.45
-30.8
-36.94
-43.46
-49.39
-53.44
-54.24
-50.93
-43.38
-32.35
-19.17
-5.35
7.76
19.13
28.09
34.22
37.36
37.6
35.4
31.48
26.81
22.31
18.69
16.3
15.06
14.65
14.65
14.69
14.54
14.12
13.4
12.35
10.9
9.01
6.7
4.04
1.11
-2.11
-5.73
-9.93
-14.85
-20.37
-26.14
-31.5
-35.57
-37.49
-36.57
-32.49
-25.45
-16.14
-5.61
5.02
14.74
22.85
28.9
32.65
33.98
32.97
29.95
25.53
20.49
15.59
11.35
7.94
5.29
3.21
1.52
0.15
-0.97
-1.99
-3.08
-4.47
-6.39
-8.97
-12.26
-16.24
-20.84
-25.99
-31.57
-37.31
-42.78
-47.27
-49.9
-49.76
-46.29
-39.41
-29.7
-18.23
-6.19
5.33
15.59
24.13
30.59
34.68
36.13
34.94
31.47
26.48
20.95
15.84
11.82
9.13
7.59
6.75
6.07
5.14
3.74
1.86
-0.38
-2.83
-5.47
-8.39
-11.76
-15.72
-20.36
-25.65
-31.48
-37.56
-43.36
-48.07
-50.67
-50.22
-46.15
-38.53
-28.09
-16.02
-3.58
8.17
18.43
26.67
32.47
35.58
35.98
34.03
30.39
26.0
21.72
18.22
15.81
14.5
14.05
14.07
14.12
13.76
12.66
10.71
7.99
4.72
1.15
-2.55
-6.33
-10.27
-14.56
-19.36
-24.76
-30.56
-36.22
-40.87
-43.48
-43.1
-39.25
-32.01
-22.08
-10.53
1.47
12.85
22.8
30.77
36.46
39.79
40.86
39.97
37.56
34.21
30.46
26.8
23.51
20.66
18.16
15.88
13.67
11.46
9.15
6.68
3.96
0.97
-2.24
-5.52
-8.73
-11.83
-14.9
-18.17
-21.89
-26.23
-31.27
-36.82
-42.44
-47.4
-50.66
-51.2
-48.25
-41.68
-32.08
-20.6
-8.59
2.76
12.62
20.51
26.11
29.27
29.96
28.44
25.36
21.59
18.04
15.33
13.68
12.91
12.67
12.66
12.67
12.6
12.41
11.99
11.16
9.77
7.7
5.02
1.86
-1.57
-5.1
-8.69
-12.41
-16.4
-20.75
-25.36
-29.84
-33.54
-35.69
-35.61
-32.97
-27.86
-20.76
-12.34
-3.35
5.6
13.9
20.96
26.18
29.04
29.31
27.17
23.32
18.75
14.48
11.33
9.64
9.32
9.96
10.99
11.9
12.3
12.0
10.99
9.43
7.55
5.65
3.95
2.44
0.87
-1.3
-4.78
-10.1
-17.35
-25.94
-34.61
-41.77
-45.94
-46.19
-42.41
-35.25
-25.8
-15.31
-4.9
4.5
12.15
17.5
20.18
20.09
17.55
13.26
8.21
3.35
-0.6
-3.38
-5.18
-6.45
-7.66
-9.13
-10.92
-12.88
-14.87
-16.81
-18.75
-20.85
-23.34
-26.41
-30.25
-34.95
-40.37
-46.03
-51.03
-54.2
-54.43
-50.99
-43.84
-33.65
-21.59
-8.95
3.15
13.92
22.87
29.66
34.07
35.98
35.47
33.0
29.3
25.28
21.74
19.17
17.59
16.66
15.83
14.62
12.74
10.15
6.96
3.38
-0.43
-4.31
-8.17
-11.98
-15.79
-19.82
-24.4
-29.81
-36.1
-42.78
-48.88
-53.04
-53.97
-50.84
-43.57
-32.83
-19.83
-5.95
7.61
19.89
30.23
38.12
43.24
45.47
45.07
42.67
39.17
35.51
32.37
30.07
28.56
27.58
26.84
26.11
25.22
24.03
22.36
20.04
16.99
13.28
9.1
4.67
0.26
-3.95
-7.9
-11.72
-15.68
-20.17
-25.56
-31.92
-38.85
-45.43
-50.35
-52.27
-50.25
-44.04
-34.13
-21.62
-7.89
5.68
17.97
28.18
35.8
40.6
42.61
42.11
39.64
35.93
31.78
27.92
24.84
22.78
21.74
21.49
21.74
22.13
22.27
21.84
20.62
18.55
15.73
12.4
8.77
4.98
1.08
-2.93
-7.04
-11.31
-15.86
-20.9
-26.53
-32.58
-38.43
-42.99
-45.06
-43.6
-38.17
-29.06
-17.22
-3.95
9.32
21.31
31.02
37.82
41.48
42.18
40.46
37.05
32.76
28.32
24.27
21.0
18.7
17.36
16.79
16.7
16.66
16.28
15.18
13.12
10.05
6.11
1.63
-2.99
-7.42
-11.58
-15.61
-19.9
-24.83
-30.64
-37.16
-43.77
-49.41
-52.78
-52.69
-48.36
-39.73
-27.52
-13.08
1.95
16.01
27.88
36.83
42.53
45.02
44.63
41.97
37.83
33.12
28.62
24.89
22.19
20.5
19.62
19.27
19.09
18.73
17.87
16.34
14.11
11.29
8.06
4.55
0.81
-3.19
-7.52
-12.26
-17.5
-23.29
-29.6
-36.16
-42.38
-47.34
-50.02
-49.51
-45.32
-37.54
-26.79
-14.09
-0.66
12.22
23.43
32.12
37.79
40.38
40.25
38.04
34.53
30.51
26.68
23.55
21.38
20.17
19.65
19.47
19.23
18.66
17.65
16.18
14.28
12.02
9.41
6.47
3.22
-0.34
-4.23
-8.43
-12.92
-17.7
-22.79
-28.16
-33.71
-39.08
-43.6
-46.34
-46.33
-42.93
-36.08
-26.34
-14.76
-2.59
9.03
19.23
27.38
33.1
36.16
36.57
34.6
30.83
26.06
21.18
17.03
14.13
12.64
12.34
12.74
13.27
13.5
13.14
12.16
10.61
8.59
6.19
3.45
0.45
-2.74
-6.06
-9.53
-13.27
-17.38
-21.89
-26.55
-30.82
-33.93
-35.06
-33.6
-29.31
-22.42
-13.58
-3.7
6.22
15.27
22.66
27.88
30.61
30.82
28.78
25.05
20.47
15.92
12.12
9.43
7.79
6.8
5.94
4.82
3.28
1.36
-0.79
-3.05
-5.38
-7.82
-10.46
-13.49
-17.18
-21.77
-27.3
-33.46
-39.48
-44.23
-46.55
-45.6
-41.16
-33.63
-23.88
-12.93
-1.8
8.7
17.88
25.15
30.06
32.39
32.22
30.0
26.47
22.42
18.54
15.27
12.72
10.8
9.28
7.95
6.66
5.28
3.75
2.04
0.14
-1.96
-4.29
-6.99
-10.26
-14.35
-19.38
-25.23
-31.43
-37.15
-41.37
-43.14
-41.8
-37.18
-29.64
-19.93
-8.99
2.22
12.81
22.03
29.25
34.03
36.12
35.59
32.84
28.62
23.86
19.45
16.06
13.88
12.71
12.08
11.46
10.47
9.01
7.19
5.18
3.12
1.02
-1.26
-3.9
-7.12
-11.09
-15.87
-21.4
-27.31
-33.0
-37.67
-40.47
-40.76
-38.2
-32.91
-25.35
-16.31
-6.71
2.59
10.87
17.65
22.68
25.84
27.15
26.7
24.75
21.69
18.12
14.64
11.79
9.87
8.87
8.56
8.58
8.56
8.25
7.52
6.35
4.8
2.96
0.86
-1.53
-4.3
-7.54
-11.33
-15.68
-20.53
-25.7
-30.82
-35.29
-38.29
-38.97
-36.74
-31.54
-23.9
-14.7
-5.01
4.29
12.53
19.22
23.94
26.38
26.48
24.57
21.36
17.75
14.52
12.12
10.62
9.86
9.62
9.72
9.98
10.23
10.19
9.62
8.34
6.36
3.77
0.77
-2.54
-6.1
-9.9
-13.98
-18.26
-22.54
-26.4
-29.25
-30.46
-29.55
-26.3
-20.89
-13.8
-5.65
2.89
11.17
18.49
24.19
27.66
28.58
26.99
23.41
18.7
13.79
9.44
6.07
3.71
2.11
0.87
-0.38
-1.89
-3.73
-5.83
-8.06
-10.34
-12.64
-15.14
-18.04
-21.6
-25.96
-31.02
-36.38
-41.29
-44.78
-45.92
-44.1
-39.22
-31.67
-22.21
-11.76
-1.19
8.71
17.19
23.58
27.37
28.39
26.92
23.68
19.56
15.43
11.89
9.25
7.54
6.62
6.19
5.91
5.42
4.46
2.94
0.93
-1.43
-4.03
-6.92
-10.27
-14.31
-19.18
-24.87
-31.04
-37.14
-42.3
-45.56
-46.01
-43.04
-36.62
-27.32
-16.19
-4.39
6.99
17.18
25.63
31.97
35.92
37.33
36.36
33.46
29.45
25.23
21.66
19.24
18.06
17.84
18.03
18.08
17.55
16.24
14.13
11.41
8.27
4.88
1.34
-2.3
-6.06
-10.0
-14.27
-19.08
-24.56
-30.56
-36.48
-41.33
-43.91
-43.2
-38.78
-30.88
-20.36
-8.45
3.6
14.67
23.95
30.86
35.13
36.76
36.07
33.61
30.16
26.51
23.34
21.08
19.83
19.4
19.43
19.46
19.1
18.13
16.49
14.28
11.67
8.8
5.75
2.52
-0.89
-4.5
-8.23
-12.03
-15.94
-20.16
-24.98
-30.55
-36.61
-42.36
-46.55
-47.94
-45.7
-39.77
-30.85
-20.07
-8.62
2.54
12.77
21.53
28.32
32.67
34.31
33.39
30.51
26.58
22.58
19.26
16.99
15.77
15.4
15.53
15.81
15.97
15.76
15.06
13.81
12.08
9.95
7.51
4.83
1.95
-1.15
-4.55
-8.38
-12.76
-17.71
-22.98
-28.03
-32.02
-34.03
-33.36
-29.7
-23.23
-14.52
-4.37
6.31
16.58
25.53
32.29
36.26
37.15
35.23
31.2
26.05
20.83
16.36
13.06
10.97
9.77
8.99
8.13
6.81
4.88
2.35
-0.63
-3.86
-7.15
-10.43
-13.74
-17.26
-21.24
-25.87
-31.15
-36.71
-41.86
-45.7
-47.27
-45.82
-41.04
-33.06
-22.51
-10.35
2.29
14.28
24.61
32.53
37.57
39.63
38.96
36.14
32.01
27.52
