0
-0.72
-0.35
0.01
0.34
0.71
1.15
1.66
2.21
2.69
3.04
3.22
3.26
3.22
3.18
3.15
3.06
2.82
2.36
1.72
0.99
0.35
-0.1
-0.28
-0.28
-0.22
-0.19
-0.25
-0.34
-0.42
-0.43
-0.39
-0.34
-0.27
-0.12
0.18
0.65
1.19
1.58
1.63
1.24
0.49
-0.46
-1.41
-2.3
-3.11
-3.83
-4.41
-4.73
-4.67
-4.19
-3.39
-2.45
-1.58
-0.95
-0.62
-0.57
-0.72
-0.95
-1.13
-1.19
-1.1
-0.89
-0.66
-0.45
-0.23
-0.0
0.26
0.53
0.76
0.95
1.16
1.46
1.86
2.26
2.5
2.43
2.0
1.32
0.59
0.01
-0.27
-0.22
0.16
0.77
1.51
2.22
2.78
3.09
3.17
3.07
2.91
2.76
2.68
2.66
2.69
2.74
2.71
2.5
1.95
1.01
-0.26
-1.66
-2.89
-3.7
-3.96
-3.79
-3.43
-3.18
-3.22
-3.54
-3.97
-4.32
-4.48
-4.44
-4.31
-4.19
-4.05
-3.79
-3.25
-2.38
-1.22
0.05
1.28
2.34
3.22
3.94
4.45
4.72
4.73
4.51
4.22
3.98
3.9
3.93
3.94
3.81
3.48
3.04
2.61
2.28
2.08
1.93
1.72
1.37
0.82
0.16
-0.5
-0.98
-1.16
-1.05
-0.79
-0.61
-0.71
-1.15
-1.81
-2.49
-3.02
-3.33
-3.51
-3.69
-3.95
-4.22
-4.37
-4.24
-3.78
-3.04
-2.18
-1.35
-0.72
-0.34
-0.18
-0.18
-0.23
-0.23
-0.16
0.0
0.23
0.54
0.95
1.48
2.11
2.72
3.18
3.4
3.36
3.15
2.88
2.64
2.45
2.3
2.18
2.08
1.97
1.79
1.5
1.1
0.66
0.3
0.05
-0.09
-0.21
-0.37
-0.57
-0.7
-0.66
-0.43
-0.15
0.0
-0.12
-0.54
-1.16
-1.85
-2.52
-3.16
-3.77
-4.32
-4.76
-5.02
-5.1
-5.05
-4.93
-4.76
-4.48
-4.02
-3.33
-2.45
-1.47
-0.59
0.08
0.45
0.56
0.57
0.62
0.84
1.22
1.67
2.03
2.22
2.27
2.33
2.52
2.87
3.29
3.59
3.66
3.44
3.03
2.55
2.12
1.78
1.56
1.46
1.45
1.47
1.45
1.32
1.04
0.65
0.22
-0.16
-0.42
-0.53
-0.5
-0.36
-0.22
-0.16
-0.27
-0.52
-0.81
-1.0
-1.02
-0.88
-0.7
-0.62
-0.74
-1.01
-1.36
-1.69
-1.98
-2.24
-2.43
-2.53
-2.48
-2.28
-2.0
-1.75
-1.65
-1.73
-1.92
-2.18
-2.4
-2.52
-2.49
-2.3
-1.91
-1.34
-0.63
0.14
0.87
1.49
1.94
2.27
2.51
2.75
3.05
3.43
3.84
4.22
4.44
4.42
4.14
3.68
3.13
2.61
2.19
1.9
1.75
1.68
1.68
1.69
1.72
1.73
1.71
1.6
1.35
0.89
0.23
-0.53
-1.2
-1.61
-1.65
-1.39
-1.06
-0.93
-1.22
-1.94
-2.94
-3.93
-4.64
-4.88
-4.62
-3.98
-3.14
-2.32
-1.67
-1.25
-1.06
-1.0
-0.94
-0.77
-0.43
0.06
0.58
1.02
1.28
1.36
1.3
1.22
1.16
1.1
0.99
0.78
0.48
0.18
0.02
0.06
0.31
0.62
0.82
0.78
0.5
0.11
-0.18
-0.23
-0.02
0.39
0.82
1.15
1.29
1.21
0.94
0.52
0.0
-0.52
-0.96
-1.25
-1.35
-1.32
-1.27
-1.34
-1.6
-2.08
-2.72
-3.41
-4.01
-4.41
-4.56
-4.5
-4.29
-4.02
-3.75
-3.45
-3.04
-2.47
-1.72
-0.85
0.01
0.77
1.37
1.82
2.16
2.43
2.61
2.67
2.6
2.44
2.23
2.02
1.83
1.68
1.62
1.62
1.67
1.65
1.49
1.14
0.68
0.28
0.11
0.27
0.72
1.32
1.85
2.21
2.36
2.36
2.28
2.17
2.05
1.95
1.85
1.73
1.6
1.46
1.32
1.17
0.96
0.62
0.1
-0.6
-1.45
-2.35
-3.22
-3.99
-4.56
-4.89
-4.92
-4.67
-4.2
-3.63
-3.09
-2.66
-2.36
-2.17
-2.1
-2.13
-2.25
-2.39
-2.45
-2.36
-2.11
-1.75
-1.4
-1.15
-0.97
-0.8
-0.53
-0.1
0.49
1.19
1.95
2.72
3.44
4.06
4.5
4.68
4.53
4.06
3.35
2.57
1.91
1.48
1.32
1.31
1.31
1.16
0.85
0.47
0.16
0.03
0.09
0.28
0.48
0.62
0.65
0.58
0.41
0.14
-0.23
-0.69
-1.22
-1.81
-2.43
-3.06
-3.66
-4.14
-4.43
-4.47
-4.26
-3.83
-3.27
-2.68
-2.12
-1.69
-1.44
-1.39
-1.48
-1.6
-1.6
-1.36
-0.84
-0.08
0.8
1.67
2.39
2.9
3.15
3.22
3.18
3.14
3.13
3.11
3.01
2.77
2.4
2.0
1.68
1.49
1.41
1.33
1.13
0.84
0.53
0.34
0.32
0.43
0.54
0.51
0.29
-0.12
-0.59
-0.96
-1.09
-0.91
-0.47
0.09
0.53
0.66
0.33
-0.48
-1.67
-3.08
-4.5
-5.7
-6.5
-6.77
-6.48
-5.75
-4.72
-3.59
-2.5
-1.55
-0.74
-0.08
0.44
0.83
1.12
1.32
1.44
1.47
1.43
1.32
1.19
1.11
1.16
1.37
1.74
2.25
2.87
3.55
4.24
4.85
5.25
5.35
5.11
4.56
3.78
2.89
1.96
1.12
0.43
0.04
-0.03
0.2
0.59
0.92
1.03
0.85
0.46
0.01
-0.37
-0.62
-0.77
-0.88
-0.98
-1.05
-1.03
-0.92
-0.79
-0.76
-0.97
-1.42
-2.03
-2.62
-3.04
-3.24
-3.27
-3.21
-3.15
-3.08
-2.93
-2.67
-2.3
-1.93
-1.69
-1.65
-1.77
-1.9
-1.91
-1.66
-1.2
-0.65
-0.18
0.08
0.08
-0.13
-0.44
-0.72
-0.83
-0.68
-0.22
0.49
1.34
2.16
2.8
3.23
3.45
3.56
3.61
3.64
3.61
3.49
3.31
3.14
3.04
3.03
3.02
2.94
2.7
2.32
1.91
1.55
1.32
1.19
1.08
0.9
0.61
0.23
-0.2
-0.58
-0.88
-1.12
-1.41
-1.88
-2.64
-3.65
-4.78
-5.77
-6.38
-6.48
-6.08
-5.32
-4.36
-3.39
-2.49
-1.75
-1.21
-0.9
-0.81
-0.82
-0.82
-0.68
-0.36
0.12
0.71
1.34
1.98
2.57
3.03
3.31
3.38
3.32
3.24
3.23
3.28
3.29
3.13
2.74
2.22
1.74
1.49
1.55
1.81
2.09
2.21
2.12
1.89
1.67
1.57
1.63
1.76
1.81
1.68
1.32
0.81
0.26
-0.23
-0.61
-0.91
-1.16
-1.45
-1.81
-2.32
-3.03
-3.91
-4.91
-5.87
-6.6
-6.95
-6.89
-6.47
-5.83
-5.11
-4.41
-3.78
-3.23
-2.72
-2.23
-1.76
-1.31
-0.92
-0.65
-0.54
-0.55
-0.59
-0.52
-0.26
0.2
0.76
1.27
1.67
1.96
2.22
2.53
2.93
3.38
3.82
4.2
4.49
4.69
4.79
4.77
4.66
4.46
4.24
4.05
3.95
3.91
3.93
3.95
3.93
3.85
3.71
3.5
3.25
2.93
2.51
1.89
1.04
-0.01
-1.1
-1.99
-2.48
-2.54
-2.36
-2.28
-2.6
-3.43
-4.62
-5.8
-6.66
-6.98
-6.78
-6.26
-5.63
-5.03
-4.51
-4.03
-3.55
-3.03
-2.45
-1.78
-1.01
-0.15
0.71
1.49
2.03
2.23
2.08
1.65
1.14
0.76
0.68
0.96
1.5
2.14
2.65
2.94
2.96
2.81
2.61
2.45
2.38
2.41
2.48
2.57
2.66
2.76
2.84
2.88
2.79
2.48
1.87
0.98
-0.1
-1.19
-2.12
-2.74
-3.04
-3.07
-2.97
-2.89
-2.94
-3.19
-3.6
-4.13
-4.68
-5.16
-5.52
-5.72
-5.75
-5.59
-5.23
-4.66
-3.95
-3.18
-2.45
-1.84
-1.33
-0.89
-0.5
-0.19
-0.02
-0.04
-0.22
-0.45
-0.54
-0.4
-0.02
0.5
1.04
1.54
1.98
2.41
2.87
3.34
3.75
4.04
4.19
4.2
4.15
4.11
4.12
4.2
4.29
4.38
4.44
4.48
4.53
4.62
4.7
4.7
4.48
3.93
3.03
1.89
0.73
-0.24
-0.88
-1.17
-1.25
-1.29
-1.45
-1.83
-2.43
-3.24
-4.17
-5.16
-6.07
-6.77
-7.15
-7.1
-6.64
-5.85
-4.87
-3.82
-2.82
-1.93
-1.23
-0.77
-0.59
-0.63
-0.78
-0.87
-0.74
-0.32
0.33
1.04
1.59
1.83
1.75
1.48
1.19
1.05
1.13
1.39
1.74
2.08
2.31
2.42
2.42
2.36
2.28
2.21
2.11
1.98
1.81
1.65
1.56
1.56
1.62
1.62
1.41
0.91
0.15
-0.72
-1.5
-2.03
-2.28
-2.3
-2.2
-2.05
-1.94
-1.9
-2.02
-2.31
-2.75
-3.26
-3.71
-4.01
-4.13
-4.1
-3.96
-3.71
-3.34
-2.83
-2.22
-1.6
-1.05
-0.66
-0.46
-0.43
-0.51
-0.65
-0.75
-0.72
-0.49
-0.05
0.54
1.17
1.74
2.18
2.44
2.56
2.58
2.58
2.64
2.81
3.07
3.32
3.47
3.42
3.23
3.0
2.89
2.99
3.26
3.57
3.8
3.83
3.64
3.24
2.66
1.96
1.25
0.63
0.19
-0.03
-0.13
-0.3
-0.71
-1.46
-2.51
-3.71
-4.9
-5.96
-6.82
-7.44
-7.75
-7.67
-7.15
-6.18
-4.87
-3.4
-1.99
-0.83
-0.06
0.28
0.25
-0.04
-0.41
-0.62
-0.5
0.03
0.89
1.87
2.77
3.4
3.72
3.81
3.73
3.56
3.34
3.1
2.91
2.86
3.04
3.46
4.05
4.63
5.06
5.26
5.21
4.97
4.61
4.17
3.7
3.24
2.8
2.38
1.96
1.48
0.93
0.27
-0.47
-1.24
-2.0
-2.69
-3.33
-3.95
-4.58
-5.27
-6.02
-6.78
-7.44
-7.92
-8.11
-7.97
-7.52
-6.76
-5.74
-4.49
-3.11
-1.72
-0.52
0.33
0.77
0.9
0.94
1.15
1.67
2.5
3.46
4.35
5.02
5.45
5.73
6.01
6.31
6.57
6.65
6.44
5.98
5.39
4.87
4.55
4.45
4.46
4.42
4.23
3.88
3.46
3.07
2.75
2.43
2.01
1.41
0.65
-0.12
-0.7
-0.93
-0.79
-0.42
-0.08
-0.02
-0.36
-1.04
-1.88
-2.61
-3.11
-3.35
-3.47
-3.62
-3.88
-4.21
-4.44
-4.4
-4.0
-3.26
-2.35
-1.42
-0.59
0.09
0.64
1.11
1.47
1.69
1.7
1.53
1.29
1.19
1.41
2.06
3.06
4.21
5.26
5.99
6.31
6.22
5.81
5.19
4.49
3.82
3.27
2.87
2.59
2.31
1.92
1.39
0.8
0.27
-0.06
-0.15
-0.1
-0.03
-0.06
-0.22
-0.47
-0.7
-0.87
-0.95
-1.03
-1.2
-1.55
-2.09
-2.77
-3.51
-4.21
-4.81
-5.3
-5.65
-5.81
-5.67
-5.16
-4.26
-3.11
-1.94
-1.04
-0.56
-0.45
-0.51
-0.44
-0.09
0.58
1.38
2.1
2.54
2.7
2.69
2.72
2.97
3.5
4.29
5.17
5.98
6.57
6.88
6.91
6.74
6.43
6.02
5.56
5.05
4.55
4.13
3.87
3.79
3.87
4.0
4.01
3.79
3.27
2.49
1.55
0.63
-0.14
-0.66
-0.93
-1.06
-1.16
-1.42
-1.96
-2.88
-4.22
-5.89
-7.71
-9.38
-10.59
-11.07
-10.72
-9.66
-8.17
-6.6
-5.21
-4.07
-3.07
-2.04
-0.89
0.35
1.54
2.54
3.27
3.74
4.06
4.31
4.55
4.78
5.02
5.25
5.49
5.74
5.96
6.14
6.24
6.24
6.12
5.86
5.49
5.03
4.58
4.21
3.99
3.89
3.85
3.8
3.68
3.43
3.04
2.48
1.77
0.98
0.19
-0.47
-0.9
-1.12
-1.19
-1.26
-1.48
-1.95
-2.7
-3.66
-4.67
-5.59
-6.3
-6.75
-7.0
-7.1
-7.11
-6.99
-6.63
-5.97
-5.01
-3.86
-2.72
-1.73
-0.95
-0.32
0.25
0.81
1.35
1.8
2.11
2.33
2.54
2.83
3.2
3.58
3.81
3.8
3.51
3.05
2.57
2.22
2.07
2.13
2.29
2.44
2.51
2.44
2.24
1.96
1.64
1.41
1.33
1.4
1.54
1.59
1.39
0.82
-0.12
-1.3
-2.52
-3.58
-4.36
-4.87
-5.2
-5.44
-5.73
-6.06
-6.4
-6.63
-6.67
-6.43
-5.89
-5.11
-4.21
-3.28
-2.39
-1.53
-0.67
0.19
0.99
1.64
2.01
2.11
2.0
1.83
1.74
1.82
2.05
2.34
2.58
2.72
2.71
2.56
2.27
1.88
1.46
1.12
1.01
1.21
1.74
2.48
3.22
3.77
3.98
3.82
3.39
2.81
2.24
1.78
1.48
1.34
1.31
1.32
1.26
1.02
0.55
-0.18
-1.09
-2.06
-2.93
-3.59
-4.0
-4.25
-4.43
-4.71
-5.15
-5.75
-6.4
-6.93
-7.14
-6.85
-6.01
-4.71
-3.18
-1.71
-0.54
0.22
0.62
0.77
0.8
0.76
0.67
0.5
0.32
0.23
0.36
0.77
1.39
2.05
2.57
2.86
2.96
3.01
3.15
3.44
3.85
4.27
4.57
4.67
4.56
4.27
3.84
3.33
2.78
2.23
1.71
1.25
0.84
0.48
0.16
-0.13
-0.39
-0.62
-0.82
-0.95
-1.05
-1.12
-1.24
-1.43
-1.74
-2.14
-2.59
-3.08
-3.6
-4.18
-4.79
-5.34
-5.72
-5.8
-5.57
-5.1
-4.53
-3.98
-3.51
-3.1
-2.72
-2.35
-2.0
-1.68
-1.37
-1.07
-0.79
-0.54
-0.38
-0.3
-0.28
-0.25
-0.18
-0.08
-0.02
-0.03
-0.11
-0.12
0.03
0.43
1.0
1.55
1.9
1.94
1.68
1.3
0.99
0.88
0.99
1.18
1.26
1.11
0.72
0.2
-0.29
-0.61
-0.75
-0.76
-0.71
-0.65
-0.55
-0.38
-0.18
-0.01
-0.01
-0.27
-0.8
-1.49
-2.22
-2.83
-3.23
-3.43
-3.48
-3.51
-3.58
-3.69
-3.76
-3.64
-3.21
-2.48
-1.58
-0.73
-0.12
0.19
0.29
0.38
0.61
1.02
1.51
1.88
2.01
1.89
1.61
1.36
1.26
1.37
1.63
1.94
2.14
2.18
2.09
1.94
1.83
1.84
1.96
2.16
2.37
2.57
2.74
2.89
2.97
2.91
2.61
2.05
1.3
0.51
-0.16
-0.62
-0.9
-1.08
-1.32
-1.72
-2.29
-3.0
-3.73
-4.35
-4.79
-5.03
-5.13
-5.13
-5.01
-4.71
-4.12
-3.22
-2.16
-1.2
-0.62
-0.58
-1.0
-1.63
-2.16
-2.37
-2.23
-1.88
-1.52
-1.26
-1.14
-1.06
-0.95
-0.72
-0.36
0.1
0.59
1.09
1.61
2.17
2.81
3.51
4.18
4.64
4.71
4.34
3.62
2.83
2.27
2.12
2.45
3.04
3.6
3.83
3.57
2.84
1.81
0.76
-0.07
-0.54
-0.63
-0.46
-0.26
-0.21
-0.42
-0.88
-1.57
-2.39
-3.29
-4.2
-5.05
-5.71
-6.08
-6.11
-5.85
-5.44
-4.98
-4.52
-4.07
-3.61
-3.12
-2.66
-2.26
-1.92
-1.63
-1.36
-1.16
-1.05
-1.08
-1.17
-1.17
-0.95
-0.46
0.17
0.75
1.11
1.28
1.41
1.7
2.24
2.94
3.58
3.92
3.82
3.28
2.44
1.5
0.65
0.03
-0.28
-0.28
-0.04
0.31
0.65
0.85
0.93
0.92
0.93
0.98
1.06
1.06
0.9
0.54
0.06
-0.47
-0.96
-1.42
-1.94
-2.59
-3.32
-3.97
-4.31
-4.2
-3.67
-2.9
-2.12
-1.5
-1.04
-0.68
-0.38
-0.18
-0.16
-0.38
-0.78
-1.19
-1.42
-1.37
-1.02
-0.48
0.13
0.67
1.04
1.19
1.13
0.97
0.83
0.85
1.09
1.49
1.91
2.27
2.51
2.64
2.67
2.54
2.22
1.73
1.2
0.86
0.83
1.08
1.44
1.63
1.47
0.97
0.31
-0.25
-0.52
-0.46
-0.19
0.12
0.24
0.02
-0.58
-1.49
-2.58
-3.69
-4.64
-5.35
-5.73
-5.75
-5.36
-4.59
-3.5
-2.24
-1.02
-0.01
0.67
0.99
0.99
0.77
0.44
0.12
-0.06
-0.03
0.25
0.74
1.34
1.93
2.4
2.68
2.77
2.69
2.49
2.27
2.09
2.05
2.19
2.49
2.83
3.09
3.13
2.86
2.34
1.67
1.05
0.62
0.44
0.48
0.57
0.54
0.25
-0.32
-1.1
-1.97
-2.8
-3.5
-4.0
-4.24
-4.21
-3.94
-3.55
-3.22
-3.12
-3.31
-3.78
-4.37
-4.89
-5.19
-5.17
-4.75
-3.93
-2.75
-1.3
0.28
1.78
3.06
3.99
4.53
4.68
4.5
4.07
3.54
3.05
2.74
2.62
2.63
2.6
2.45
2.13
1.74
1.35
1.1
1.02
1.1
1.33
1.69
2.12
2.57
2.92
3.04
2.82
2.28
1.51
0.64
-0.18
-0.84
-1.32
-1.62
-1.79
-1.84
-1.82
-1.72
-1.57
-1.41
-1.29
-1.25
-1.31
-1.48
-1.73
-2.04
-2.41
-2.81
-3.2
-3.52
-3.69
-3.7
-3.59
-3.43
-3.31
-3.25
-3.16
-2.93
-2.47
-1.77
-0.93
-0.13
0.45
0.66
0.5
0.06
-0.5
-0.94
-1.1
-0.88
-0.3
0.52
1.42
2.3
3.03
3.53
3.7
3.46
2.81
1.88
0.93
0.26
0.08
0.41
1.06
1.72
2.14
2.2
1.96
1.58
1.19
0.86
0.56
0.24
-0.1
-0.43
-0.68
-0.81
-0.83
-0.8
-0.82
-1.01
-1.41
-2.02
-2.74
-3.42
-3.96
-4.31
-4.45
-4.46
-4.4
-4.31
-4.16
-3.91
-3.48
-2.88
-2.11
-1.29
-0.54
0.02
0.29
0.29
0.11
-0.07
-0.08
0.19
0.73
1.42
2.09
2.63
2.98
3.16
3.28
3.39
3.56
3.75
3.89
3.86
3.62
3.2
2.7
2.24
1.91
1.68
1.46
1.19
0.88
0.63
0.55
0.67
0.89
0.97
0.75
0.21
-0.48
-1.06
-1.31
-1.19
-0.86
-0.61
-0.67
-1.14
-1.94
-2.86
-3.67
-4.25
-4.55
-4.62
-4.48
-4.1
-3.48
-2.62
-1.62
-0.69
-0.01
0.28
0.2
-0.12
-0.46
-0.66
-0.64
-0.4
-0.02
0.38
0.69
0.81
0.73
0.5
0.25
0.13
0.25
0.64
1.25
1.98
2.7
3.29
3.61
3.63
3.31
2.72
2.0
1.32
0.84
0.64
0.68
0.88
1.13
1.35
1.48
1.48
1.33
1.03
0.64
0.28
0.06
0.01
0.1
0.22
0.25
0.09
-0.31
-0.94
-1.76
-2.67
-3.53
-4.18
-4.47
-4.37
-3.95
-3.36
-2.78
-2.32
-2.03
-1.82
-1.62
-1.31
-0.84
-0.24
0.4
0.94
1.23
1.24
1.01
0.69
0.46
0.47
0.74
1.18
1.68
2.13
2.47
2.71
2.89
3.0
3.01
2.83
2.45
1.88
1.25
0.73
0.45
0.47
0.7
0.97
1.09
1.03
0.81
0.53
0.3
0.13
-0.01
-0.15
-0.27
-0.33
-0.32
-0.3
-0.34
-0.57
-1.02
-1.66
-2.4
-3.11
-3.69
-4.03
-4.02
-3.61
-2.83
-1.84
-0.86
-0.09
0.4
0.67
0.87
1.15
1.54
2.0
2.41
2.75
2.97
3.13
3.24
3.29
3.24
3.06
2.77
2.44
2.17
2.04
2.1
2.32
2.59
2.77
2.74
2.48
2.07
1.61
1.17
0.81
0.49
0.2
-0.01
-0.06
0.1
0.48
0.93
1.27
1.31
0.97
0.34
-0.42
-1.14
-1.69
-2.07
-2.36
-2.66
-3.09
-3.65
-4.32
-5.0
-5.62
-6.11
-6.45
-6.55
-6.32
-5.63
-4.46
-2.89
-1.23
0.21
1.17
1.58
1.59
1.49
1.48
1.64
1.94
2.28
2.61
2.97
3.4
3.88
4.33
4.63
4.72
4.63
4.48
4.38
4.38
4.44
4.5
4.49
4.43
4.35
4.29
4.24
4.17
4.02
3.76
3.4
2.95
2.45
1.98
1.55
1.17
0.82
0.45
0.05
-0.34
-0.7
-1.0
-1.26
-1.54
-1.83
-2.07
-2.2
-2.16
-2.01
-1.87
-1.85
-1.95
-2.14
-2.25
-2.19
-1.98
-1.7
-1.46
-1.33
-1.32
-1.38
-1.47
-1.59
-1.71
-1.74
-1.58
-1.13
-0.37
0.62
1.63
2.46
2.98
3.16
3.09
2.91
2.76
2.71
2.76
2.81
2.8
2.66
2.38
2.02
1.65
1.34
1.14
1.01
0.88
0.65
0.26
-0.27
-0.86
-1.4
-1.82
-2.11
-2.26
-2.35
-2.38
-2.39
-2.37
-2.37
-2.43
-2.61
-2.91
-3.29
-3.63
-3.8
-3.71
-3.31
-2.66
-1.87
-1.1
-0.48
-0.07
0.15
0.25
0.34
0.49
0.72
1.01
1.32
1.6
1.86
2.08
2.27
2.38
2.34
2.15
1.84
1.5
1.25
1.18
1.27
1.51
1.81
2.13
2.4
2.58
2.64
2.55
2.4
2.3
2.4
2.77
3.28
3.7
3.71
3.18
2.2
1.05
0.07
-0.56
-0.78
-0.75
-0.7
-0.77
-1.04
-1.5
-2.06
-2.64
-3.13
-3.47
-3.62
-3.58
-3.39
-3.06
-2.6
-2.01
-1.34
-0.69
-0.18
0.1
0.17
0.13
0.07
0.06
0.09
0.15
0.21
0.36
0.62
1.0
1.43
1.77
1.95
1.95
1.85
1.73
1.67
1.68
1.72
1.8
1.89
1.96
1.92
1.7
1.23
0.59
-0.08
-0.58
-0.77
-0.65
-0.32
0.03
0.24
0.22
-0.04
-0.45
-0.93
-1.39
-1.77
-2.06
-2.25
-2.38
-2.46
-2.53
-2.61
-2.75
-2.96
-3.23
-3.49
-3.65
-3.6
-3.29
-2.69
-1.89
-1.0
-0.15
0.54
0.99
1.18
1.11
0.85
0.48
0.11
-0.17
-0.26
-0.13
0.21
0.73
1.31
1.8
2.07
2.07
1.85
1.54
1.3
1.17
1.12
1.06
0.93
0.7
0.41
0.08
-0.25
-0.53
-0.76
-0.85
-0.79
-0.6
-0.35
-0.13
-0.01
0.01
-0.09
-0.28
-0.58
-1.0
-1.49
-1.93
-2.2
-2.23
-2.04
-1.78
-1.64
-1.74
-2.09
-2.56
-2.97
-3.12
-2.93
-2.4
-1.65
-0.86
-0.16
0.35
0.66
0.83
0.9
0.9
0.86
0.82
0.87
1.04
1.38
1.81
2.22
2.52
2.66
2.69
2.65
2.63
2.63
2.64
2.61
2.52
2.36
2.15
1.92
1.69
1.5
1.39
1.31
1.22
1.0
0.6
0.07
-0.46
-0.83
-0.93
-0.8
-0.61
-0.56
-0.77
-1.18
-1.65
-2.03
-2.24
-2.35
-2.47
-2.68
-2.96
-3.23
-3.4
-3.45
-3.38
-3.26
-3.14
-3.04
-2.95
-2.84
-2.7
-2.53
-2.32
-2.09
-1.8
-1.38
-0.77
0.06
1.03
2.0
2.74
3.1
3.06
2.75
2.36
2.11
2.05
2.16
2.35
2.49
2.51
2.32
1.96
1.52
1.15
1.02
1.21
1.67
2.24
2.73
3.03
3.14
3.15
3.16
3.16
3.1
2.87
2.44
1.86
1.18
0.49
-0.19
-0.86
-1.55
-2.3
-3.12
-3.98
-4.81
-5.48
-5.85
-5.88
-5.54
-4.96
-4.26
-3.57
-2.91
-2.27
-1.61
-0.9
-0.18
0.49
1.03
1.38
1.53
1.56
1.59
1.74
2.04
2.39
2.6
2.47
1.91
1.03
0.03
-0.81
-1.34
-1.52
-1.44
-1.21
-0.92
-0.63
-0.42
-0.35
-0.47
-0.77
-1.13
-1.44
-1.6
-1.59
-1.48
-1.31
-1.13
-0.93
-0.73
-0.54
-0.45
-0.54
-0.82
-1.26
-1.75
-2.21
-2.55
-2.75
-2.81
-2.73
-2.5
-2.12
-1.63
-1.07
-0.57
-0.2
-0.01
-0.02
-0.19
-0.47
-0.8
-1.16
-1.51
-1.76
-1.84
-1.65
-1.16
-0.41
0.45
1.29
1.99
2.46
2.72
2.81
2.79
2.77
2.83
3.03
3.32
3.62
3.81
3.77
3.52
3.17
2.88
2.78
2.85
2.95
2.89
2.58
2.02
1.34
0.73
0.33
0.17
0.24
0.44
0.67
0.81
0.77
0.5
0.02
-0.56
-1.07
-1.4
-1.5
-1.45
-1.4
-1.48
-1.73
-2.1
-2.46
-2.68
-2.69
-2.47
-2.12
-1.72
-1.36
-1.06
-0.82
-0.61
-0.38
-0.13
0.11
0.32
0.47
0.6
0.72
0.87
1.06
1.26
1.41
1.44
1.31
1.09
0.89
0.83
0.97
1.32
1.72
2.03
2.13
2.04
1.83
1.61
1.47
1.45
1.56
1.82
2.22
2.69
3.05
3.08
2.59
1.58
0.29
-0.94
-1.78
-2.13
-2.12
-2.02
-2.07
-2.41
-2.99
-3.67
-4.33
-4.87
-5.22
-5.34
-5.2
-4.81
-4.25
-3.61
-3.01
-2.48
-2.04
-1.62
-1.19
-0.74
-0.3
0.09
0.37
0.52
0.5
0.31
0.04
-0.15
-0.09
0.37
1.2
2.24
3.28
4.14
4.69
4.94
4.91
4.62
4.1
3.4
2.58
1.83
1.3
1.05
1.09
1.27
1.41
1.39
1.16
0.81
0.51
0.36
0.41
0.54
0.57
0.35
-0.17
-0.87
-1.54
-2.02
-2.27
-2.37
-2.48
-2.7
-3.01
-3.33
-3.54
-3.59
-3.53
-3.44
-3.37
-3.3
-3.18
-2.91
-2.47
-1.97
-1.54
-1.31
-1.33
-1.54
-1.79
-1.94
-1.9
-1.69
-1.39
-1.09
-0.82
-0.56
-0.25
0.14
0.59
1.06
1.51
1.93
2.29
2.55
2.67
2.63
2.51
2.4
2.35
2.37
2.36
2.21
1.93
1.64
1.55
1.76
2.22
2.73
3.01
2.97
2.64
2.19
1.75
1.38
1.05
0.75
0.48
0.3
0.22
0.21
0.16
-0.02
-0.38
-0.89
-1.49
-2.15
-2.82
-3.46
-3.96
-4.19
-4.05
-3.59
-3.0
-2.48
-2.2
-2.18
-2.29
-2.39
-2.37
-2.19
-1.89
-1.52
-1.04
-0.45
0.26
1.0
1.58
1.83
1.65
1.11
0.45
-0.05
-0.13
0.27
1.04
1.92
2.64
3.01
3.01
2.71
2.27
1.81
1.44
1.19
1.07
1.01
0.96
0.89
0.8
0.75
0.8
0.96
1.17
1.32
1.29
1.05
0.69
0.32
0.07
-0.04
-0.1
-0.23
-0.51
-0.98
-1.56
-2.12
-2.57
-2.84
-2.9
-2.74
-2.38
-1.79
-1.01
-0.1
0.8
1.52
1.91
1.95
1.72
1.37
1.06
0.83
0.66
0.51
0.36
0.26
0.3
0.48
0.75
0.96
1.0
0.81
0.49
0.2
0.06
0.15
0.39
0.65
0.77
0.63
0.2
-0.38
-0.9
-1.15
-1.04
-0.63
-0.17
0.08
-0.01
-0.39
-0.86
-1.2
-1.29
-1.17
-0.98
-0.87
-0.9
-1.07
-1.3
-1.55
-1.79
-2.02
-2.19
-2.29
-2.28
-2.17
-2.01
-1.83
-1.67
-1.55
-1.49
-1.54
-1.73
-2.06
-2.45
-2.83
-3.13
-3.3
-3.33
-3.21
-2.89
-2.37
-1.66
-0.86
-0.15
0.36
0.62
0.69
0.69
0.74
0.92
1.23
1.63
2.03
2.35
2.53
2.56
2.44
2.29
2.19
2.19
2.29
2.43
2.49
2.4
2.16
1.81
1.41
1.02
0.69
0.43
0.23
0.07
-0.11
-0.35
-0.63
-0.91
-1.1
-1.12
-0.95
-0.64
-0.33
-0.17
-0.29
-0.71
-1.33
-1.93
-2.26
-2.19
-1.77
-1.23
-0.85
-0.79
-1.02
-1.32
-1.41
-1.19
-0.74
-0.29
-0.02
0.03
-0.0
0.03
0.23
0.52
0.79
0.92
0.88
0.71
0.51
0.32
0.19
0.11
0.15
0.35
0.73
1.24
1.77
2.12
2.15
1.79
1.11
0.28
-0.46
-0.91
-0.99
-0.79
-0.47
-0.22
-0.14
-0.3
-0.71
-1.38
-2.27
-3.29
-4.22
-4.79
-4.79
-4.17
-3.12
-1.92
-0.86
-0.12
0.34
0.62
0.86
1.12
1.39
1.64
1.86
2.03
2.15
2.2
2.14
1.97
1.68
1.33
1.0
0.81
0.81
1.04
1.44
1.92
2.33
2.56
2.54
2.31
1.93
1.51
1.1
0.73
0.38
0.07
-0.18
-0.35
-0.42
-0.42
-0.41
-0.44
-0.55
-0.75
-1.03
-1.34
-1.59
-1.71
-1.7
-1.62
-1.53
-1.52
-1.59
-1.67
-1.67
-1.53
-1.32
-1.14
-1.1
-1.2
-1.32
-1.35
-1.22
-1.02
-0.86
-0.8
-0.79
-0.72
-0.46
-0.01
0.5
0.96
1.29
1.5
1.7
1.94
2.21
2.42
2.45
2.31
2.04
1.77
1.58
1.51
1.51
1.52
1.51
1.45
1.38
1.3
1.24
1.21
1.16
1.03
0.72
0.19
-0.53
-1.37
-2.22
-3.01
-3.66
-4.15
-4.43
-4.5
-4.36
-4.06
-3.64
-3.15
-2.62
-2.01
-1.38
-0.75
-0.2
0.22
0.53
0.78
1.04
1.32
1.55
1.68
1.73
1.77
1.94
2.33
2.92
3.66
4.44
5.18
5.84
6.33
6.58
6.5
6.08
5.39
4.59
3.87
3.3
2.88
2.5
2.03
1.41
0.63
-0.25
-1.1
-1.78
-2.18
-2.21
-1.92
-1.47
-1.06
-0.91
-1.12
-1.6
-2.17
-2.63
-2.87
-2.92
-2.87
-2.79
-2.65
-2.35
-1.79
-1.02
-0.26
0.21
0.18
-0.32
-1.04
-1.59
-1.67
-1.19
-0.27
0.8
1.76
2.44
2.79
2.88
2.84
2.8
2.92
3.28
3.87
4.56
5.07
5.11
4.54
3.44
2.11
0.92
0.19
-0.02
0.18
0.52
0.77
0.81
0.63
0.31
-0.07
-0.48
-0.92
-1.36
-1.76
-2.12
-2.38
-2.52
-2.52
-2.42
-2.23
-1.97
-1.59
-1.05
-0.27
0.72
1.85
2.9
3.7
4.11
4.15
3.91
3.54
3.14
2.72
2.3
1.88
1.48
1.14
0.88
0.68
0.5
0.34
0.24
0.26
0.42
0.7
1.01
1.27
1.41
1.41
1.28
1.06
0.81
0.59
0.45
0.43
0.48
0.58
0.69
0.78
0.81
0.74
0.54
0.22
-0.18
-0.59
-1.0
-1.43
-1.94
-2.53
-3.1
-3.45
-3.44
-3.06
-2.49
-1.97
-1.69
-1.66
-1.69
-1.63
-1.39
-1.06
-0.77
-0.63
-0.57
-0.47
-0.18
0.36
1.1
1.92
2.69
3.33
3.8
4.11
4.27
4.31
4.25
4.11
3.91
3.62
3.26
2.83
2.33
1.76
1.15
0.5
-0.13
-0.7
-1.18
-1.57
-1.87
-2.08
-2.19
-2.19
-2.11
-2.01
-2.0
-2.13
-2.4
-2.73
-3.01
-3.12
-3.02
-2.7
-2.18
-1.52
-0.77
-0.01
0.68
1.21
1.51
1.53
1.26
0.75
0.12
-0.48
-0.87
-0.94
-0.71
-0.29
0.16
0.5
0.66
0.66
0.55
0.38
0.17
-0.03
-0.2
-0.27
-0.22
-0.05
0.19
0.43
0.62
0.73
0.76
0.7
0.57
0.4
0.22
0.1
0.07
0.09
0.1
-0.0
-0.24
-0.59
-0.96
-1.28
-1.5
-1.63
-1.72
-1.8
-1.89
-1.93
-1.89
-1.73
-1.45
-1.11
-0.79
-0.55
-0.44
-0.42
-0.45
-0.52
-0.6
-0.67
-0.73
-0.71
-0.57
-0.35
-0.1
0.04
0.01
-0.18
-0.42
-0.56
-0.51
-0.28
0.06
0.42
0.76
1.07
1.34
1.54
1.66
1.68
1.66
1.65
1.68
1.75
1.77
1.69
1.48
1.21
0.94
0.74
0.59
0.45
0.19
-0.26
-0.92
-1.72
-2.5
-3.09
-3.35
-3.24
-2.86
-2.37
-1.94
-1.64
-1.49
-1.41
-1.37
-1.34
-1.35
-1.39
-1.46
-1.55
-1.62
-1.69
-1.76
-1.79
-1.74
-1.56
-1.2
-0.7
-0.09
0.56
1.23
1.94
2.66
3.32
3.84
4.16
4.27
4.23
4.09
3.87
3.52
2.97
2.23
1.37
0.56
-0.06
-0.44
-0.61
-0.67
-0.7
-0.74
-0.77
-0.78
-0.78
-0.82
-0.95
-1.23
-1.65
-2.15
-2.64
-2.93
-2.91
-2.53
-1.86
-1.08
-0.43
-0.05
-0.01
-0.24
-0.58
-0.95
-1.27
-1.56
-1.82
-2.06
-2.2
-2.24
-2.16
-2.05
-2.01
-2.07
-2.2
-2.26
-2.12
-1.69
-1.0
-0.22
0.48
0.94
1.09
0.96
0.64
0.22
-0.2
-0.56
-0.79
-0.83
-0.65
-0.29
0.13
0.54
0.85
1.09
1.27
1.42
1.53
1.53
1.4
1.1
0.68
0.18
-0.34
-0.83
-1.25
-1.56
-1.74
-1.79
-1.74
-1.63
-1.49
-1.3
-1.08
-0.88
-0.79
-0.87
-1.13
-1.49
-1.84
-2.11
-2.25
-2.27
-2.17
-1.94
-1.54
-0.98
-0.32
0.3
0.77
1.02
1.05
0.94
0.78
0.69
0.75
1.0
1.39
1.8
2.05
2.01
1.68
1.16
0.62
0.23
0.02
-0.07
-0.11
-0.14
-0.13
-0.02
0.21
0.47
0.62
0.5
0.04
-0.69
-1.47
-2.08
-2.32
-2.21
-1.93
-1.71
-1.72
-1.97
-2.3
-2.49
-2.42
-2.12
-1.74
-1.49
-1.41
-1.45
-1.43
-1.16
-0.62
0.13
0.9
1.49
1.8
1.85
1.7
1.48
1.29
1.13
1.0
0.86
0.75
0.71
0.82
1.08
1.44
1.78
2.03
2.12
2.07
1.91
1.64
1.27
0.81
0.32
-0.1
-0.34
-0.4
-0.36
-0.32
-0.37
-0.49
-0.63
-0.7
-0.72
-0.79
-0.99
-1.36
-1.79
-2.12
-2.2
-2.02
-1.68
-1.41
-1.31
-1.42
-1.61
-1.71
-1.61
-1.32
-0.95
-0.63
-0.45
-0.38
-0.31
-0.14
0.16
0.54
0.91
1.16
1.27
1.25
1.16
1.02
0.84
0.6
0.3
-0.0
-0.21
-0.24
-0.08
0.2
0.43
0.48
0.25
-0.22
-0.81
-1.37
-1.8
-2.05
-2.15
-2.23
-2.4
-2.69
-3.09
-3.47
-3.72
-3.79
-3.68
-3.47
-3.22
-2.95
-2.61
-2.15
-1.53
-0.83
-0.15
0.34
0.6
0.65
0.63
0.7
0.95
1.39
1.93
2.47
2.93
3.3
