0
15.79
16.18
17.23
18.66
20.02
20.84
20.77
19.66
17.69
15.24
12.79
10.69
9.03
7.63
6.21
4.5
2.44
0.14
-2.15
-4.2
-5.94
-7.4
-8.79
-10.31
-12.12
-14.24
-16.61
-19.21
-22.04
-25.12
-28.42
-31.65
-34.32
-35.8
-35.56
-33.34
-29.32
-23.99
-17.94
-11.71
-5.66
-0.1
4.72
8.52
11.08
12.36
12.57
12.16
11.67
11.57
12.1
13.27
14.8
16.32
17.45
17.91
17.55
16.43
14.71
12.66
10.53
8.59
7.0
5.79
4.88
4.07
3.13
1.86
0.18
-1.9
-4.24
-6.6
-8.68
-10.16
-10.86
-10.78
-10.23
-9.72
-9.76
-10.71
-12.71
-15.52
-18.76
-21.9
-24.37
-25.57
-24.99
-22.35
-17.72
-11.56
-4.65
2.25
8.5
13.8
18.06
21.34
23.71
25.24
26.06
26.35
26.4
26.53
26.96
27.78
28.89
30.0
30.78
30.97
30.51
29.56
28.46
27.51
26.81
26.2
25.44
24.33
22.91
21.44
20.33
19.94
20.48
21.94
24.06
26.25
27.6
26.97
23.16
15.35
3.42
-11.87
-29.07
-46.39
-62.24
-75.53
-85.76
-92.86
-96.88
-97.85
-95.69
-90.34
-82.02
-71.35
-59.25
-46.79
-34.9
-24.1
-14.59
-6.36
0.59
6.12
10.05
12.34
13.22
13.17
12.87
12.89
13.59
15.01
16.94
19.01
20.88
22.31
23.24
23.71
23.81
23.62
23.1
22.2
20.93
19.39
17.81
16.42
15.35
14.48
13.57
12.32
10.54
8.2
5.48
2.67
0.02
-2.35
-4.42
-6.35
-8.36
-10.61
-13.18
-16.09
-19.25
-22.52
-25.6
-28.05
-29.24
-28.54
-25.55
-20.27
-13.21
-5.31
2.38
9.0
14.06
17.48
19.48
20.43
20.66
20.52
20.2
19.86
19.6
19.49
19.66
20.19
21.1
22.25
23.36
24.08
24.13
23.4
21.97
20.01
17.7
15.11
12.3
9.36
6.4
3.58
0.94
-1.61
-4.25
-7.1
-10.18
-13.33
-16.35
-19.06
-21.44
-23.63
-25.91
-28.56
-31.77
-35.5
-39.49
-43.18
-45.86
-46.8
-45.52
-41.86
-36.08
-28.82
-20.93
-13.25
-6.38
-0.59
4.18
8.18
11.62
14.56
16.93
18.61
19.64
20.22
20.65
21.11
21.63
22.09
22.39
22.58
22.83
23.34
24.09
24.86
25.27
24.95
23.7
21.52
18.71
15.66
12.77
10.37
8.63
7.45
6.56
5.63
4.43
2.93
1.22
-0.49
-2.16
-3.85
-5.76
-8.11
-11.0
-14.44
-18.2
-21.9
-24.99
-26.85
-26.96
-25.02
-21.09
-15.57
-9.1
-2.41
3.87
9.27
13.54
16.6
18.56
19.57
19.77
19.29
18.31
17.09
15.97
15.33
15.41
16.16
17.28
18.38
19.15
19.43
19.23
18.52
17.24
15.32
12.8
9.91
7.04
4.55
2.72
1.55
0.88
0.45
-0.07
-0.98
-2.46
-4.51
-6.93
-9.27
-11.12
-12.28
-12.92
-13.52
-14.67
-16.82
-20.11
-24.34
-29.11
-33.8
-37.77
-40.35
-40.97
-39.31
-35.41
-29.67
-22.83
-15.64
-8.85
-2.93
1.87
5.54
8.15
9.89
10.97
11.56
11.84
11.98
12.16
12.56
13.24
14.13
15.07
15.91
16.54
17.01
17.37
17.59
17.53
17.02
15.99
14.58
12.94
11.24
9.5
7.65
5.69
3.78
2.19
1.13
0.58
0.21
-0.44
-1.74
-3.78
-6.33
-9.05
-11.63
-13.98
-16.16
-18.29
-20.49
-22.79
-25.24
-27.9
-30.83
-34.11
-37.57
-40.78
-42.95
-43.2
-40.84
-35.69
-28.26
-19.56
-10.76
-2.76
3.94
9.25
13.2
15.87
17.29
17.59
17.12
16.45
16.15
16.56
17.68
19.12
20.42
21.17
21.18
20.55
19.5
18.31
17.24
16.38
15.68
14.94
13.86
12.32
10.35
8.21
6.24
4.7
3.64
2.89
2.18
1.28
0.15
-1.14
-2.41
-3.58
-4.63
-5.77
-7.25
-9.34
-12.23
-15.94
-20.24
-24.66
-28.52
-31.04
-31.58
-29.76
-25.61
-19.64
-12.6
-5.32
1.6
7.81
13.2
17.73
21.29
23.72
24.88
24.85
23.94
22.59
21.3
20.43
20.16
20.53
21.39
22.48
23.49
24.04
23.9
22.95
21.26
19.01
16.35
13.43
10.41
7.46
4.79
2.51
0.57
-1.23
-3.17
-5.47
-8.11
-10.98
-13.94
-16.97
-20.16
-23.69
-27.61
-31.75
-35.66
-38.7
-40.2
-39.64
-36.82
-31.92
-25.41
-17.97
-10.26
-2.83
3.88
9.55
13.94
16.93
18.53
18.96
18.59
17.75
16.73
15.7
14.82
14.27
14.23
14.8
15.88
17.11
18.03
18.2
17.37
15.53
12.86
9.66
6.25
2.99
0.16
-2.04
-3.65
-4.88
-6.04
-7.38
-8.95
-10.69
-12.44
-14.16
-15.92
-17.94
-20.39
-23.44
-27.12
-31.33
-35.81
-40.05
-43.32
-44.83
-43.91
-40.3
-34.19
-26.23
-17.29
-8.22
0.28
7.71
13.86
18.67
22.21
24.56
25.84
26.19
25.79
24.92
23.98
23.36
23.27
23.68
24.34
24.91
25.14
24.84
23.98
22.56
20.63
18.22
15.45
12.48
9.51
6.71
4.17
1.91
-0.1
-1.95
-3.78
-5.69
-7.71
-9.78
-11.74
-13.4
-14.67
-15.65
-16.6
-17.85
-19.72
-22.41
-25.82
-29.62
-33.18
-35.72
-36.49
-35.03
-31.31
-25.74
-19.03
-11.97
-5.13
1.11
6.54
11.05
14.56
17.0
18.4
18.96
19.03
19.05
19.46
20.49
22.16
24.17
26.07
27.4
27.82
27.25
25.81
23.78
21.45
19.08
16.83
14.78
12.92
11.12
9.2
6.95
4.29
1.31
-1.75
-4.61
-7.02
-8.96
-10.56
-12.0
-13.53
-15.34
-17.61
-20.44
-23.73
-27.12
-29.91
-31.23
-30.29
-26.72
-20.71
-12.96
-4.46
3.84
11.17
17.06
21.33
23.93
24.99
24.83
23.84
22.49
21.16
20.14
19.6
19.56
19.97
20.64
21.35
21.82
21.81
21.18
19.91
18.09
15.91
13.57
11.28
9.18
7.27
5.41
3.38
0.93
-2.06
-5.56
-9.34
-13.1
-16.57
-19.59
-22.17
-24.54
-26.96
-29.8
-33.3
-37.48
-42.08
-46.51
-49.9
-51.34
-50.08
-45.79
-38.7
-29.64
-19.76
-10.26
-2.04
4.48
9.34
12.84
15.32
17.01
17.99
18.35
18.29
18.09
18.06
18.4
19.16
20.23
21.39
22.5
23.42
24.07
24.37
24.27
23.64
22.37
20.37
17.69
14.49
11.09
7.81
4.91
2.5
0.46
-1.39
-3.28
-5.33
-7.58
-9.96
-12.33
-14.57
-16.58
-18.36
-20.07
-21.99
-24.41
-27.52
-31.23
-35.12
-38.5
-40.58
-40.59
-38.02
-32.76
-25.11
-15.84
-5.96
3.43
11.48
17.7
22.01
24.62
25.83
25.95
25.34
24.37
23.46
23.06
23.41
24.53
26.19
28.05
29.79
31.17
32.08
32.4
32.07
30.93
28.9
25.92
22.09
17.64
12.89
8.21
4.0
0.55
-2.0
-3.72
-4.85
-5.68
-6.5
-7.42
-8.51
-9.72
-11.02
-12.4
-13.84
-15.37
-17.04
-18.96
-21.3
-24.26
-27.92
-32.14
-36.37
-39.74
-41.22
-40.02
-35.88
-29.25
-21.18
-12.88
-5.41
0.7
5.42
9.03
11.83
13.98
15.45
16.21
16.29
15.87
15.26
14.79
14.69
15.11
16.0
17.2
18.42
19.36
19.76
19.56
18.87
17.86
16.69
15.4
13.9
12.16
10.19
8.15
6.25
4.64
3.25
1.91
0.34
-1.64
-4.07
-6.75
-9.35
-11.53
-13.11
-14.1
-14.77
-15.52
-16.76
-18.8
-21.77
-25.54
-29.76
-33.78
-36.78
-37.9
-36.47
-32.31
-25.73
-17.55
-8.77
-0.31
7.22
13.52
18.52
22.19
24.53
25.61
25.64
24.96
23.98
23.04
22.33
21.93
21.87
22.14
22.74
23.56
24.35
24.77
24.5
23.38
21.49
19.09
16.56
14.2
12.18
10.43
8.85
7.3
5.74
4.18
2.68
1.22
-0.35
-2.24
-4.68
-7.73
-11.35
-15.44
-19.93
-24.78
-29.9
-34.94
-39.25
-41.95
-42.21
-39.57
-34.13
-26.55
-17.87
-9.15
-1.22
5.42
10.64
14.49
17.07
18.5
18.91
18.5
17.6
16.63
15.95
15.72
15.83
15.99
15.89
15.38
14.51
13.41
12.26
11.08
9.78
8.29
6.57
4.66
2.65
0.72
-1.04
-2.5
-3.63
-4.45
-5.14
-5.93
-7.1
-8.82
-11.04
-13.6
-16.25
-18.81
-21.22
-23.62
-26.24
-29.3
-32.88
-36.82
-40.63
-43.59
-44.83
-43.67
-39.78
-33.34
-24.98
-15.62
-6.26
2.27
9.44
15.01
18.97
21.45
22.71
22.95
22.44
21.49
20.43
19.61
19.27
19.44
19.97
20.52
20.77
20.61
20.07
19.36
18.64
17.96
17.2
16.17
14.77
13.02
11.09
9.17
7.42
5.83
4.3
2.61
0.6
-1.77
-4.38
-6.99
-9.34
-11.26
-12.82
-14.19
-15.65
-17.46
-19.85
-22.94
-26.76
-31.18
-35.72
-39.55
-41.69
-41.21
-37.64
-31.18
-22.68
-13.33
-4.27
3.66
10.04
14.81
18.07
20.01
20.87
20.93
20.57
20.16
19.96
20.1
20.5
20.99
21.4
21.63
21.67
21.57
21.36
21.04
20.56
19.86
18.87
17.56
15.88
13.84
11.5
9.0
6.56
4.42
2.71
1.4
0.31
-0.83
-2.23
-3.89
-5.69
-7.47
-9.2
-11.02
-13.2
-16.0
-19.56
-23.74
-28.13
-32.11
-34.9
-35.8
-34.29
-30.28
-24.13
-16.59
-8.56
-0.81
6.12
11.94
16.57
19.95
22.09
23.07
23.15
22.66
22.04
21.6
21.55
21.93
22.68
23.62
24.51
25.09
25.13
24.5
23.16
21.18
18.63
15.6
12.18
8.57
5.02
1.77
-1.02
-3.41
-5.61
-7.89
-10.37
-13.01
-15.61
-17.96
-19.96
-21.73
-23.47
-25.44
-27.82
-30.72
-34.08
-37.65
-40.99
-43.5
-44.44
-43.24
-39.51
-33.32
-25.17
-15.88
-6.45
2.19
9.39
14.81
18.42
20.43
21.18
20.97
20.15
19.07
18.13
17.68
17.95
18.99
20.54
22.21
23.54
24.12
23.74
22.4
20.3
17.77
15.23
12.97
11.11
9.53
8.03
6.4
4.59
2.67
0.78
-1.0
-2.72
-4.49
-6.43
-8.52
-10.7
-12.83
-14.87
-16.85
-18.88
-21.1
-23.64
-26.67
-30.25
-34.37
-38.79
-43.04
-46.41
-48.2
-47.82
-45.06
-40.01
-33.15
-25.1
-16.54
-8.11
-0.36
6.37
11.91
16.27
19.56
21.93
23.53
24.45
24.81
24.78
24.59
24.51
24.68
25.17
25.86
26.5
26.81
26.57
25.71
24.33
22.59
20.65
18.6
16.46
14.33
12.32
10.63
9.36
8.45
7.68
6.71
5.27
3.27
0.82
-1.8
-4.29
-6.45
-8.29
-9.94
-11.66
-13.7
-16.27
-19.41
-22.91
-26.35
-29.07
-30.37
-29.67
-26.68
-21.54
-14.81
-7.27
0.24
7.04
12.72
17.13
20.23
22.11
22.93
22.89
22.29
21.45
20.67
20.18
20.12
20.52
21.35
22.4
23.35
23.79
23.32
21.78
19.26
16.14
12.86
9.8
7.09
4.67
2.39
0.16
-2.04
-4.14
-6.13
-8.06
-9.97
-11.89
-13.8
-15.71
-17.71
-20.03
-22.92
-26.53
-30.79
-35.39
-39.72
-43.01
-44.46
-43.41
-39.58
-33.17
-24.96
-16.02
-7.48
-0.15
5.62
9.87
12.87
14.89
16.13
16.8
17.09
17.24
17.41
17.61
17.71
17.52
16.93
15.99
14.86
13.79
12.93
12.32
11.88
11.39
10.56
9.15
7.04
4.32
1.25
-1.79
-4.55
-6.91
-8.95
-10.81
-12.68
-14.71
-16.98
-19.52
-22.3
-25.15
-27.87
-30.3
-32.4
-34.36
-36.39
-38.59
-40.72
-42.19
-42.24
-40.25
-35.97
-29.67
-21.96
-13.64
-5.43
2.21
8.99
14.85
19.74
23.59
26.25
27.67
27.87
27.14
25.89
24.68
23.9
23.72
24.06
24.67
25.27
25.67
25.77
25.55
24.95
23.89
22.3
20.19
17.66
14.95
12.27
9.82
7.7
5.87
4.2
2.59
0.89
-0.97
-3.03
-5.31
-7.8
-10.48
-13.27
-16.2
-19.24
-22.43
-25.74
-28.95
-31.56
-32.86
-32.14
-28.94
-23.33
-15.83
-7.38
1.13
8.98
15.75
21.16
25.01
27.13
27.47
26.29
24.13
21.71
19.66
18.34
17.77
17.72
17.88
18.0
17.91
17.52
16.79
15.68
14.15
12.21
9.92
7.44
4.98
2.77
0.92
-0.62
-2.09
-3.88
-6.24
-9.2
-12.54
-15.86
-18.83
-21.31
-23.4
-25.34
-27.38
-29.72
-32.53
-35.82
-39.47
-43.05
-45.83
-46.89
-45.46
-41.21
-34.42
-25.95
-16.95
-8.55
-1.52
3.83
7.6
10.15
11.83
12.9
13.46
13.58
13.38
13.12
13.15
13.77
15.03
16.73
18.41
19.65
20.18
20.05
19.46
18.67
17.85
16.96
15.92
14.67
13.2
11.62
10.06
8.63
7.31
6.01
4.57
2.77
0.54
-2.12
-5.02
-7.88
-10.46
-12.67
-14.6
-16.54
-18.86
-21.82
-25.43
-29.35
-32.88
-35.05
-34.94
-31.97
-26.05
-17.72
-7.93
2.2
11.71
19.93
26.52
31.39
34.55
36.06
36.11
34.98
33.06
30.86
28.83
27.28
26.35
26.0
26.04
26.18
26.13
25.68
24.73
23.28
21.38
19.17
16.71
14.11
11.49
8.92
6.45
4.01
1.54
-1.05
-3.77
-6.53
-9.23
-11.76
-14.14
-16.44
-18.85
-21.58
-24.82
-28.68
-33.16
-37.95
-42.41
-45.61
-46.59
-44.66
-39.68
-32.12
-22.92
-13.21
-3.97
4.1
10.62
15.52
18.85
20.81
21.63
21.58
20.91
19.92
18.88
18.05
17.63
17.7
18.12
18.58
18.76
18.44
17.64
16.55
15.37
14.27
13.21
12.05
10.62
8.88
6.88
4.77
2.7
0.74
-1.14
-3.03
-5.1
-7.42
-10.0
-12.69
-15.27
-17.57
-19.55
-21.42
-23.55
-26.35
-29.97
-34.18
-38.27
-41.31
-42.29
-40.58
-36.05
-29.15
-20.73
-11.79
-3.2
4.44
10.81
15.84
19.53
21.96
23.26
23.66
23.44
23.0
22.66
22.65
22.99
23.51
23.94
23.98
23.43
22.24
20.52
18.5
16.43
14.44
12.52
10.55
8.44
6.21
4.01
2.09
0.63
-0.4
-1.22
-2.16
-3.48
-5.26
-7.4
-9.71
-12.0
-14.19
-16.27
-18.28
-20.36
-22.65
-25.29
-28.39
-31.94
-35.73
-39.4
-42.32
-43.81
-43.21
-40.05
-34.31
-26.44
-17.31
-8.0
0.46
7.41
12.68
16.44
19.04
20.8
21.85
22.24
21.96
21.17
20.14
19.24
18.74
18.83
19.38
20.16
20.81
21.1
20.94
20.4
19.65
18.77
17.75
16.39
14.53
12.13
9.36
6.57
4.17
2.4
1.18
0.22
-0.84
-2.25
-3.99
-5.85
-7.6
-9.15
-10.59
-12.2
-14.27
-16.9
-19.99
-23.13
-25.69
-27.0
-26.51
-23.96
-19.49
-13.54
-6.76
0.21
6.81
12.64
17.4
20.89
23.08
24.07
24.1
23.48
22.49
21.36
20.29
19.4
18.81
18.53
18.44
18.32
17.92
17.03
15.6
13.75
11.59
9.27
6.81
4.24
1.59
-1.1
-3.77
-6.39
-8.96
-11.42
-13.74
-15.92
-17.98
-20.08
-22.4
-25.17
-28.49
-32.28
-36.26
-39.91
-42.59
-43.61
-42.45
-38.87
-33.1
-25.72
-17.55
-9.36
-1.74
4.98
10.63
15.11
18.36
20.34
21.17
21.14
20.63
19.97
19.33
18.66
17.84
16.76
15.42
13.91
12.34
10.76
9.12
7.3
5.18
2.73
0.07
-2.57
-4.92
-6.82
-8.22
-9.24
-10.07
-10.87
-11.77
-12.81
-14.03
-15.47
-17.2
-19.27
-21.72
-24.54
-27.71
-31.16
-34.76
-38.23
-41.13
-42.94
-43.08
-41.2
-37.19
-31.3
-24.07
-16.21
-8.43
-1.26
5.05
10.48
15.14
19.17
22.55
25.21
27.05
28.2
28.92
29.59
30.5
31.71
33.04
34.14
34.66
34.35
33.17
31.28
28.97
26.61
24.46
22.65
21.08
19.54
17.78
15.66
13.2
10.54
7.71
4.72
1.46
-2.12
-5.95
-9.86
-13.68
-17.34
-20.83
-24.11
-26.94
-28.85
-29.24
-27.63
-23.87
-18.17
-11.18
-3.74
3.27
9.16
13.48
16.17
17.46
17.73
17.4
16.79
16.08
15.41
14.9
14.74
15.02
15.74
16.69
17.59
18.14
18.16
17.58
16.46
14.83
12.74
10.2
7.32
4.3
1.39
-1.19
-3.36
-5.18
-6.82
-8.48
-10.24
-12.07
-13.89
-15.61
-17.18
-18.66
-20.11
-21.65
-23.43
-25.61
-28.37
-31.77
-35.51
-38.91
-41.01
-40.86
-37.93
-32.37
-25.0
-16.94
-9.25
-2.56
2.92
7.29
10.67
13.09
14.54
15.07
14.89
14.39
13.99
13.97
14.44
15.38
16.6
17.91
19.12
20.07
20.66
20.87
20.68
20.08
19.05
17.56
15.66
13.49
11.28
9.24
7.48
5.98
4.58
3.09
1.34
-0.71
-3.0
-5.39
-7.72
-9.87
-11.78
-13.49
-15.11
-16.78
-18.63
-20.73
-23.14
-25.83
-28.65
-31.33
-33.35
-34.09
-32.98
-29.72
-24.48
-17.88
-10.75
-3.86
2.24
7.31
11.33
14.3
16.23
17.18
17.29
16.84
16.17
15.65
15.51
15.88
16.72
17.86
19.06
20.03
20.54
20.48
19.86
18.82
17.5
16.0
14.4
12.72
11.01
9.33
7.78
6.44
5.37
4.55
3.88
3.17
2.19
0.8
-1.01
-3.08
-5.15
-7.01
-8.57
-9.97
-11.45
-13.29
-15.73
-18.88
-22.65
-26.68
-30.26
-32.44
-32.28
-29.19
-23.21
-15.1
-6.0
2.83
10.45
16.39
20.56
23.11
24.3
24.43
23.77
22.67
21.43
20.39
19.77
19.69
20.14
21.01
22.05
22.98
23.55
23.63
23.19
22.26
20.87
19.0
16.64
13.79
10.57
7.15
3.72
0.37
-2.91
-6.14
-9.35
-12.48
-15.37
-17.85
-19.78
-21.17
-22.21
-23.21
-24.58
-26.63
-29.57
-33.33
-37.63
-41.87
-45.29
-47.04
-46.38
-42.95
-36.87
-28.8
-19.78
-10.83
-2.77
4.04
9.6
14.05
17.46
19.8
21.04
21.27
20.78
20.04
19.56
19.59
20.14
20.94
21.61
21.88
21.68
21.1
20.3
19.41
18.41
17.2
15.64
13.67
11.32
8.76
6.22
3.93
2.04
0.63
-0.35
-1.08
-1.82
-2.82
-4.25
-6.18
-8.54
-11.21
-14.06
-17.05
-20.19
-23.58
-27.31
-31.47
-35.98
-40.53
-44.52
-47.08
-47.29
-44.46
-38.5
-30.05
-20.32
-10.66
-2.17
4.62
9.68
13.26
15.58
16.77
16.9
16.2
15.16
14.4
14.45
15.5
17.31
19.36
21.06
22.03
22.19
21.72
20.94
20.13
19.34
18.43
17.12
15.22
12.74
9.99
7.37
5.28
3.83
2.91
2.24
1.56
0.73
-0.25
-1.33
-2.5
-3.82
-5.43
-7.42
-9.89
-12.87
-16.4
-20.45
-24.95
-29.69
-34.29
-38.12
-40.4
-40.32
-37.32
-31.27
-22.68
-12.57
-2.23
7.17
14.87
20.67
24.71
27.35
28.86
29.38
29.03
28.0
26.7
25.61
25.2
25.7
27.01
28.76
30.42
31.49
31.66
30.89
29.29
27.09
24.48
21.52
18.19
14.46
10.43
6.38
2.57
-0.79
-3.66
-6.19
-8.58
-10.94
-13.25
-15.45
-17.49
-19.53
-21.94
-25.07
-29.11
-33.78
-38.29
-41.54
-42.44
-40.34
-35.27
-27.92
-19.38
-10.82
-3.11
3.25
8.13
11.61
13.86
15.06
15.42
15.17
14.62
14.09
13.85
13.98
14.4
14.92
15.32
15.44
15.3
14.97
14.55
14.03
13.3
12.16
10.51
8.31
5.73
3.05
0.53
-1.58
-3.16
-4.23
-4.91
-5.41
-5.95
-6.75
-7.9
-9.44
-11.38
-13.69
-16.4
-19.63
-23.44
-27.79
-32.39
-36.69
-39.97
-41.43
-40.47
-36.86
-30.83
-23.03
-14.4
-5.88
1.8
8.22
13.29
17.14
19.94
21.8
22.88
23.29
23.28
23.14
23.14
23.45
24.05
24.83
25.57
26.12
26.32
26.09
25.46
24.46
23.19
21.69
19.89
17.69
15.01
11.92
8.69
5.67
3.13
1.08
-0.75
-2.74
-5.2
-8.15
-11.32
-14.33
-16.81
-18.61
-19.8
-20.63
-21.44
-22.62
-24.49
-27.22
-30.71
-34.51
-37.8
-39.62
-39.12
-35.83
-29.9
-22.0
-13.15
-4.44
3.28
9.49
14.05
17.09
18.86
19.66
19.75
19.37
18.71
17.97
17.37
17.04
17.07
17.42
17.97
18.6
19.12
19.38
19.29
18.73
17.66
16.07
14.08
11.87
9.7
7.74
6.08
4.67
3.33
1.89
0.28
-1.49
-3.27
-4.95
-6.47
-7.92
-9.45
-11.29
-13.61
-16.53
-20.01
-23.78
-27.33
-29.9
-30.69
-29.04
-24.7
-18.01
-9.77
-1.05
7.09
13.97
19.26
22.99
25.38
26.65
27.0
26.53
25.36
23.69
21.84
20.11
18.76
17.88
17.35
16.99
16.53
15.86
14.91
13.73
12.38
10.89
9.25
7.43
5.42
3.29
1.15
-0.9
-2.79
-4.54
-6.27
-8.12
-10.16
-12.35
-14.57
-16.71
-18.73
-20.74
-22.94
-25.53
-28.62
-32.15
-35.91
-39.51
-42.42
-43.99
-43.58
-40.74
-35.4
-27.98
-19.33
-10.52
-2.41
4.39
9.73
13.67
16.39
18.04
18.8
18.88
18.56
18.2
18.12
18.45
19.13
19.97
20.62
20.77
20.26
19.16
17.75
16.33
15.17
14.22
13.22
11.85
9.93
7.53
4.99
2.73
0.96
-0.35
-1.42
-2.56
-3.97
-5.65
-7.47
-9.29
-10.96
-12.46
-13.85
-15.27
-16.87
-18.81
-21.24
-24.27
-27.93
-32.05
-36.18
-39.6
-41.37
-40.74
-37.34
-31.45
-23.84
-15.55
-7.51
-0.35
5.72
10.68
14.56
17.36
19.1
19.92
20.13
20.09
20.07
20.21
20.48
20.77
20.95
20.96
20.79
20.46
20.03
19.51
18.91
18.13
17.06
15.57
13.63
11.27
8.71
6.27
4.25
2.84
2.05
1.7
1.49
1.08
0.23
-1.2
-3.18
-5.64
-8.41
-11.29
-14.1
-16.73
-19.16
-21.45
-23.7
-25.92
-27.88
-29.17
-29.21
-27.57
-24.04
-18.77
-12.19
-4.9
2.46
9.36
15.32
20.04
23.35
25.29
26.04
25.9
25.12
24.0
22.76
21.66
20.94
20.77
21.13
21.71
22.11
21.9
20.88
19.1
16.8
14.31
11.78
9.28
6.74
4.2
1.73
-0.5
-2.41
-4.07
-5.69
-7.52
-9.69
-12.13
-14.65
-17.04
-19.18
-21.15
-23.17
-25.56
-28.58
-32.32
-36.62
-40.94
-44.48
-46.22
-45.33
-41.33
-34.38
-25.23
-15.02
-4.99
3.85
10.88
15.9
19.04
20.63
21.04
20.57
19.52
18.18
16.87
15.88
15.42
15.51
16.03
16.72
17.34
17.73
17.88
17.87
17.76
17.54
17.06
16.16
14.68
12.64
10.23
7.7
5.24
2.97
0.83
-1.32
-3.6
-6.04
-8.47
-10.71
-12.61
-14.17
-15.55
-16.96
-18.61
-20.66
-23.22
-26.38
-30.19
-34.47
-38.72
-42.13
-43.74
-42.76
-38.87
-32.39
-24.2
-15.46
-7.19
-0.11
5.56
9.95
13.38
16.14
18.39
20.15
21.38
22.08
22.32
22.28
22.14
22.03
22.01
22.06
22.14
22.19
22.12
21.83
21.19
20.1
18.55
16.69
14.74
12.9
11.35
10.15
9.27
8.62
8.03
7.29
6.14
4.42
2.08
-0.79
-3.97
-7.25
-10.53
-13.83
-17.28
-21.0
-24.93
-28.76
-31.9
-33.62
-33.23
-30.31
-24.9
-17.5
-9.01
-0.43
7.43
14.02
19.14
22.77
24.99
25.84
25.44
24.03
22.03
19.95
18.29
17.39
17.32
17.89
18.75
19.45
19.63
19.01
17.55
15.35
12.65
9.73
6.78
3.92
1.23
-1.24
-3.42
-5.32
-7.0
-8.63
-10.39
-12.36
-14.44
-16.44
-18.2
-19.79
-21.49
-23.75
-26.92
-31.05
-35.75
-40.27
-43.61
-44.83
-43.25
-38.68
-31.47
-22.48
-12.82
-3.56
4.49
10.93
15.63
18.72
20.32
20.64
19.95
18.63
17.18
16.08
15.69
16.12
17.17
18.49
19.63
20.3
20.38
19.95
19.1
17.95
16.52
14.78
12.76
10.62
8.56
6.74
5.22
3.81
2.26
0.29
-2.19
-5.07
-8.08
-10.89
-13.26
-15.1
-16.57
-17.94
-19.58
-21.89
-25.18
-29.52
-34.72
-40.15
-44.88
-47.75
-47.75
-44.36
-37.77
-28.85
-18.84
-8.96
-0.07
7.48
13.68
18.58
22.18
24.38
25.18
24.83
23.8
22.73
22.15
22.33
23.21
24.54
25.98
27.21
28.01
28.22
27.81
26.78
25.19
23.08
20.47
17.4
13.99
10.48
7.23
4.55
2.61
1.28
0.19
-1.09
-2.9
-5.32
-8.15
-11.06
-13.74
-16.1
-18.22
-20.35
-22.7
-25.39
-28.38
-31.57
-34.86
-38.12
-41.05
-43.13
-43.6
-41.61
-36.67
-28.86
-18.96
-8.18
2.16
11.1
18.19
23.43
27.06
29.33
30.42
30.43
29.58
28.18
26.72
25.65
25.31
25.77
26.79
27.94
28.8
29.09
28.81
28.11
27.14
25.91
24.27
22.1
19.46
16.62
14.0
11.92
10.49
9.59
8.98
8.47
7.89
7.08
5.74
3.44
-0.31
-5.82
-13.17
-22.1
-32.1
-42.43
-52.19
-60.37
-65.95
-68.05
-66.19
-60.47
-51.59
-40.72
-29.25
-18.36
-8.9
-1.17
4.85
9.38
12.62
14.76
15.96
16.48
16.7
17.03
17.77
19.01
20.55
22.05
23.21
23.83
23.92
23.5
22.63
21.3
19.51
17.28
14.73
12.01
9.22
6.41
3.6
0.76
-2.05
-4.8
-7.41
-9.84
-12.08
-14.13
-16.02
-17.79
-19.58
-21.59
-24.11
-27.39
-31.55
-36.39
-41.33
-45.42
-47.54
-46.71
-42.45
-35.0
-25.22
-14.46
-4.03
5.03
12.25
17.6
21.33
23.87
25.53
26.57
27.12
27.32
27.24
27.02
26.78
26.62
26.53
26.43
26.18
25.76
25.2
24.59
23.93
23.07
21.71
19.63
16.77
13.39
9.93
6.82
4.29
2.28
0.6
-1.03
-2.83
-4.92
-7.34
-10.07
-13.0
-15.94
-18.72
-21.23
-23.55
-25.95
-28.77
-32.31
-36.63
-41.42
-46.0
-49.45
-50.8
-49.31
-44.65
-37.03
-27.13
-15.97
-4.63
5.96
15.12
22.49
27.91
31.44
33.19
33.39
32.39
30.64
28.66
26.9
25.7
25.14
25.04
25.11
25.02
24.57
23.74
22.58
21.25
19.8
18.18
16.35
14.3
12.12
10.01
8.16
6.64
5.38
4.17
2.75
0.99
-1.1
-3.4
-5.68
-7.81
-9.78
-11.81
-14.23
-17.42
-21.51
-26.32
-31.26
-35.4
-37.73
-37.41
-34.01
-27.63
-18.93
-8.89
1.37
10.85
18.84
24.96
29.11
31.43
32.12
31.46
29.77
27.49
25.14
23.19
21.97
21.5
21.55
21.74
21.7
21.2
20.2
18.74
16.97
14.98
12.87
10.67
8.46
6.25
4.04
1.81
-0.45
-2.77
-5.21
-7.72
-10.27
-12.74
-15.02
-17.09
-19.04
-21.11
-23.62
-26.84
-30.87
-35.56
-40.43
-44.79
-47.76
-48.48
-46.29
-40.98
-32.91
-22.92
-12.17
-1.73
7.61
15.47
21.77
26.5
29.64
31.13
31.0
29.44
26.81
23.61
20.23
17.01
14.14
11.78
10.0
8.86
8.41
8.55
9.09
9.71
10.07
9.85
8.93
7.39
5.49
3.52
1.67
-0.03
-1.75
-3.62
-5.77
-8.25
-10.99
-13.97
-17.09
-20.26
-23.38
-26.35
-29.19
-32.03
-35.12
-38.62
-42.42
-46.05
-48.66
-49.24
-46.99
-41.55
-33.21
-22.87
-11.73
-0.98
8.57
16.54
22.88
27.65
30.85
32.44
32.46
31.12
28.9
26.43
24.25
22.71
21.97
21.94
22.46
23.27
24.04
24.43
24.21
23.32
21.91
20.22
18.45
16.67
14.84
12.9
10.88
8.88
7.01
5.3
3.67
1.91
-0.14
-2.62
-5.56
-8.92
-12.62
-16.58
-20.66
-24.61
-28.04
-30.36
-30.93
-29.22
-24.99
-18.48
-10.43
-1.87
6.2
13.07
18.48
22.44
25.11
26.6
26.93
26.15
24.53
22.49
20.61
19.37
18.95
19.24
19.91
20.49
20.59
19.96
18.51
16.29
13.45
10.2
6.75
3.31
0.06
-2.91
-5.62
-8.14
-10.6
-13.06
-15.48
-17.76
-19.76
-21.49
-23.12
-24.84
-26.89
-29.4
-32.34
-35.62
-38.97
-41.94
-43.93
-44.18
-42.02
-37.11
-29.65
-20.41
-10.48
-0.98
7.26
13.78
18.52
21.59
23.2
23.59
23.03
21.89
20.55
19.39
18.72
18.62
18.97
19.45
19.68
19.37
18.42
16.99
15.31
13.61
11.95
10.2
8.23
5.94
3.41
0.82
-1.64
-3.91
-6.06
-8.29
-10.81
-13.65
-16.71
-19.72
-22.4
-24.56
-26.25
-27.82
-29.75
-32.49
-36.28
-41.02
-46.3
-51.52
-55.98
-59.03
-60.1
-58.87
-55.35
-50.04
-43.73
-37.44
-32.04
-28.08
-25.73
-24.84
-25.12
-26.29
-28.09
-30.29
-32.58
-34.61
-35.98
-36.3
-35.23
-32.56
-28.21
-22.27
-14.91
-6.4
3.02
13.13
23.68
34.29
44.44
53.56
61.15
66.91
70.81
73.04
73.89
73.57
72.23
69.88
66.52
62.15
56.93
51.11
45.03
39.0
33.2
27.64
22.25
16.88
11.48
6.08
0.76
-4.46
-9.59
-14.59
-19.22
-22.96
-25.1
-25.0
-22.35
-17.32
-10.55
-2.95
4.56
11.24
16.67
20.7
23.4
24.95
25.53
25.34
24.6
23.56
22.53
21.8
21.62
22.02
22.85
23.78
24.46
24.64
24.23
23.28
21.92
20.26
18.43
16.58
14.83
13.28
11.9
10.57
9.06
7.22
4.98
2.42
-0.22
-2.78
-5.15
-7.35
-9.48
-11.7
-14.14
-16.94
-20.19
-23.95
-28.15
-32.44
-36.19
-38.52
-38.53
-35.67
-30.0
-22.27
-13.66
-5.46
1.47
6.78
10.62
13.29
15.06
15.98
16.05
15.36
14.17
12.96
12.19
12.16
12.86
13.97
15.06
15.72
15.75
15.22
14.34
13.37
12.41
11.43
10.22
8.61
6.55
4.16
1.69
-0.67
-2.83
-4.84
-6.83
-8.9
-11.1
-13.49
-16.07
-18.86
-21.84
-24.94
-28.11
-31.34
-34.69
-38.22
-41.93
-45.65
-48.97
-51.33
-52.12
-50.85
-47.32
-41.69
-34.47
-26.39
-18.23
-10.62
-3.9
1.81
6.52
10.26
13.02
14.79
15.64
15.82
15.75
15.85
16.45
17.64
19.26
21.07
22.71
23.92
24.56
24.58
24.04
23.04
21.68
20.04
18.15
16.01
13.67
11.21
8.7
6.24
3.92
1.74
-0.31
-2.32
-4.43
-6.75
-9.34
-12.15
-15.04
-17.81
-20.28
-22.38
-24.2
-25.97
-27.99
-30.45
-33.42
-36.59
-39.4
-41.1
-40.91
-38.31
-33.22
-26.06
-17.58
-8.67
-0.12
7.53
13.92
18.9
22.38
24.44
25.25
25.18
24.63
23.99
23.55
23.39
23.45
23.62
23.72
23.61
23.23
22.54
21.63
20.61
19.59
18.61
17.6
16.45
15.07
13.49
11.82
10.24
8.91
7.86
7.03
6.25
5.34
4.11
2.45
0.36
-2.15
-5.0
-8.12
-11.52
-15.21
-19.19
-23.36
-27.43
-30.91
-33.12
-33.36
-31.1
-26.22
-19.1
-10.6
-1.75
6.47
13.4
18.81
22.73
25.26
26.49
26.47
25.31
23.28
20.89
18.73
17.28
16.8
17.13
17.89
18.64
19.05
18.98
18.48
17.63
16.43
14.77
12.48
9.53
6.1
2.52
-0.72
-3.33
-5.23
-6.66
-8.0
-9.65
-11.82
-14.45
-17.29
-20.03
-22.42
-24.45
-26.29
-28.28
-30.77
-34.0
-37.99
-42.45
-46.73
-49.97
-51.22
-49.72
-45.19
-37.95
-28.84
-18.93
-9.28
-0.58
6.81
12.87
17.62
21.13
23.42
24.53
24.6
23.86
22.68
21.39
20.33
19.7
19.53
19.73
20.02
20.12
19.76
18.81
17.26
15.23
12.81
10.13
7.33
4.58
2.09
0.07
-1.38
-2.31
-2.92
-3.51
-4.35
-5.54
-7.03
-8.58
-9.97
-11.05
-11.94
-12.91
-14.4
-16.77
-20.21
-24.51
-29.16
-33.34
-36.1
-36.57
-34.2
-28.93
-21.25
-12.05
-2.51
6.35
13.81
19.62
23.81
26.63
28.34
29.11
29.04
28.27
27.03
25.61
24.37
23.63
23.57
24.14
25.07
25.91
26.24
25.77
24.51
22.7
20.72
18.9
17.39
16.1
14.79
13.19
11.17
8.73
6.06
3.37
0.89
-1.31
-3.28
-5.19
-7.26
-9.7
-12.69
-16.29
-20.49
-25.11
-29.74
-33.74
-36.25
-36.46
-33.91
-28.72
-21.57
-13.53
-5.73
0.98
6.22
9.98
12.46
13.92
14.62
14.79
14.68
14.56
14.67
15.17
16.09
17.33
18.69
19.87
20.57
20.54
19.72
18.18
16.13
13.78
11.28
8.71
6.09
3.45
0.78
-1.9
-4.64
-7.5
-10.53
-13.69
-16.88
-19.95
-22.76
-25.29
-27.6
-29.88
-32.35
-35.29
-38.94
-43.26
-47.94
-52.22
-55.08
-55.53
-52.88
-47.1
-38.74
-28.85
-18.55
-8.82
-0.24
7.02
12.98
17.76
21.44
24.06
25.68
26.44
26.62
26.51
26.38
26.36
26.45
26.53
26.5
26.27
25.82
25.12
24.12
22.77
21.09
19.15
17.14
15.28
13.69
12.39
11.3
10.24
9.06
7.66
6.05
4.21
2.21
0.14
-1.94
-3.99
-6.13
-8.55
-11.48
-14.99
-18.88
-22.66
