0
-10.71
-13.88
-17.36
-21.31
-25.73
-30.3
-34.32
-36.84
-37.01
-34.39
-29.13
-21.85
-13.44
-4.74
3.59
11.12
17.49
22.35
25.43
26.7
26.4
25.07
23.33
21.69
20.38
19.35
18.47
17.61
16.79
16.12
15.73
15.63
15.68
15.57
14.91
13.45
11.04
7.78
3.89
-0.36
-4.72
-9.03
-13.25
-17.43
-21.66
-25.98
-30.19
-33.82
-36.18
-36.53
-34.38
-29.66
-22.82
-14.63
-6.0
2.31
9.75
15.92
20.47
23.18
23.96
23.04
20.97
18.51
16.35
14.95
14.37
14.43
14.8
15.19
15.39
15.28
14.79
13.86
12.44
10.56
8.3
5.77
3.13
0.48
-2.09
-4.61
-7.24
-10.2
-13.72
-17.9
-22.58
-27.29
-31.29
-33.76
-34.04
-31.79
-27.11
-20.49
-12.68
-4.5
3.35
10.31
16.0
20.16
22.61
23.29
22.37
20.22
17.48
14.8
12.68
11.4
10.89
10.9
11.12
11.27
11.16
10.66
9.71
8.35
6.63
4.63
2.37
-0.22
-3.27
-6.89
-11.08
-15.7
-20.59
-25.51
-30.17
-34.15
-36.88
-37.7
-36.09
-31.81
-25.15
-16.73
-7.45
1.79
10.24
17.36
22.76
26.26
27.9
27.91
26.71
24.77
22.56
20.42
18.59
17.22
16.35
15.96
15.91
16.02
16.07
15.87
15.26
14.11
12.33
9.89
6.84
3.34
-0.43
-4.29
-8.2
-12.19
-16.4
-20.95
-25.78
-30.59
-34.8
-37.56
-38.02
-35.61
-30.24
-22.43
-13.16
-3.58
5.32
12.9
18.86
23.11
25.61
26.43
25.71
23.85
21.46
19.14
17.32
16.13
15.43
15.0
14.67
14.39
14.15
13.86
13.33
12.32
10.65
8.33
5.53
2.5
-0.6
-3.71
-6.92
-10.26
-13.76
-17.35
-21.03
-24.84
-28.79
-32.72
-36.21
-38.51
-38.81
-36.49
-31.4
-23.96
-14.99
-5.51
3.58
11.59
18.05
22.68
25.37
26.21
25.53
23.81
21.61
19.44
17.61
16.24
15.33
14.85
14.74
14.92
15.25
15.49
15.4
14.79
13.56
11.74
9.4
6.6
3.41
-0.07
-3.74
-7.5
-11.3
-15.17
-19.22
-23.45
-27.66
-31.32
-33.66
-33.87
-31.43
-26.31
-18.98
-10.31
-1.29
7.19
14.53
20.35
24.44
26.77
27.36
26.41
24.29
21.5
18.65
16.22
14.55
13.65
13.32
13.21
13.02
12.54
11.69
10.45
8.8
6.65
3.94
0.63
-3.18
-7.28
-11.41
-15.39
-19.13
-22.74
-26.47
-30.56
-35.08
-39.73
-43.84
-46.41
-46.5
-43.5
-37.48
-29.07
-19.28
-9.09
0.75
9.81
17.78
24.35
29.13
31.82
32.42
31.33
29.31
27.15
25.45
24.43
23.99
23.9
23.94
23.95
23.84
23.48
22.73
21.45
19.53
16.94
13.71
9.93
5.68
1.15
-3.45
-7.87
-11.95
-15.68
-19.16
-22.66
-26.41
-30.48
-34.71
-38.66
-41.64
-42.91
-41.78
-37.88
-31.27
-22.43
-12.19
-1.52
8.68
17.73
25.21
30.92
34.77
36.81
37.17
36.16
34.27
32.1
30.23
29.06
28.7
28.97
29.51
29.93
29.93
29.35
28.17
26.43
24.17
21.44
18.3
14.82
11.04
6.98
2.68
-1.82
-6.44
-10.99
-15.32
-19.3
-22.97
-26.48
-30.04
-33.86
-38.01
-42.27
-46.15
-48.9
-49.71
-47.87
-43.07
-35.52
-25.91
-15.25
-4.61
5.16
13.54
20.24
25.17
28.3
29.65
29.4
27.97
25.94
23.94
22.47
21.75
21.72
22.11
22.57
22.82
22.71
22.19
21.25
19.91
18.14
15.91
13.14
9.86
6.18
2.31
-1.48
-5.01
-8.21
-11.15
-13.92
-16.65
-19.44
-22.39
-25.63
-29.17
-32.79
-35.95
-37.81
-37.53
-34.56
-28.89
-21.09
-12.04
-2.7
6.17
14.04
20.54
25.41
28.43
29.54
28.86
26.81
23.98
21.0
18.46
16.76
16.01
16.05
16.54
17.08
17.32
17.06
16.22
14.75
12.63
9.81
6.33
2.32
-1.95
-6.17
-10.13
-13.76
-17.2
-20.65
-24.34
-28.34
-32.57
-36.71
-40.25
-42.51
-42.83
-40.72
-36.01
-28.94
-20.11
-10.31
-0.42
8.77
16.62
22.61
26.48
28.12
27.75
25.83
23.06
20.25
18.12
17.11
17.3
18.4
19.87
21.17
21.91
21.94
21.25
19.91
17.93
15.28
11.98
8.15
4.06
0.0
-3.82
-7.37
-10.75
-14.13
-17.69
-21.5
-25.59
-29.92
-34.33
-38.48
-41.8
-43.6
-43.16
-40.07
-34.32
-26.38
-17.09
-7.37
1.95
10.26
17.19
22.48
25.95
27.54
27.37
25.82
23.5
21.12
19.27
18.25
17.98
18.12
18.23
18.05
17.49
16.68
15.77
14.8
13.61
11.94
9.5
6.23
2.25
-2.08
-6.33
-10.17
-13.48
-16.33
-18.91
-21.48
-24.24
-27.35
-30.85
-34.7
-38.63
-42.12
-44.43
-44.77
-42.51
-37.43
-29.85
-20.51
-10.43
-0.59
8.25
15.58
21.1
24.66
26.24
26.02
24.43
22.08
19.61
17.56
16.17
15.47
15.29
15.43
15.75
16.07
16.21
15.93
15.03
13.4
11.08
8.25
5.1
1.79
-1.6
-5.02
-8.43
-11.76
-15.04
-18.38
-21.97
-25.93
-30.13
-34.06
-36.88
-37.7
-35.87
-31.23
-24.18
-15.52
-6.18
2.99
11.33
18.37
23.73
27.1
28.33
27.49
24.98
21.51
17.86
14.75
12.58
11.41
10.98
10.96
10.98
10.8
10.25
9.22
7.61
5.37
2.51
-0.85
-4.49
-8.18
-11.78
-15.29
-18.81
-22.59
-26.86
-31.72
-37.02
-42.27
-46.67
-49.26
-49.16
-45.86
-39.4
-30.37
-19.72
-8.53
2.22
11.83
19.82
25.9
29.94
31.92
32.0
30.53
28.01
25.04
22.21
19.96
18.53
17.93
17.96
18.3
18.62
18.65
18.2
17.17
15.48
13.15
10.18
6.68
2.77
-1.41
-5.7
-10.03
-14.33
-18.57
-22.82
-27.17
-31.71
-36.32
-40.54
-43.56
-44.38
-42.2
-36.77
-28.52
-18.46
-7.8
2.4
11.45
18.95
24.65
28.39
30.04
29.74
27.87
25.15
22.34
20.09
18.72
18.22
18.32
18.62
18.81
18.72
18.29
17.55
16.47
14.97
12.86
10.03
6.45
2.32
-2.06
-6.34
-10.26
-13.75
-16.9
-19.91
-23.04
-26.54
-30.52
-34.86
-39.11
-42.45
-43.93
-42.75
-38.54
-31.57
-22.61
-12.7
-2.81
6.33
14.23
20.54
24.96
27.25
27.38
25.62
22.6
19.13
16.02
13.83
12.76
12.69
13.28
14.18
15.1
15.87
16.3
16.27
15.56
13.99
11.48
8.13
4.22
0.16
-3.76
-7.39
-10.85
-14.41
-18.34
-22.73
-27.4
-31.88
-35.49
-37.51
-37.3
-34.51
-29.16
-21.65
-12.75
-3.35
5.64
13.54
19.94
24.59
27.39
28.35
27.58
25.4
22.3
18.88
15.68
13.08
11.25
10.21
9.86
10.05
10.53
10.95
10.91
10.12
8.43
5.93
2.82
-0.68
-4.42
-8.31
-12.24
-16.08
-19.8
-23.52
-27.51
-32.04
-37.16
-42.44
-47.01
-49.76
-49.72
-46.37
-39.79
-30.6
-19.72
-8.18
3.1
13.4
22.12
28.85
33.3
35.33
35.11
33.12
30.17
27.19
24.99
24.0
24.17
25.08
26.13
26.85
26.97
26.47
25.39
23.76
21.52
18.61
15.05
10.97
6.62
2.24
-1.96
-5.9
-9.63
-13.31
-17.15
-21.35
-26.0
-30.94
-35.73
-39.66
-41.83
-41.43
-38.01
-31.64
-22.94
-12.89
-2.54
7.22
15.8
22.87
28.23
31.75
33.37
33.18
31.55
29.07
26.4
24.1
22.45
21.45
20.92
20.62
20.42
20.25
20.11
19.89
19.38
18.27
16.25
13.14
9.03
4.23
-0.79
-5.51
-9.52
-12.69
-15.12
-17.17
-19.24
-21.74
-24.92
-28.79
-33.08
-37.19
-40.31
-41.55
-40.25
-36.08
-29.25
-20.4
-10.46
-0.41
8.92
16.9
23.15
27.44
29.72
30.07
28.81
26.48
23.74
21.24
19.4
18.39
18.05
18.08
18.2
18.27
18.27
18.23
18.06
17.51
16.29
14.21
11.29
7.72
3.83
-0.07
-3.81
-7.33
-10.68
-13.93
-17.18
-20.57
-24.17
-27.97
-31.73
-34.96
-36.95
-37.0
-34.57
-29.61
-22.52
-14.01
-4.99
3.78
11.73
18.5
23.77
27.3
28.91
28.59
26.68
23.82
20.86
18.54
17.28
17.05
17.53
18.23
18.76
18.95
18.75
18.18
17.16
15.56
13.18
10.0
6.16
1.91
-2.4
-6.55
-10.4
-13.94
-17.26
-20.49
-23.74
-27.16
-30.83
-34.78
-38.86
-42.67
-45.56
-46.79
-45.69
-41.95
-35.67
-27.43
-18.06
-8.42
0.8
9.18
16.53
22.69
27.5
30.76
32.37
32.43
31.25
29.35
27.3
25.59
24.52
24.19
24.46
25.03
25.48
25.44
24.69
23.17
21.06
18.6
15.94
13.13
10.09
6.77
3.2
-0.43
-3.87
-6.99
-9.8
-12.44
-15.14
-18.06
-21.31
-24.91
-28.81
-32.9
-36.84
-40.11
-42.04
-41.98
-39.52
-34.63
-27.72
-19.52
-10.8
-2.27
5.55
12.34
17.84
21.89
24.38
25.33
24.93
23.55
21.76
20.1
19.01
18.67
18.96
19.55
20.02
20.05
19.55
18.64
17.55
16.45
15.28
13.8
11.69
8.7
4.87
0.51
-3.91
-7.96
-11.37
-14.17
-16.56
-18.78
-21.09
-23.62
-26.44
-29.61
-33.12
-36.8
-40.22
-42.73
-43.54
-42.06
-38.05
-31.79
-23.97
-15.44
-6.97
0.9
7.84
13.65
18.12
21.01
22.24
21.92
20.43
18.37
16.31
14.64
13.53
12.9
12.62
12.54
12.62
12.81
13.06
13.21
13.05
12.35
10.93
8.75
5.88
2.51
-1.1
-4.67
-7.99
-10.9
-13.34
-15.37
-17.16
-18.95
-21.06
-23.77
-27.15
-30.96
-34.59
-37.23
-38.04
-36.49
-32.44
-26.23
-18.46
-9.85
-1.16
6.96
13.93
19.31
22.85
24.53
24.6
23.45
21.63
19.62
17.81
16.44
15.51
14.88
14.38
13.91
13.45
13.06
12.69
12.18
11.22
9.56
7.12
4.13
0.88
-2.37
-5.55
-8.79
-12.21
-15.82
-19.5
-23.14
-26.69
-30.21
-33.72
-37.01
-39.57
-40.7
-39.79
-36.48
-30.88
-23.46
-14.92
-6.02
2.53
10.11
16.28
20.81
23.59
24.7
24.36
22.92
20.85
18.72
16.99
15.97
15.64
15.77
15.98
15.95
15.53
14.75
13.68
12.36
10.69
8.59
6.0
3.03
-0.1
-3.19
-6.11
-8.93
-11.8
-14.86
-18.2
-21.81
-25.64
-29.54
-33.25
-36.37
-38.31
-38.42
-36.22
-31.55
-24.73
-16.47
-7.61
1.04
8.93
15.71
21.2
25.24
27.71
28.58
28.0
26.35
24.17
22.04
20.42
19.52
19.32
19.52
19.78
19.83
19.56
19.03
18.32
17.42
16.13
14.14
11.21
7.34
2.8
-1.89
-6.24
-9.98
-13.13
-15.95
-18.75
-21.79
-25.18
-28.88
-32.7
-36.33
-39.31
-41.07
-41.04
-38.77
-34.12
-27.36
-19.15
-10.37
-1.93
5.41
11.19
15.25
17.64
18.58
18.38
17.45
16.2
15.02
14.19
13.85
13.92
14.21
14.51
14.7
14.75
14.71
14.6
14.35
13.79
12.75
11.11
8.89
6.23
3.28
0.21
-2.82
-5.71
-8.4
-10.9
-13.31
-15.85
-18.7
-21.92
-25.28
-28.28
-30.25
-30.55
-28.81
-24.95
-19.3
-12.37
-4.79
2.83
9.92
15.95
20.49
23.19
23.91
22.79
20.31
17.13
13.99
11.46
9.82
9.06
8.96
9.24
9.69
10.13
10.39
10.27
9.55
8.15
6.12
3.65
1.01
-1.61
-4.17
-6.82
-9.76
-13.22
-17.28
-21.82
-26.41
-30.42
-33.02
-33.51
-31.51
-27.09
-20.82
-13.54
-6.09
0.91
7.1
12.27
16.31
19.06
20.43
20.38
19.09
16.93
14.39
11.96
10.05
8.85
8.31
8.18
8.12
7.81
7.07
5.92
4.45
2.78
0.93
-1.18
-3.62
-6.44
-9.64
-13.21
-17.18
-21.56
-26.24
-30.84
-34.66
-36.9
-36.8
-34.02
-28.68
-21.38
-13.01
-4.46
3.56
10.62
16.5
21.13
24.44
26.34
26.8
25.84
23.78
21.13
18.52
16.55
15.52
15.38
15.8
16.36
16.71
16.64
16.14
15.2
13.8
11.86
9.34
6.25
2.77
-0.93
-4.67
-8.4
-12.19
-16.13
-20.24
-24.31
-27.85
-30.2
-30.67
-28.81
-24.57
-18.33
-10.79
-2.73
5.15
12.32
18.38
22.97
25.78
26.66
25.69
23.26
20.05
16.78
14.09
12.38
11.74
12.01
12.86
13.89
14.66
14.88
14.4
13.22
11.47
9.29
6.75
3.85
0.66
-2.69
-6.0
-9.15
-12.15
-15.2
-18.58
-22.39
-26.38
-29.98
-32.37
-32.77
-30.76
-26.36
-20.02
-12.44
-4.41
3.36
10.24
15.8
19.76
22.01
22.64
21.89
20.13
17.81
15.41
13.36
11.97
11.38
11.47
11.99
12.56
12.85
12.64
11.82
10.39
8.41
5.93
3.02
-0.2
-3.58
-6.98
-10.3
-13.55
-16.79
-20.1
-23.41
-26.44
-28.69
-29.58
-28.61
-25.57
-20.62
-14.26
-7.17
0.01
6.71
12.53
17.1
20.09
21.3
20.76
18.82
16.13
13.39
11.19
9.76
9.03
8.75
8.61
8.44
8.11
7.59
6.81
5.74
4.33
2.57
0.43
-2.14
-5.2
-8.77
-12.81
-17.17
-21.58
-25.68
-29.01
-31.06
-31.36
-29.56
-25.63
-19.82
-12.7
-4.99
2.62
9.57
15.44
19.97
23.0
24.49
24.56
23.51
21.75
19.75
17.91
16.49
15.61
15.26
15.26
15.37
15.24
14.62
13.34
11.43
9.08
6.54
3.97
1.42
-1.19
-3.99
-7.1
-10.59
-14.4
-18.37
-22.16
-25.31
-27.27
-27.5
-25.7
-21.82
-16.14
-9.16
-1.57
5.97
12.75
18.19
21.88
23.72
23.84
22.72
20.91
18.96
17.29
16.13
15.55
15.47
15.67
15.88
15.87
15.44
14.54
13.23
11.57
9.62
7.4
4.91
2.2
-0.65
-3.54
-6.4
-9.26
-12.22
-15.35
-18.71
-22.25
-25.81
-29.05
-31.5
-32.62
-31.87
-28.99
-24.08
-17.64
-10.39
-3.13
3.53
9.22
13.78
17.15
19.29
20.24
20.08
19.09
17.63
16.14
14.94
14.17
13.79
13.62
13.48
13.23
12.88
12.45
11.97
11.3
10.26
8.59
6.12
2.91
-0.78
-4.54
-7.99
-10.9
-13.27
-15.3
-17.23
-19.32
-21.68
-24.36
-27.23
-30.07
-32.51
-34.07
-34.3
-32.83
-29.51
-24.45
-18.02
-10.78
-3.45
3.27
8.7
12.39
14.19
14.35
13.38
11.91
10.48
9.42
8.83
8.66
8.82
9.18
9.64
10.0
10.1
9.76
8.93
7.65
6.07
4.29
2.38
0.29
-2.03
-4.58
-7.31
-10.06
-12.65
-14.96
-16.93
-18.62
-20.17
-21.82
-23.81
-26.26
-29.07
-31.87
-34.06
-34.97
-34.13
-31.32
-26.72
-20.72
-13.86
-6.65
0.38
6.73
11.89
15.48
17.29
17.48
16.45
14.81
13.11
11.77
10.93
10.6
10.67
11.1
11.8
12.72
13.69
14.44
14.59
13.82
12.01
9.3
6.11
2.93
0.14
-2.09
-3.88
-5.51
-7.31
-9.54
-12.37
-15.84
-19.81
-23.87
-27.39
-29.58
-29.72
-27.46
-22.87
-16.5
-9.21
-1.83
4.94
10.63
14.99
17.98
19.59
19.93
19.17
17.58
15.53
13.39
11.5
10.08
9.21
8.8
8.71
8.75
8.76
8.63
8.22
7.36
5.88
3.66
0.7
-2.78
-6.48
-10.08
-13.4
-16.47
-19.46
-22.62
-26.13
-30.0
-33.96
-37.54
-40.15
-41.17
-40.14
-36.82
-31.32
-24.02
-15.58
-6.76
1.67
9.05
14.96
19.19
21.78
22.95
23.08
22.53
21.6
20.56
19.58
18.84
18.43
18.38
18.58
18.86
18.99
18.81
18.22
17.19
15.67
13.61
10.97
7.81
4.3
0.63
-2.98
-6.45
-9.77
-13.01
-16.24
-19.59
-23.13
-26.86
-30.6
-33.9
-36.1
-36.51
-34.65
-30.46
-24.31
-16.82
-8.69
-0.52
7.21
14.12
19.82
23.98
26.4
27.11
26.35
24.61
22.43
20.33
18.68
17.68
17.32
17.49
17.99
18.59
19.07
19.2
18.77
17.61
15.63
12.85
9.46
5.71
1.88
-1.8
-5.13
-8.0
-10.44
-12.57
-14.63
-16.93
-19.75
-23.24
-27.32
-31.64
-35.6
-38.45
-39.49
-38.23
-34.51
-28.58
-20.99
-12.51
-3.94
4.04
10.95
16.52
20.58
23.1
24.11
23.79
22.46
20.57
18.62
17.05
16.1
15.84
16.18
16.94
17.97
19.08
20.09
20.75
20.77
19.91
18.04
15.25
11.79
8.05
4.4
1.13
-1.61
-3.9
-5.99
-8.21
-10.89
-14.19
-18.02
-22.0
-25.47
-27.65
-27.85
-25.64
-21.03
-14.43
-6.61
1.53
9.2
15.79
21.0
24.67
26.76
27.26
26.28
24.13
21.31
18.44
16.09
14.58
13.91
13.84
14.08
14.37
14.56
14.56
14.27
13.48
12.03
9.83
6.95
3.59
0.01
-3.62
-7.23
-10.88
-14.66
-18.64
-22.84
-27.18
-31.49
-35.45
-38.57
-40.27
-39.97
-37.26
-32.08
-24.74
-15.93
-6.53
2.57
10.64
17.2
22.02
25.1
26.56
26.7
25.89
24.54
23.08
21.85
21.04
20.71
20.77
21.04
21.33
21.49
21.39
20.95
20.11
18.77
16.84
14.25
10.98
7.19
3.14
-0.81
-4.36
-7.39
-10.0
-12.51
-15.24
-18.44
-22.12
-26.02
-29.64
-32.32
-33.38
-32.32
-28.87
-23.18
-15.77
-7.42
1.01
8.74
15.25
20.24
23.61
25.4
25.76
24.92
23.24
21.12
19.0
17.22
15.99
15.4
15.36
15.68
16.08
16.3
16.16
15.56
14.49
12.97
10.98
8.49
5.48
2.05
-1.58
-5.11
-8.29
-11.05
-13.54
-16.04
-18.87
-22.2
-25.99
-29.97
-33.63
-36.41
-37.68
-37.02
-34.28
-29.64
-23.55
-16.56
-9.24
-2.04
4.65
10.47
15.05
18.11
19.57
19.56
18.49
16.81
14.98
13.33
12.08
11.35
11.16
11.44
12.06
12.78
13.4
13.7
13.55
12.87
11.62
9.82
7.59
5.11
2.59
0.18
-2.09
-4.38
-6.91
-9.91
-13.43
-17.26
-20.92
-23.76
-25.11
-24.48
-21.7
-17.05
-11.09
-4.54
1.96
7.95
13.15
17.41
20.55
22.41
22.87
21.99
20.05
17.44
14.63
12.03
9.93
8.43
7.55
7.19
7.13
7.08
6.76
5.99
4.68
2.86
0.59
-2.07
-5.11
-8.48
-12.1
-15.89
-19.78
-23.76
-27.74
-31.58
-34.89
-37.15
-37.73
-36.15
-32.24
-26.15
-18.4
-9.74
-0.99
7.05
13.73
18.67
21.73
23.02
22.83
21.55
19.61
17.43
15.42
13.9
13.09
12.96
13.31
13.82
14.13
13.96
13.19
11.82
9.97
7.74
5.2
2.38
-0.71
-4.06
-7.59
-11.19
-14.79
-18.4
-22.13
-26.0
-29.86
-33.24
-35.41
-35.6
-33.3
-28.47
-21.56
-13.36
-4.76
3.49
10.81
16.78
21.1
23.59
24.26
23.37
21.4
18.92
16.46
14.35
12.74
11.68
11.12
11.0
11.2
11.52
11.71
11.47
10.63
9.07
6.84
4.09
1.01
-2.23
-5.51
-8.76
-12.0
-15.23
-18.52
-21.91
-25.44
-29.07
-32.54
-35.38
-36.93
-36.5
-33.68
-28.5
-21.52
-13.64
-5.81
1.22
7.02
11.43
14.43
16.01
16.18
15.09
13.01
10.47
8.02
6.16
5.17
5.05
5.6
6.52
7.51
8.33
8.76
8.65
7.86
6.3
4.02
1.12
-2.14
-5.51
-8.8
-11.93
-15.04
-18.32
-21.98
-25.92
-29.75
-32.72
-34.0
-32.92
-29.27
-23.39
-15.97
-7.86
0.26
7.9
14.74
20.42
24.5
26.53
26.25
23.83
19.94
15.57
11.77
9.2
8.09
8.14
8.78
9.42
9.66
9.28
8.26
6.65
4.51
1.91
-1.08
-4.38
-7.95
-11.9
-16.38
-21.54
-27.28
-33.19
-38.5
-42.19
-43.35
-41.36
-36.14
-28.18
-18.41
-7.96
2.12
11.02
18.26
23.6
26.95
28.35
27.98
26.23
23.63
20.8
18.29
16.45
15.46
15.27
15.76
16.65
17.58
18.09
17.77
16.35
13.83
10.46
6.59
2.49
-1.71
-6.04
-10.58
-15.37
-20.34
-25.31
-30.02
-34.02
-36.73
-37.51
-35.78
-31.21
-23.95
-14.59
-4.08
6.48
16.15
24.17
30.13
33.88
35.5
35.25
33.56
31.0
28.2
25.74
24.01
23.14
22.99
23.29
23.73
24.12
24.33
24.27
23.77
22.58
20.44
17.26
13.18
8.55
3.81
-0.69
-4.77
-8.44
-11.85
-15.17
-18.61
-22.34
-26.4
-30.61
-34.46
-37.18
-37.9
-35.96
-31.17
-23.86
-14.8
-4.96
4.7
13.4
20.57
25.8
28.89
29.86
28.98
26.8
23.99
21.25
19.14
17.96
17.8
18.52
19.84
21.38
22.7
23.4
23.22
22.02
19.87
16.89
13.31
9.3
5.04
0.7
-3.56
-7.64
-11.55
-15.42
-19.44
-23.7
-28.08
-32.14
-35.2
-36.56
-35.65
-32.26
-26.59
-19.15
-10.64
-1.79
6.74
14.35
20.53
24.86
27.07
27.2
25.6
22.94
19.99
17.41
15.63
14.74
14.61
15.0
15.61
16.16
16.34
15.92
14.75
12.81
10.2
7.07
3.56
-0.24
-4.26
-8.47
-12.84
-17.38
-22.12
-27.05
-31.99
-36.45
-39.62
-40.69
-39.0
-34.4
-27.25
-18.34
-8.67
0.84
9.45
16.67
22.15
25.78
27.56
27.69
26.57
24.74
22.79
21.18
20.18
19.82
19.93
20.25
20.56
20.68
20.52
19.96
18.91
17.24
14.88
11.86
8.3
4.5
0.73
-2.79
-5.95
-8.82
-11.61
-14.58
-17.93
-21.67
-25.49
-28.81
-30.95
-31.27
-29.37
-25.23
-19.12
-11.5
-2.97
5.79
14.07
21.16
26.5
29.78
30.99
30.49
28.84
26.64
24.42
22.55
21.19
20.29
19.69
19.13
18.39
17.37
16.05
14.52
12.89
11.16
9.26
7.07
4.46
1.39
-2.1
-5.84
-9.63
-13.25
-16.52
-19.38
-21.9
-24.28
-26.78
-29.64
-32.94
-36.6
-40.32
-43.6
-45.85
-46.45
-44.9
-41.0
-34.95
-27.3
-18.86
-10.41
-2.56
4.33
10.09
14.63
17.8
19.51
19.82
19.05
17.72
16.44
15.61
15.32
15.4
15.54
15.54
15.38
15.17
14.97
14.7
14.06
12.74
10.52
7.44
3.8
0.03
-3.5
-6.58
-9.26
-11.74
-14.25
-16.94
-19.88
-23.05
-26.36
-29.67
-32.73
-35.09
-36.19
-35.51
-32.69
-27.77
-21.14
-13.47
-5.48
2.13
8.83
14.24
18.13
20.45
21.25
20.76
19.34
17.42
15.47
13.88
12.9
12.57
12.74
13.14
13.5
13.61
13.38
12.82
11.9
10.57
8.68
6.16
2.99
-0.71
-4.7
-8.68
-12.43
-15.82
-18.85
-21.63
-24.37
-27.31
-30.61
-34.34
-38.3
-42.03
-44.84
-45.93
-44.67
-40.75
-34.39
-26.19
-17.05
-7.84
0.76
8.37
14.78
19.86
23.48
25.56
26.13
25.47
24.05
22.47
21.24
20.68
20.82
21.44
22.25
22.9
23.14
22.85
22.05
20.82
19.26
17.45
15.38
13.0
10.25
7.1
3.64
0.03
-3.56
-6.98
-10.16
-13.08
-15.79
-18.39
-20.96
-23.65
-26.63
-29.95
-33.47
-36.76
-39.14
-39.84
-38.32
-34.39
-28.3
-20.63
-12.15
-3.54
4.57
11.7
17.42
21.39
23.45
23.75
22.72
21.03
19.36
18.2
17.77
17.97
18.57
19.3
19.94
20.39
20.59
20.52
20.11
19.26
17.92
16.05
13.63
10.73
7.41
3.83
0.18
-3.33
-6.5
-9.23
-11.57
-13.7
-15.86
-18.31
-21.19
-24.5
-28.09
-31.59
-34.43
-35.92
-35.42
-32.55
-27.34
-20.32
-12.31
-4.2
3.28
9.69
14.85
18.76
21.4
22.8
22.97
22.08
20.44
18.53
16.85
15.82
15.66
16.33
17.51
18.76
19.64
19.86
19.33
18.08
16.22
13.84
11.07
8.06
5.02
2.13
-0.52
-2.97
-5.39
-7.92
-10.58
-13.27
-15.78
-18.01
-20.06
-22.2
-24.76
-27.95
-31.71
-35.59
-38.88
-40.74
-40.45
-37.66
-32.46
-25.41
-17.29
-8.93
-0.97
6.16
12.24
17.12
20.7
22.92
23.81
23.58
22.57
21.18
19.78
18.66
18.04
18.0
18.49
19.33
20.21
20.82
20.95
20.59
19.88
18.95
17.82
16.34
14.29
11.58
8.28
4.7
1.14
-2.18
-5.23
-8.06
-10.75
-13.33
-15.8
-18.2
-20.65
-23.33
-26.36
-29.73
-33.14
-36.12
-38.02
-38.23
-36.35
-32.33
-26.57
-19.74
-12.61
-5.79
0.43
5.95
10.73
14.59
17.24
18.44
18.19
16.86
15.07
13.48
12.52
12.23
12.43
12.79
13.09
13.27
13.38
13.45
13.41
13.12
12.39
11.1
9.25
6.97
4.42
1.74
-0.96
-3.67
-6.36
-9.02
-11.61
-14.12
-16.58
-19.12
-21.83
-24.7
-27.51
-29.8
-31.0
-30.64
-28.46
-24.55
-19.23
-13.01
-6.39
0.18
6.29
11.55
15.63
18.28
19.45
19.3
18.1
16.2
13.94
11.62
9.56
8.03
7.28
7.32
7.94
8.78
9.39
9.47
8.92
7.77
6.11
4.02
1.59
-1.09
-3.84
-6.49
-8.98
-11.4
-14.01
-17.05
-20.64
-24.6
-28.5
-31.73
-33.64
-33.66
-31.49
-27.14
-21.01
-13.75
-6.17
1.01
7.25
12.25
15.91
18.25
19.33
19.29
18.29
16.56
14.44
12.28
10.44
9.23
8.78
8.97
9.54
10.1
10.34
10.07
9.25
7.95
6.19
3.98
1.29
-1.83
-5.22
-8.65
-11.97
-15.18
-18.49
-22.15
-26.24
-30.55
-34.48
-37.28
-38.19
-36.76
-32.94
-27.04
-19.7
-11.58
-3.39
4.25
10.84
15.98
19.45
21.21
21.45
20.53
18.94
17.13
15.5
14.24
13.4
12.92
12.71
12.72
12.92
13.27
13.66
13.86
13.62
12.75
11.16
8.93
6.23
3.24
0.07
-3.2
-6.57
-10.05
-13.71
-17.66
-21.99
-26.66
-31.38
-35.55
-38.33
-38.97
-37.0
-32.45
-25.83
-17.94
-9.62
-1.56
5.76
11.95
16.69
19.68
20.85
20.34
18.68
16.54
14.56
13.15
12.38
12.07
12.0
11.99
11.99
12.02
12.02
11.88
11.4
10.47
9.05
7.21
5.07
2.74
0.25
-2.41
-5.27
-8.29
-11.43
-14.67
-18.05
-21.72
-25.71
-29.83
-33.6
-36.27
-37.05
-35.48
-31.5
-25.55
-18.35
-10.65
-3.02
4.11
10.41
15.57
19.22
21.08
21.09
19.48
16.82
13.82
11.2
9.42
8.63
8.66
9.17
9.79
10.23
10.34
10.08
9.44
8.38
6.91
5.05
2.88
0.54
-1.89
-4.43
-7.22
-10.48
-14.34
-18.73
-23.25
-27.21
-29.75
-30.1
-27.85
-23.05
-16.2
-8.07
0.53
8.83
16.27
22.41
26.89
29.46
30.09
28.92
26.37
23.04
19.62
16.68
14.58
13.41
12.99
12.99
13.05
12.89
12.36
11.39
9.99
8.12
5.75
2.85
-0.56
-4.4
-8.62
-13.19
-18.16
-23.55
-29.18
-34.62
-39.14
-41.89
-42.14
-39.49
-33.98
-26.1
-16.62
-6.47
3.47
12.49
20.06
25.84
29.66
31.48
31.43
29.86
27.29
24.33
21.53
19.28
17.72
16.83
16.51
16.63
17.08
17.68
18.15
18.15
17.38
15.7
13.18
10.01
6.41
2.53
-1.51
-5.63
-9.74
-13.82
-17.94
-22.26
-26.88
-31.68
-36.15
-39.47
-40.74
-39.21
-34.64
-27.3
-17.96
-7.65
2.58
11.86
19.6
25.42
29.1
30.54
29.81
27.21
23.4
19.3
15.88
13.86
13.42
14.24
15.66
17.08
18.1
18.65
18.78
18.47
17.54
15.81
13.18
9.81
6.05
2.29
-1.24
-4.53
-7.69
-10.88
-14.16
-17.6
-21.26
-25.27
-29.67
-34.27
-38.51
-41.49
-42.2
-39.85
-34.24
-25.79
-15.48
-4.54
5.85
14.79
21.76
26.52
29.07
29.58
28.35
25.81
22.55
19.18
16.26
14.24
13.29
13.38
14.25
15.53
16.84
17.8
18.15
17.68
16.28
13.94
10.77
6.96
2.72
-1.66
-5.93
-9.93
-13.62
-17.15
-20.8
-24.86
-29.39
-34.04
-38.05
-40.35
-39.92
-36.16
-29.08
-19.37
-8.18
3.22
13.76
22.67
29.55
34.18
36.52
36.6
34.68
31.24
27.02
22.87
19.52
17.39
16.56
16.77
17.58
18.56
19.3
19.44
18.69
16.87
13.99
10.23
5.93
1.44
-2.99
-7.3
-11.51
-15.75
-20.13
-24.81
-29.94
-35.5
-41.22
-46.34
-49.76
-50.27
-46.96
-39.64
-28.96
-16.22
-2.96
9.38
19.89
28.14
34.04
37.68
39.19
38.75
36.7
33.62
30.28
27.46
25.68
25.04
25.26
25.8
26.19
26.18
25.8
25.18
24.4
23.3
21.6
18.98
15.29
10.64
5.4
0.09
-4.84
-9.12
-12.72
-15.86
-18.87
-22.14
-25.98
-30.52
-35.62
-40.78
-45.13
-47.61
-47.22
-43.32
-35.89
-25.54
-13.37
-0.67
11.41
22.0
30.48
36.45
39.68
40.16
38.25
34.74
30.68
27.15
24.9
24.18
24.68
25.77
26.8
27.3
27.11
26.36
25.24
23.9
22.37
20.52
18.15
15.09
11.29
6.91
2.17
-2.59
-7.02
-10.95
-14.34
-17.35
-20.22
-23.23
-26.57
-30.37
-34.59
-38.99
-43.09
-46.16
-47.35
-45.86
-41.23
-33.55
-23.47
-12.13
-0.74
9.6
18.15
24.56
28.65
30.45
30.1
28.0
24.78
21.29
18.39
16.67
16.33
17.12
18.52
19.93
20.84
21.02
20.46
19.33
17.76
15.85
13.55
10.79
7.53
3.92
0.21
-3.3
-6.4
-9.07
-11.47
-13.86
-16.51
-19.61
-23.25
-27.34
-31.55
-35.3
-37.8
-38.24
-36.07
-31.14
-23.81
-14.8
-5.04
4.62
13.46
20.96
26.7
30.42
31.97
31.41
29.06
25.47
21.42
17.73
15.06
13.71
13.56
14.15
14.88
15.32
15.26
14.78
13.94
12.73
10.95
8.39
4.98
0.95
-3.25
-7.17
-10.51
-13.34
-15.92
-18.57
-21.53
-24.9
-28.69
-32.79
-37.02
-40.94
-43.9
-45.05
-43.6
-39.13
-31.79
-22.36
-11.96
-1.79
7.29
14.83
20.78
25.21
28.17
29.55
29.32
27.62
24.92
21.99
19.59
18.21
17.89
18.26
18.79
19.11
19.12
18.93
18.66
18.27
17.48
15.95
13.48
10.12
6.21
2.19
-1.57
-4.88
-7.75
-10.34
-12.85
-15.47
-18.33
-21.56
-25.24
-29.35
-33.65
-37.6
-40.4
-41.21
-39.42
-34.9
-28.07
-19.72
-10.76
-1.92
6.28
13.52
19.45
23.73
26.01
26.22
24.66
21.98
18.99
16.43
14.71
13.95
13.98
14.47
15.11
15.61
15.8
15.6
15.05
14.21
13.07
11.63
9.77
7.41
4.51
1.12
-2.6
-6.46
-10.22
-13.69
-16.73
-19.32
-21.56
-23.69
-26.02
-28.75
-31.97
-35.53
-39.05
-42.03
-43.8
-43.72
-41.27
-36.28
-29.03
-20.27
-10.97
-2.08
5.68
11.94
16.59
19.61
21.03
21.02
19.87
18.1
16.29
14.89
14.04
13.67
13.52
13.4
13.25
13.1
13.0
12.92
12.73
12.24
11.28
9.74
7.61
4.98
1.99
-1.17
-4.33
-7.35
-10.17
-12.78
-15.19
-17.49
-19.83
-22.39
-25.31
-28.47
-31.46
-33.6
-34.15
-32.59
-28.83
-23.19
-16.23
-8.61
-0.88
6.45
12.92
18.08
21.54
23.13
22.97
21.5
19.28
16.89
14.73
13.02
11.82
11.09
10.76
10.72
10.81
10.88
10.77
10.33
9.43
7.94
5.8
3.01
-0.34
-4.07
-7.94
-11.75
-15.37
-18.74
-21.91
-24.99
-28.18
-31.6
-35.29
-39.04
-42.39
-44.64
-45.09
-43.18
-38.78
-32.13
-23.89
-14.89
-5.99
2.13
9.01
14.43
18.36
20.82
21.9
21.73
20.56
18.78
16.89
15.36
14.48
14.28
14.58
15.12
15.67
16.14
16.46
16.51
16.05
14.81
12.66
9.67
6.16
2.53
-0.87
-3.9
-6.6
-9.09
-11.54
-14.05
-16.71
-19.6
-22.78
-26.2
-29.66
-32.7
-34.7
-34.99
-33.07
-28.82
-22.59
-15.09
-7.17
0.35
6.96
12.4
16.54
19.36
20.84
21.04
20.18
18.66
16.95
15.47
14.45
13.87
13.58
13.41
13.29
13.29
13.48
13.85
14.23
14.3
13.66
12.06
9.45
6.04
2.19
-1.69
-5.29
-8.45
-11.16
-13.57
-15.83
-18.15
-20.71
-23.63
-26.88
-30.22
-33.15
-34.97
-34.97
-32.7
-28.11
-21.64
-14.01
-6.07
1.46
8.07
13.46
17.38
19.67
20.29
19.38
17.42
15.04
12.88
11.39
10.67
10.58
10.87
11.32
11.81
12.27
12.63
12.72
12.39
11.49
9.91
7.71
4.98
1.89
-1.36
-4.58
-7.66
-10.59
-13.47
-16.5
-19.8
-23.32
-26.76
-29.66
-31.47
-31.74
-30.21
-26.86
-21.87
-15.65
-8.7
-1.57
5.2
11.19
16.02
19.41
21.21
21.42
20.24
18.1
15.53
13.08
11.16
9.94
9.42
9.47
9.88
10.45
10.94
11.06
10.54
9.18
6.94
3.94
0.42
-3.35
-7.1
-10.64
-13.92
-16.95
-19.88
-22.94
-26.31
-30.06
-33.96
-37.49
-39.91
-40.46
-38.53
-33.95
-27.02
-18.47
-9.24
-0.25
7.75
