0
-59.74
-58.71
-54.25
-46.6
-36.5
-24.99
-13.21
-2.08
7.69
15.7
21.72
25.69
27.71
28.06
27.18
25.64
23.97
22.71
22.18
22.56
23.81
25.73
27.98
30.22
32.18
33.69
34.67
35.09
34.91
34.09
32.66
30.71
28.37
25.76
22.87
19.64
15.93
11.75
7.17
2.4
-2.34
-6.86
-11.05
-14.88
-18.46
-22.04
-25.98
-30.67
-36.26
-42.49
-48.6
-53.44
-55.83
-54.88
-50.28
-42.36
-32.01
-20.39
-8.7
2.03
11.12
18.19
23.21
26.33
27.86
28.2
27.74
26.88
25.99
25.39
25.32
25.87
26.96
28.39
29.84
31.04
31.81
32.16
32.2
32.05
31.73
31.16
30.08
28.3
25.73
22.54
18.98
15.37
11.86
8.45
5.02
1.46
-2.28
-6.08
-9.77
-13.18
-16.26
-19.04
-21.7
-24.43
-27.46
-31.0
-35.21
-40.19
-45.86
-51.84
-57.43
-61.63
-63.35
-61.73
-56.38
-47.59
-36.22
-23.49
-10.72
1.0
10.87
18.48
23.65
26.47
27.24
26.44
24.71
22.73
21.06
20.09
19.94
20.55
21.72
23.22
24.88
26.55
28.1
29.43
30.37
30.78
30.56
29.66
28.1
25.99
23.45
20.6
17.55
14.36
11.04
7.63
4.12
0.53
-3.05
-6.5
-9.69
-12.48
-14.84
-16.83
-18.65
-20.54
-22.81
-25.73
-29.36
-33.53
-37.72
-41.14
-42.85
-42.07
-38.39
-31.92
-23.3
-13.45
-3.39
6.0
14.09
20.47
24.92
27.45
28.2
27.53
25.89
23.84
21.87
20.46
19.89
20.28
21.5
23.24
25.1
26.72
27.88
28.56
28.83
28.72
28.13
26.92
24.95
22.28
19.13
15.84
12.6
9.43
6.18
2.69
-1.13
-5.17
-9.26
-13.25
-17.04
-20.59
-23.84
-26.75
-29.31
-31.75
-34.5
-38.09
-42.89
-48.82
-55.21
-60.95
-64.74
-65.56
-62.86
-56.74
-47.78
-36.97
-25.35
-13.96
-3.62
5.05
11.72
16.26
18.83
19.74
19.48
18.64
17.78
17.34
17.59
18.58
20.17
22.13
24.19
26.12
27.78
29.05
29.93
30.45
30.61
30.44
29.88
28.79
27.08
24.71
21.76
18.42
14.94
11.54
8.31
5.23
2.15
-1.08
-4.53
-8.19
-11.91
-15.49
-18.79
-21.75
-24.44
-27.09
-30.0
-33.51
-37.86
-43.02
-48.66
-54.1
-58.39
-60.52
-59.68
-55.48
-48.11
-38.24
-26.9
-15.21
-4.14
5.58
13.5
19.47
23.5
25.79
26.64
26.47
25.79
25.04
24.6
24.64
25.14
25.98
27.03
28.21
29.45
30.72
31.9
32.86
33.42
33.46
32.94
31.85
30.2
28.03
25.34
22.24
18.84
15.34
11.91
8.7
5.72
2.93
0.16
-2.71
-5.82
-9.17
-12.68
-16.16
-19.42
-22.38
-25.06
-27.65
-30.42
-33.74
-37.85
-42.84
-48.48
-54.12
-58.81
-61.47
-61.24
-57.78
-51.34
-42.71
-32.88
-22.78
-13.13
-4.39
3.09
9.01
13.14
15.41
16.02
15.4
14.13
12.75
11.64
10.99
10.84
11.18
12.01
13.31
15.03
17.05
19.16
21.15
22.83
24.1
24.9
25.23
25.06
24.28
22.83
20.67
17.88
14.65
11.24
7.88
4.69
1.72
-1.07
-3.69
-6.15
-8.48
-10.75
-13.13
-15.91
-19.37
-23.58
-28.3
-32.9
-36.47
-38.07
-37.06
-33.25
-27.0
-19.06
-10.34
-1.69
6.25
13.01
18.33
22.01
24.02
24.46
23.59
21.84
19.7
17.69
16.24
15.62
15.89
16.94
18.51
20.32
22.08
23.56
24.63
25.17
25.08
24.3
22.85
20.79
18.32
15.63
12.95
10.38
7.93
5.41
2.6
-0.73
-4.66
-9.07
-13.65
-18.01
-21.79
-24.88
-27.39
-29.71
-32.36
-35.85
-40.51
-46.31
-52.79
-59.01
-63.73
-65.73
-64.12
-58.68
-49.94
-39.02
-27.21
-15.72
-5.37
3.37
10.35
15.53
18.99
20.93
21.69
21.7
21.45
21.3
21.5
22.14
23.24
24.72
26.49
28.39
30.26
31.97
33.39
34.5
35.23
35.5
35.21
34.22
32.53
30.18
27.37
24.32
21.26
18.3
15.49
12.71
9.77
6.51
2.81
-1.25
-5.5
-9.68
-13.63
-17.3
-20.78
-24.26
-27.96
-32.1
-36.92
-42.51
-48.71
-54.94
-60.21
-63.27
-63.04
-58.98
-51.3
-40.9
-29.07
-17.03
-5.78
4.08
12.18
18.3
22.32
24.31
24.51
23.44
21.76
20.15
19.12
18.95
19.67
21.08
22.9
24.81
26.58
28.06
29.13
29.7
29.7
29.05
27.82
26.15
24.19
22.11
19.96
17.7
15.26
12.62
9.82
6.93
4.03
1.21
-1.42
-3.72
-5.61
-7.2
-8.81
-10.97
-14.18
-18.68
-24.25
-30.16
-35.39
-38.85
-39.62
-37.23
-31.74
-23.71
-14.11
-4.08
5.31
13.32
19.62
24.18
27.16
28.73
29.05
28.33
26.87
25.11
23.55
22.61
22.51
23.2
24.41
25.81
27.1
28.11
28.82
29.26
29.43
29.27
28.61
27.27
25.15
22.3
18.95
15.44
12.08
9.07
6.36
3.73
0.92
-2.29
-5.95
-9.9
-13.88
-17.59
-20.83
-23.59
-26.03
-28.49
-31.39
-35.15
-39.98
-45.72
-51.73
-57.0
-60.31
-60.67
-57.58
-51.15
-42.08
-31.38
-20.13
-9.25
0.54
8.78
15.18
19.66
22.31
23.42
23.47
22.98
22.44
22.21
22.47
23.21
24.37
25.87
27.61
29.49
31.33
32.95
34.17
34.89
35.08
34.78
34.07
32.97
31.42
29.39
26.89
24.06
21.13
18.36
15.92
13.79
11.76
9.57
6.96
3.84
0.28
-3.49
-7.26
-10.87
-14.29
-17.65
-21.17
-25.07
-29.56
-34.71
-40.42
-46.31
-51.79
-56.02
-58.1
-57.28
-53.19
-45.98
-36.41
-25.66
-14.97
-5.39
2.47
8.49
12.77
15.54
16.95
17.16
16.38
14.98
13.45
12.3
11.87
12.27
13.39
14.99
16.81
18.61
20.24
21.55
22.42
22.75
22.48
21.62
20.24
18.47
16.51
14.6
12.84
11.24
9.67
7.91
5.8
3.33
0.63
-2.07
-4.56
-6.78
-8.79
-10.86
-13.29
-16.39
-20.32
-25.0
-30.06
-34.77
-38.18
-39.37
-37.74
-33.21
-26.23
-17.7
-8.66
-0.08
7.31
13.08
17.06
19.32
20.1
19.8
18.82
17.58
16.38
15.45
14.93
14.91
15.42
16.4
17.7
19.13
20.46
21.51
22.18
22.39
22.08
21.23
19.78
17.75
15.22
12.33
9.3
6.33
3.58
1.1
-1.23
-3.63
-6.33
-9.5
-13.05
-16.76
-20.27
-23.3
-25.77
-27.83
-29.83
-32.19
-35.29
-39.35
-44.31
-49.82
-55.17
-59.43
-61.56
-60.73
-56.53
-49.18
-39.48
-28.62
-17.87
-8.27
-0.41
5.56
9.8
12.6
14.21
14.8
14.58
13.89
13.18
12.96
13.55
15.0
17.04
19.25
21.27
22.91
24.17
25.16
25.92
26.43
26.61
26.39
25.72
24.58
22.96
20.85
18.33
15.57
12.77
10.16
7.77
5.52
3.21
0.67
-2.18
-5.25
-8.39
-11.44
-14.27
-16.9
-19.38
-21.85
-24.5
-27.6
-31.49
-36.41
-42.37
-48.96
-55.33
-60.32
-62.73
-61.72
-57.02
-49.05
-38.83
-27.59
-16.52
-6.53
1.85
8.42
13.18
16.23
17.73
17.92
17.19
16.04
15.02
14.55
14.87
15.96
17.65
19.71
21.93
24.18
26.31
28.17
29.56
30.3
30.28
29.48
27.95
25.8
23.15
20.13
16.93
13.74
10.72
7.94
5.34
2.83
0.28
-2.31
-4.89
-7.35
-9.57
-11.49
-13.15
-14.74
-16.56
-18.93
-22.12
-26.15
-30.69
-35.05
-38.37
-39.76
-38.65
-34.83
-28.54
-20.39
-11.15
-1.68
7.24
14.96
21.0
25.1
27.2
27.47
26.25
24.08
21.59
19.39
17.96
17.53
18.04
19.24
20.81
22.49
24.11
25.57
26.81
27.72
28.17
28.05
27.22
25.62
23.26
20.24
16.76
13.13
9.6
6.3
3.18
0.04
-3.34
-7.05
-11.02
-15.04
-18.86
-22.29
-25.32
-28.07
-30.8
-33.87
-37.65
-42.46
-48.32
-54.85
-61.24
-66.31
-68.86
-67.98
-63.34
-55.26
-44.63
-32.67
-20.61
-9.45
0.22
8.17
14.41
19.03
22.13
23.77
24.15
23.59
22.61
21.8
21.6
22.23
23.66
25.71
28.12
30.68
33.2
35.46
37.24
38.36
38.67
38.16
36.85
34.83
32.23
29.15
25.76
22.26
18.81
15.5
12.37
9.32
6.27
3.1
-0.25
-3.83
-7.59
-11.42
-15.14
-18.54
-21.52
-24.16
-26.72
-29.64
-33.35
-38.15
-44.05
-50.69
-57.27
-62.64
-65.57
-64.95
-60.17
-51.37
-39.38
-25.59
-11.56
1.34
12.19
20.6
26.58
30.39
32.39
32.93
32.42
31.29
30.03
29.08
28.75
29.13
30.12
31.5
33.04
34.61
36.11
37.48
38.6
39.31
39.44
38.87
37.6
35.71
33.33
30.59
27.62
24.49
21.32
18.22
15.29
12.58
10.05
7.55
4.88
1.87
-1.52
-5.21
-8.98
-12.62
-15.96
-18.96
-21.73
-24.54
-27.73
-31.66
-36.52
-42.14
-47.92
-52.89
-55.92
-56.02
-52.65
-45.91
-36.46
-25.32
-13.63
-2.39
7.6
15.79
21.9
25.87
27.84
28.16
27.3
25.78
24.09
22.64
21.68
21.37
21.73
22.73
24.24
26.11
28.12
30.01
31.48
32.3
32.31
31.43
29.72
27.3
24.33
21.02
17.57
14.1
10.73
7.43
4.11
0.66
-3.01
-6.92
-10.93
-14.88
-18.57
-21.9
-24.87
-27.64
-30.5
-33.84
-38.0
-43.19
-49.23
-55.44
-60.76
-63.94
-63.91
-60.13
-52.72
-42.46
-30.51
-18.11
-6.39
3.85
12.14
18.25
22.25
24.33
24.86
24.25
22.96
21.45
20.2
19.6
19.93
21.21
23.28
25.77
28.27
30.44
32.06
33.08
33.52
33.44
32.88
31.87
30.39
28.41
25.92
22.93
19.57
15.99
12.44
9.13
6.12
3.35
0.64
-2.19
-5.27
-8.61
-12.11
-15.59
-18.88
-21.9
-24.7
-27.5
-30.65
-34.55
-39.41
-45.15
-51.29
-56.95
-61.03
-62.45
-60.43
-54.7
-45.64
-34.16
-21.57
-9.19
1.85
10.84
17.48
21.8
24.05
24.61
23.93
22.51
20.88
19.47
18.63
18.5
19.12
20.39
22.14
24.19
26.31
28.27
29.86
30.93
31.4
31.22
30.37
28.87
26.78
24.22
21.39
18.45
15.56
12.8
10.2
7.71
5.24
2.67
-0.1
-3.08
-6.18
-9.18
-11.88
-14.21
-16.28
-18.36
-20.78
-23.84
-27.67
-32.26
-37.31
-42.26
-46.29
-48.43
-47.84
-44.05
-37.21
-28.03
-17.59
-7.01
2.77
11.13
17.74
22.45
25.25
26.27
25.8
24.32
22.33
20.33
18.67
17.58
17.14
17.35
18.17
19.49
21.17
23.03
24.81
26.28
27.2
27.36
26.66
25.07
22.7
19.76
16.54
13.32
10.29
7.51
4.88
2.21
-0.76
-4.16
-7.98
-11.97
-15.8
-19.12
-21.82
-24.0
-26.08
-28.57
-31.96
-36.53
-42.25
-48.59
-54.64
-59.22
-61.1
-59.45
-54.0
-45.26
-34.29
-22.42
-10.9
-0.63
7.86
14.32
18.73
21.21
22.03
21.67
20.7
19.72
19.16
19.29
20.11
21.52
23.31
25.29
27.25
28.98
30.38
31.35
31.9
32.02
31.72
30.88
29.43
27.34
24.67
21.63
18.48
15.42
12.58
9.97
7.48
4.98
2.28
-0.76
-4.18
-7.9
-11.72
-15.34
-18.51
-21.18
-23.46
-25.72
-28.4
-31.95
-36.65
-42.43
-48.8
-54.78
-59.1
-60.48
-58.05
-51.65
-41.93
-30.14
-17.79
-6.25
3.53
11.05
16.25
19.35
20.73
20.89
20.34
19.56
18.99
18.93
19.52
20.72
22.31
24.04
25.62
26.91
27.9
28.65
29.27
29.8
30.15
30.16
29.64
28.49
26.68
24.28
21.43
18.29
15.0
11.71
8.54
5.57
2.78
0.13
-2.47
-5.11
-7.82
-10.57
-13.26
-15.77
-17.98
-19.87
-21.54
-23.29
-25.48
-28.42
-32.13
-36.24
-39.94
-42.21
-42.15
-39.26
-33.53
-25.52
-16.11
-6.28
2.99
10.96
17.1
21.21
23.34
23.76
22.92
21.28
19.36
17.61
16.38
15.88
16.13
16.95
18.07
19.2
20.15
20.86
21.37
21.77
22.05
22.14
21.89
21.15
19.81
17.82
15.22
12.09
8.65
5.17
1.89
-1.03
-3.61
-6.04
-8.55
-11.33
-14.4
-17.6
-20.7
-23.51
-26.01
-28.35
-30.82
-33.76
-37.45
-42.02
-47.36
-52.99
-58.1
-61.64
-62.53
-60.03
-53.97
-44.87
-33.82
-22.18
-11.22
-1.78
5.7
11.21
14.94
17.12
17.98
17.79
16.89
15.73
14.87
14.74
15.55
17.21
19.41
21.77
23.98
25.94
27.67
29.22
30.55
31.49
31.82
31.39
30.18
28.37
26.2
23.92
21.65
19.42
17.16
14.84
12.4
9.82
7.04
3.99
0.64
-2.98
-6.74
-10.44
-13.86
-16.92
-19.69
-22.44
-25.54
-29.37
-34.18
-39.98
-46.48
-53.04
-58.77
-62.64
-63.71
-61.42
-55.72
-47.16
-36.74
-25.66
-15.02
-5.64
2.02
7.8
11.73
14.0
14.88
14.73
13.95
12.93
11.99
11.41
11.35
11.91
13.05
14.67
16.6
18.65
20.62
22.4
23.83
24.77
25.03
24.48
23.13
21.16
18.88
16.61
14.57
12.76
11.06
9.21
7.01
4.37
1.32
-1.99
-5.29
-8.34
-11.0
-13.29
-15.46
-17.9
-21.0
-24.92
-29.51
-34.2
-38.2
-40.6
-40.65
-37.92
-32.4
-24.53
-15.12
-5.18
4.25
12.33
18.56
22.78
25.11
25.81
25.23
23.75
21.78
19.75
18.12
17.28
17.45
18.63
20.6
22.98
25.33
27.31
28.7
29.47
29.65
29.28
28.35
26.81
24.6
21.79
18.6
15.34
12.26
9.46
6.8
4.06
0.99
-2.48
-6.26
-10.13
-13.84
-17.21
-20.2
-22.89
-25.54
-28.49
-32.12
-36.7
-42.27
-48.55
-54.9
-60.46
-64.21
-65.19
-62.76
-56.73
-47.51
-36.11
-23.9
-12.22
-2.11
5.99
12.12
16.63
19.87
22.0
23.04
23.05
22.22
20.93
19.72
19.08
19.31
20.52
22.61
25.31
28.3
31.23
33.78
35.69
36.82
37.08
36.48
35.03
32.8
29.92
26.61
23.16
19.87
16.94
14.43
12.22
10.08
7.75
5.04
1.91
-1.58
-5.25
-8.84
-12.15
-15.07
-17.62
-19.98
-22.41
-25.26
-28.84
-33.39
-38.89
-44.99
-50.9
-55.49
-57.53
-56.06
-50.73
-41.96
-30.83
-18.7
-6.91
3.56
12.17
18.73
23.29
26.02
27.2
27.19
26.44
25.4
24.44
23.78
23.52
23.72
24.4
25.62
27.37
29.48
31.64
33.49
34.7
35.14
34.84
33.9
32.39
30.31
27.64
24.46
20.98
17.55
14.49
12.04
10.19
8.78
7.5
6.01
4.03
1.47
-1.58
-4.86
-8.03
-10.87
-13.37
-15.81
-18.6
-22.14
-26.67
-32.14
-38.2
-44.23
-49.34
-52.6
-53.17
-50.56
-44.8
-36.43
-26.46
-16.02
-6.15
2.34
8.92
13.39
15.83
16.59
16.23
15.4
14.68
14.47
14.92
15.96
17.38
18.89
20.27
21.4
22.3
23.13
24.01
24.99
25.87
26.35
26.08
24.85
22.68
19.76
16.34
12.62
8.75
4.83
0.96
-2.75
-6.23
-9.46
-12.47
-15.33
-18.0
-20.49
-22.83
-25.23
-28.01
-31.52
-35.92
-41.01
-46.13
-50.33
-52.61
-52.15
-48.61
-42.19
-33.59
-23.85
-14.01
-4.95
2.74
8.8
13.2
16.04
17.52
17.88
17.45
16.64
15.85
15.43
15.6
16.43
17.9
19.92
22.3
24.75
26.94
28.52
29.27
29.16
28.37
27.15
25.68
24.05
22.16
19.92
17.34
14.57
11.9
9.53
7.51
5.67
3.68
1.27
-1.68
-5.01
-8.42
-11.57
-14.26
-16.51
-18.53
-20.63
-23.11
-26.21
-30.06
-34.67
-39.83
-45.08
-49.69
-52.72
-53.25
-50.66
-44.9
-36.48
-26.45
-16.03
-6.35
1.85
8.26
12.95
16.19
18.29
19.51
20.04
20.03
19.68
19.2
18.84
18.79
19.18
20.05
21.35
22.93
24.59
26.13
27.4
28.29
28.74
28.72
28.11
26.79
24.68
21.84
18.54
15.13
12.01
9.39
7.29
5.48
3.63
1.45
-1.23
-4.36
-7.72
-10.96
-13.79
-16.07
-17.88
-19.51
-21.34
-23.76
-27.01
-31.14
-35.94
-40.91
-45.23
-47.86
-47.88
-44.71
-38.42
-29.72
-19.73
-9.64
-0.39
7.44
13.56
17.86
20.32
21.04
20.36
18.79
16.97
15.49
14.68
14.65
15.32
16.52
18.03
19.63
21.11
22.3
23.11
23.57
23.74
23.68
23.33
22.49
21.01
18.83
16.07
13.07
10.13
7.46
5.05
2.71
0.19
-2.63
-5.74
-8.95
-11.99
-14.69
-17.02
-19.16
-21.41
-24.13
-27.61
-31.94
-36.99
-42.38
-47.52
-51.67
-53.98
-53.76
-50.57
-44.42
-35.81
-25.61
-14.9
-4.69
4.25
11.46
16.78
20.32
22.36
23.22
23.28
22.88
22.33
21.91
21.85
22.35
23.5
25.25
27.33
29.42
31.19
32.48
33.27
33.67
33.79
33.62
33.0
31.78
29.86
27.3
24.33
21.21
18.17
15.34
12.7
10.15
7.59
4.94
2.16
-0.73
-3.75
-6.85
-9.96
-12.97
-15.79
-18.33
-20.64
-22.93
-25.51
-28.77
-32.96
-38.06
-43.69
-49.07
-53.2
-55.06
-53.89
-49.43
-41.98
-32.4
-21.8
-11.3
-1.77
6.29
12.69
17.46
20.71
22.51
23.03
22.56
21.55
20.51
19.94
20.07
20.92
22.25
23.79
25.36
26.86
28.24
29.42
30.25
30.58
30.3
29.43
28.06
26.31
24.24
21.86
19.17
16.2
13.07
9.95
7.05
4.47
2.23
0.16
-1.93
-4.25
-6.88
-9.69
-12.43
-14.79
-16.64
-18.08
-19.51
-21.36
-24.03
-27.59
-31.82
-36.2
-40.04
-42.62
-43.29
-41.64
-37.49
-31.05
-22.89
-13.81
-4.78
3.36
10.05
15.01
18.22
19.84
20.07
19.21
17.64
15.8
14.2
13.27
13.2
13.99
15.39
17.06
18.68
20.02
20.98
21.56
21.79
21.7
21.31
20.55
19.33
17.56
15.29
12.65
9.91
7.31
4.92
2.67
0.34
-2.25
-5.15
-8.28
-11.45
-14.47
-17.22
-19.7
-21.94
-24.07
-26.22
-28.64
-31.6
-35.35
-39.95
-45.11
-50.16
-54.08
-55.85
-54.67
-50.25
-42.94
-33.58
-23.25
-13.0
-3.67
4.24
10.44
14.88
17.59
18.8
18.86
18.26
17.54
17.12
17.21
17.81
18.79
20.0
21.36
22.85
24.45
26.0
27.33
28.23
28.58
28.43
27.86
26.95
25.68
23.96
21.74
19.05
16.08
13.05
10.2
7.63
5.35
3.26
1.22
-0.88
-3.13
-5.57
-8.21
-11.04
-14.01
-17.04
-20.03
-22.91
-25.73
-28.68
-32.07
-36.19
-41.04
-46.16
-50.63
-53.26
-53.02
-49.39
-42.56
-33.36
-22.94
-12.42
-2.7
5.66
12.34
17.21
20.29
21.73
21.82
20.96
19.59
18.16
17.06
16.59
16.91
17.98
19.6
21.42
23.15
24.56
25.59
26.28
26.69
26.83
26.59
25.87
24.56
22.64
20.15
17.25
14.15
11.11
8.32
5.83
3.56
1.31
-1.11
-3.76
-6.5
-9.13
-11.46
-13.42
-15.17
-16.89
-18.79
-20.99
-23.57
-26.58
-30.04
-33.84
-37.61
-40.73
-42.44
-42.05
-39.15
-33.8
-26.46
-17.88
-8.9
-0.29
7.34
13.51
17.95
20.51
21.25
20.42
18.5
16.06
13.73
12.01
11.2
11.33
12.25
13.66
15.29
16.96
18.54
19.95
21.08
21.76
21.81
21.1
19.62
17.49
14.9
12.04
9.11
6.23
3.45
0.76
-1.93
-4.81
-8.01
-11.52
-15.16
-18.6
-21.55
-23.9
-25.88
-27.94
-30.61
-34.29
-39.08
-44.68
-50.47
-55.55
-58.94
-59.73
-57.36
-51.76
-43.42
-33.3
-22.53
-12.16
-2.94
4.73
10.74
15.13
18.01
19.58
20.1
19.94
19.53
19.22
19.28
19.81
20.82
22.23
23.94
25.81
27.73
29.6
31.3
32.7
33.67
34.03
33.61
32.31
30.14
27.3
24.08
20.82
17.77
15.06
12.64
10.4
8.12
5.61
2.76
-0.45
-3.91
-7.43
-10.79
-13.86
-16.62
-19.19
-21.85
-24.92
-28.72
-33.44
-39.04
-45.1
-50.84
-55.19
-57.03
-55.57
-50.55
-42.34
-31.84
-20.2
-8.56
2.16
11.33
18.63
23.95
27.37
29.14
29.62
29.27
28.61
28.08
28.0
28.5
29.49
30.75
32.04
33.19
34.14
34.96
35.7
36.36
36.85
36.96
36.51
35.41
33.69
31.44
28.76
25.74
22.44
18.93
15.36
11.93
8.8
6.01
3.44
0.9
-1.77
-4.6
-7.45
-10.19
-12.74
-15.19
-17.76
-20.76
-24.42
-28.82
-33.86
-39.21
-44.27
-48.29
-50.45
-50.1
-46.87
-40.82
-32.5
-22.75
-12.58
-2.97
5.33
11.83
16.39
19.08
20.19
20.1
19.21
17.92
16.6
15.57
15.09
15.32
16.24
17.74
19.61
21.59
23.44
25.01
26.16
26.77
26.74
26.0
24.53
22.46
19.94
17.2
14.39
11.59
8.7
5.59
2.11
-1.74
-5.77
-9.64
-12.97
-15.55
-17.48
-19.17
-21.24
-24.25
-28.45
-33.63
-39.1
-43.85
-46.85
-47.26
-44.67
-39.13
-31.18
-21.72
-11.79
-2.41
5.64
11.95
16.41
19.18
20.56
20.94
20.68
20.14
19.63
19.4
19.59
20.2
21.14
22.25
23.36
24.37
25.23
25.93
26.52
26.99
27.21
27.0
26.13
24.44
21.99
19.04
15.96
13.11
10.59
8.3
5.99
3.43
0.52
-2.68
-5.98
-9.28
-12.5
-15.62
-18.6
-21.4
-24.09
-26.88
-30.11
-34.1
-38.91
-44.16
-49.08
-52.66
-53.96
-52.38
-47.78
-40.56
-31.46
-21.5
-11.65
-2.7
4.85
10.83
15.29
18.34
20.1
20.7
20.32
19.38
18.42
18.02
18.61
20.29
22.8
25.69
28.44
30.7
32.28
33.17
33.41
33.09
32.31
31.15
29.72
28.11
26.41
24.66
22.85
20.96
18.96
16.86
14.7
12.52
10.35
8.17
5.91
3.48
0.82
-2.06
-5.07
-8.09
-10.99
-13.75
-16.44
-19.25
-22.41
-26.16
-30.62
-35.77
-41.3
-46.58
-50.78
-52.97
-52.42
-48.79
-42.32
-33.7
-23.94
-14.08
-5.01
2.66
8.56
12.57
14.75
15.4
14.96
13.94
12.86
12.09
11.83
12.11
12.86
13.92
15.15
16.42
17.6
18.62
19.46
20.13
20.65
20.94
20.9
20.37
19.27
17.62
15.57
13.35
11.15
9.06
7.03
4.93
2.62
0.06
-2.68
-5.43
-7.95
-10.03
-11.57
-12.66
-13.49
-14.41
-15.76
-17.83
-20.74
-24.41
-28.5
-32.4
-35.34
-36.47
-35.15
-31.18
-24.89
-17.1
-8.84
-1.12
5.38
10.31
13.61
15.36
15.77
15.1
13.72
12.06
10.56
9.49
9.01
9.11
9.66
10.53
11.58
12.72
13.9
15.1
16.3
17.48
18.51
19.19
19.27
18.55
16.94
14.55
11.63
8.5
5.52
2.9
0.73
-1.08
-2.82
-4.78
-7.2
-10.11
-13.35
-16.6
-19.59
-22.18
-24.4
-26.44
-28.56
-31.02
-34.06
-37.8
-42.14
-46.66
-50.6
-52.97
-52.87
-49.81
-43.88
-35.76
-26.49
-17.18
-8.7
-1.64
3.79
7.61
10.02
11.27
11.65
11.49
11.1
10.79
10.84
11.4
12.48
13.94
15.52
17.02
18.34
19.5
20.65
21.85
23.05
24.07
24.63
24.48
23.49
21.69
19.25
16.43
13.54
10.86
8.56
6.65
4.99
3.35
1.53
-0.58
-2.96
-5.52
-8.17
-10.85
-13.52
-16.16
-18.71
-21.16
-23.61
-26.29
-29.55
-33.65
-38.57
-43.87
-48.72
-52.1
-53.12
-51.28
-46.56
-39.4
-30.52
-20.77
-10.95
-1.79
6.14
12.43
16.92
19.65
20.85
20.86
20.11
19.01
17.98
17.35
17.37
18.08
19.37
21.0
22.71
24.31
25.7
26.83
27.68
28.22
28.39
28.16
27.54
26.48
24.91
22.8
20.21
17.32
14.38
11.65
9.22
6.99
4.73
2.22
-0.6
-3.65
-6.71
-9.59
-12.18
-14.55
-16.92
-19.53
-22.64
-26.37
-30.75
-35.58
-40.48
-44.88
-48.11
-49.55
-48.68
-45.29
-39.48
-31.7
-22.66
-13.17
-4.03
4.08
10.7
15.56
18.61
19.95
19.81
18.56
16.66
14.64
12.99
12.11
12.2
13.27
15.11
17.39
19.78
21.99
23.83
25.19
26.01
26.21
25.69
24.37
22.27
19.56
16.55
13.54
10.74
8.15
5.6
2.83
-0.29
-3.74
-7.31
-10.77
-13.92
-16.73
-19.32
-21.9
-24.78
-28.27
-32.61
-37.81
-43.51
-48.95
-53.06
-54.77
-53.31
-48.49
-40.72
-30.9
-20.14
-9.49
0.16
8.25
14.45
18.7
21.15
22.1
21.92
21.05
19.89
18.83
18.2
18.26
19.09
20.65
22.71
24.93
27.0
28.69
29.91
30.68
31.05
31.0
30.45
29.28
27.38
24.78
21.65
18.31
15.09
12.19
9.59
7.07
4.29
1.05
-2.67
-6.63
-10.46
-13.86
-16.78
-19.36
-21.91
-24.77
-28.18
-32.27
-37.01
-42.12
-47.1
-51.16
-53.36
-52.87
-49.27
-42.63
-33.58
-23.05
-12.05
-1.5
7.92
15.76
21.76
25.83
28.09
28.87
28.6
27.81
26.98
26.5
26.63
27.48
29.01
31.04
33.33
35.6
37.6
39.15
40.17
40.58
40.37
39.52
38.06
36.02
33.46
30.48
27.18
23.7
20.19
16.79
13.6
10.58
7.56
4.41
1.03
-2.5
-6.01
-9.29
-12.23
-14.89
-17.42
-20.06
-23.1
-26.75
-31.2
-36.48
-42.31
-48.08
-52.84
-55.59
-55.46
-52.11
-45.73
-36.98
-26.86
-16.4
-6.57
1.9
8.58
13.34
16.29
17.73
18.03
17.55
16.63
15.61
14.82
14.57
15.04
16.22
17.88
19.71
21.43
22.9
24.12
25.13
25.93
26.39
26.31
25.49
23.85
21.46
18.48
15.15
11.66
8.17
4.76
1.5
-1.57
-4.4
-6.97
-9.35
-11.64
-14.07
-16.93
-20.49
-24.82
-29.69
-34.49
-38.34
-40.34
-39.76
-36.32
-30.19
-22.01
-12.68
-3.2
5.57
13.03
18.87
23.03
25.56
26.58
26.26
24.85
22.79
20.67
19.1
18.5
18.95
20.2
21.8
23.36
24.62
25.55
26.16
26.48
26.47
26.06
25.2
23.9
22.2
20.13
17.73
15.03
12.07
8.98
5.84
2.72
-0.41
-3.6
-6.89
-10.19
-13.36
-16.23
-18.78
-21.12
-23.49
-26.19
-29.47
-33.51
-38.26
-43.54
-48.87
-53.53
-56.65
-57.35
-55.09
-49.77
-41.85
-32.22
-21.9
-11.89
-2.92
4.51
10.2
14.13
16.46
17.48
17.59
17.24
16.86
16.83
17.39
18.59
20.34
22.41
24.54
26.5
28.17
29.54
30.65
31.52
32.14
32.45
32.35
31.76
30.62
28.9
26.65
24.04
21.27
18.52
15.91
13.4
10.84
8.03
4.85
1.29
-2.49
-6.27
-9.9
-13.31
-16.58
-19.91
-23.48
-27.46
-31.95
-36.9
-42.09
-47.11
-51.34
-54.06
-54.61
-52.49
-47.58
-40.17
-30.98
-21.05
-11.46
-3.13
3.4
7.99
10.83
12.25
12.64
12.33
11.61
10.78
10.11
9.78
9.87
10.35
11.14
12.18
13.45
14.9
16.45
17.89
18.96
19.44
19.24
18.37
16.98
15.27
13.42
11.56
9.77
8.03
6.23
4.28
2.14
-0.15
-2.46
-4.68
-6.75
-8.72
-10.74
-12.97
-15.51
-18.43
-21.73
-25.29
-28.83
-31.85
-33.68
-33.66
-31.35
-26.76
-20.36
-12.94
-5.36
1.66
7.64
12.38
15.82
18.0
18.99
18.96
18.13
16.85
15.49
14.43
13.93
14.1
14.9
16.12
17.5
18.82
19.98
20.94
21.74
22.34
22.59
22.28
21.24
19.47
17.13
14.51
11.92
9.52
7.33
5.25
3.15
0.9
-1.55
-4.25
-7.15
-10.16
-13.13
-15.86
-18.22
-20.24
-22.13
-24.23
-26.96
-30.58
-35.14
-40.33
-45.55
-49.9
-52.4
-52.21
-48.92
-42.72
-34.37
-25.01
-15.77
-7.49
-0.59
4.89
9.05
12.07
14.0
14.97
15.18
14.94
14.64
14.61
15.01
15.85
17.05
18.5
20.12
21.84
23.57
25.17
26.46
27.28
27.51
27.12
26.16
24.76
23.07
21.21
19.22
17.1
14.82
12.39
9.89
7.42
5.1
2.93
0.82
-1.35
-3.68
-6.14
-8.64
-11.05
-13.32
-15.49
-17.68
-20.06
-22.79
-25.99
-29.72
-34.0
-38.6
-43.09
-46.77
-48.81
-48.51
-45.46
-39.75
-31.93
-22.89
-13.61
-4.94
2.53
8.49
12.85
15.62
16.91
16.92
16.0
14.64
13.37
12.62
12.61
13.34
14.62
16.22
17.94
19.62
21.14
22.39
23.29
23.8
23.9
23.58
22.82
21.57
19.83
17.65
15.21
12.74
10.45
8.4
6.55
4.74
2.79
0.58
-1.94
-4.71
-7.61
-10.43
-12.98
-15.18
-17.09
-19.01
-21.29
-24.21
-27.81
-31.74
-35.39
-37.98
-38.77
-37.29
-33.43
-27.45
-19.96
-11.76
-3.63
3.7
9.77
14.29
17.17
18.47
18.43
17.45
16.0
14.6
13.62
13.22
13.39
13.98
14.83
15.83
16.9
17.97
18.91
19.6
19.93
19.85
19.36
18.44
17.02
15.02
12.44
9.49
6.48
3.77
1.53
-0.35
-2.22
-4.48
-7.35
-10.75
-14.3
-17.59
-20.29
-22.43
-24.29
-26.35
-29.05
-32.61
-36.97
-41.65
-45.95
-48.98
-49.96
-48.37
-44.14
-37.6
-29.39
-20.35
-11.28
-2.89
4.3
9.92
13.88
16.23
17.22
17.2
16.58
15.77
15.17
15.06
15.58
16.71
18.24
19.92
21.58
23.15
24.65
26.07
27.29
28.04
28.02
27.08
25.21
22.68
19.8
16.92
14.24
11.8
9.48
7.1
4.47
1.47
-1.85
-5.34
-8.75
-11.86
-14.5
-16.68
-18.53
-20.3
-22.34
-25.04
-28.76
-33.6
-39.3
-45.13
-50.0
-52.73
-52.43
-48.72
-41.88
-32.71
-22.34
-11.86
-2.21
6.04
12.62
17.54
20.91
22.97
23.98
24.26
24.16
24.06
24.22
24.79
25.77
27.05
28.5
30.07
31.7
33.35
34.89
36.08
36.71
36.58
35.67
34.04
31.9
29.42
26.73
23.93
21.03
18.06
15.06
12.1
9.22
6.48
3.87
1.33
-1.19
-3.76
-6.41
-9.07
-11.64
-14.05
-16.3
-18.54
-21.04
-24.12
-28.04
-32.85
-38.29
-43.74
-48.33
-51.16
-51.46
-48.87
-43.44
-35.71
-26.5
-16.78
-7.47
0.72
7.33
12.19
15.29
16.79
16.94
16.12
14.79
13.47
12.58
12.4
12.94
14.05
15.48
17.06
18.72
20.47
22.27
23.98
25.36
26.16
26.18
25.38
23.85
21.78
19.4
16.93
14.5
12.12
9.71
7.12
4.3
1.28
-1.78
-4.68
-7.33
-9.75
-12.06
-14.41
-16.97
-19.85
-23.17
-26.91
-30.87
-34.52
-37.07
-37.62
-35.53
-30.68
-23.57
-15.18
-6.58
1.36
8.14
13.58
17.68
20.45
21.9
22.14
21.38
20.01
18.55
17.46
17.06
17.45
18.52
20.0
21.61
23.07
24.23
25.03
25.48
25.63
25.48
25.01
24.14
22.85
21.1
18.96
16.57
14.07
11.62
9.31
7.14
5.01
2.84
0.56
-1.86
-4.39
-7.01
-9.69
-12.37
-15.0
-17.51
-19.95
-22.49
-25.44
-29.05
-33.39
-38.16
-42.72
-46.24
-47.91
-47.13
-43.7
-37.78
-29.92
-20.98
-11.96
-3.84
2.75
7.57
10.76
12.69
13.74
14.16
14.14
13.87
13.6
13.61
14.09
15.07
16.42
17.94
19.48
20.95
22.31
23.54
24.55
25.27
25.6
25.5
24.96
24.0
22.66
21.02
19.18
17.26
15.37
13.53
11.73
9.97
8.24
6.54
4.85
3.1
1.19
-0.96
-3.33
-5.8
-8.25
-10.6
-12.87
-15.18
-17.74
-20.74
-24.34
-28.53
-33.05
-37.35
-40.67
-42.16
-41.19
-37.55
-31.59
-24.11
-16.11
-8.55
-2.1
2.88
6.36
8.53
9.64
10.04
9.99
9.76
9.49
9.35
9.42
9.79
10.46
11.36
12.38
13.4
14.35
15.22
16.04
16.79
17.36
17.56
17.23
16.3
14.82
12.98
11.01
9.1
7.36
5.76
4.22
2.61
0.9
-0.93
-2.81
-4.68
-6.52
-8.34
-10.15
-11.94
-13.65
-15.2
-16.6
-18.02
-19.69
-21.85
-24.55
-27.54
-30.24
-31.92
-31.92
-29.84
-25.69
-19.87
-13.0
-5.82
1.0
6.89
11.43
14.33
15.46
14.92
13.07
10.49
7.88
5.84
4.75
4.68
5.43
6.67
8.09
9.47
10.72
11.81
12.69
13.31
13.62
13.56
13.11
12.28
11.09
9.54
7.69
5.58
3.33
1.06
-1.16
-3.32
-5.51
-7.81
-10.23
-12.64
-14.92
-16.95
-18.72
-20.34
-21.98
-23.8
-25.97
-28.59
-31.75
-35.39
-39.25
-42.81
-45.41
-46.36
-45.2
-41.85
-36.64
-30.16
-23.11
-16.13
-9.69
-4.1
0.45
3.9
6.27
7.65
8.24
8.28
8.05
7.81
7.76
8.08
8.82
9.97
11.38
12.9
14.36
15.64
16.66
17.32
17.56
17.3
16.57
15.46
14.2
12.9
11.67
10.44
9.15
7.75
6.26
