0
31.31
27.16
22.93
19.07
15.9
13.43
11.34
9.12
6.21
2.3
-2.56
-8.0
-13.5
-18.58
-23.08
-27.17
-31.3
-36.09
-42.1
-49.68
-58.68
-68.15
-76.35
-81.04
-80.13
-72.55
-58.76
-40.69
-21.24
-3.17
11.57
22.26
29.26
33.36
35.35
35.75
34.88
33.11
30.99
29.27
28.62
29.43
31.6
34.63
37.79
40.44
42.21
43.04
43.05
42.45
41.36
39.84
37.86
35.39
32.35
28.72
24.61
20.25
15.96
12.08
8.77
5.94
3.29
0.41
-3.09
-7.41
-12.61
-18.52
-24.8
-31.04
-36.8
-41.77
-45.86
-49.39
-52.92
-57.24
-63.07
-70.72
-79.78
-88.92
-96.02
-98.69
-95.08
-84.63
-68.42
-48.87
-28.95
-11.18
3.02
13.43
20.65
25.55
28.84
30.92
32.06
32.58
32.95
33.66
35.06
37.24
39.97
42.82
45.36
47.27
48.49
49.08
49.19
48.92
48.21
46.97
45.08
42.53
39.48
36.09
32.54
28.9
25.13
21.21
17.23
13.36
9.83
6.77
4.06
1.4
-1.67
-5.47
-10.11
-15.41
-21.02
-26.56
-31.8
-36.67
-41.25
-45.76
-50.53
-56.03
-62.75
-70.92
-80.07
-88.79
-94.88
-95.97
-90.47
-78.28
-61.04
-41.55
-22.78
-6.96
5.01
13.32
18.92
22.78
25.65
27.96
29.95
31.85
33.87
36.17
38.75
41.44
43.93
45.88
47.14
47.72
47.84
47.8
47.77
47.67
47.19
45.93
43.66
40.49
36.85
33.31
30.3
27.91
25.84
23.62
20.78
17.19
13.06
8.84
5.02
1.81
-0.9
-3.52
-6.55
-10.34
-14.91
-19.95
-24.98
-29.56
-33.5
-36.94
-40.31
-44.18
-49.23
-55.92
-64.31
-73.73
-82.65
-88.95
-90.45
-85.68
-74.59
-58.62
-40.37
-22.67
-7.69
3.56
11.29
16.41
19.96
22.67
24.9
26.74
28.28
29.8
31.59
33.93
36.79
39.88
42.65
44.61
45.5
45.47
44.91
44.28
43.81
43.34
42.49
40.84
38.27
35.04
31.69
28.75
26.44
24.55
22.54
19.93
16.49
12.45
8.32
4.6
1.54
-1.01
-3.51
-6.46
-10.22
-14.82
-20.0
-25.32
-30.32
-34.73
-38.61
-42.28
-46.33
-51.44
-58.16
-66.54
-75.88
-84.59
-90.48
-91.33
-85.73
-73.68
-56.75
-37.6
-19.08
-3.39
8.47
16.64
21.91
25.19
27.16
28.27
28.86
29.32
30.12
31.64
33.99
37.06
40.47
43.75
46.43
48.27
49.17
49.25
48.69
47.64
46.15
44.13
41.44
38.04
34.03
29.66
25.22
20.94
16.93
13.22
9.81
6.72
3.97
1.51
-0.81
-3.26
-6.04
-9.25
-12.79
-16.45
-19.91
-22.99
-25.64
-28.06
-30.61
-33.8
-38.17
-44.09
-51.54
-59.81
-67.45
-72.43
-72.79
-67.29
-56.02
-40.41
-22.86
-5.9
8.55
19.53
26.98
31.32
33.09
32.77
30.84
27.95
25.0
22.9
22.34
23.48
25.96
29.07
32.03
34.25
35.49
35.86
35.64
35.09
34.35
33.42
32.14
30.35
27.92
24.82
21.15
17.11
13.0
9.1
5.68
2.83
0.46
-1.77
-4.27
-7.45
-11.44
-16.07
-20.92
-25.52
-29.58
-33.11
-36.39
-39.85
-43.97
-49.13
-55.49
-62.9
-70.73
-77.71
-82.12
-82.18
-76.67
-65.52
-49.98
-32.3
-15.06
-0.34
10.75
18.17
22.57
24.88
25.83
25.91
25.42
24.69
24.11
24.15
25.15
27.19
30.02
33.1
35.82
37.73
38.67
38.75
38.25
37.44
36.41
35.09
33.29
30.86
27.77
24.15
20.26
16.38
12.77
9.57
6.83
4.44
2.17
-0.32
-3.36
-7.19
-11.84
-17.09
-22.53
-27.73
-32.4
-36.49
-40.23
-44.03
-48.33
-53.52
-59.85
-67.21
-74.99
-81.9
-86.22
-86.08
-80.28
-68.74
-52.77
-34.69
-17.15
-2.31
8.77
16.09
20.5
23.03
24.56
25.59
26.34
26.94
27.59
28.59
30.23
32.61
35.6
38.79
41.73
44.04
45.55
46.33
46.57
46.43
45.92
44.97
43.46
41.27
38.38
34.88
30.89
26.6
22.19
17.87
13.81
10.11
6.81
3.76
0.77
-2.38
-5.85
-9.7
-13.87
-18.14
-22.34
-26.3
-29.98
-33.56
-37.34
-41.8
-47.46
-54.7
-63.46
-73.01
-81.79
-87.66
-88.56
-83.2
-71.65
-55.51
-37.33
-19.81
-4.96
6.33
14.22
19.47
22.91
25.19
26.7
27.73
28.59
29.67
31.31
33.66
36.58
39.72
42.67
45.1
46.93
48.29
49.26
49.81
49.7
48.62
46.39
43.1
39.12
34.99
31.11
27.63
24.4
21.14
17.62
13.84
9.98
6.34
3.09
0.18
-2.7
-5.93
-9.75
-14.13
-18.73
-23.09
-26.88
-29.99
-32.64
-35.3
-38.52
-42.88
-48.82
-56.49
-65.45
-74.56
-81.92
-85.41
-83.26
-74.82
-60.85
-43.42
-25.18
-8.58
4.76
14.4
20.7
24.48
26.57
27.6
27.98
28.02
28.02
28.3
29.19
30.85
33.22
36.0
38.72
40.91
42.24
42.68
42.38
41.67
40.74
39.6
38.09
36.0
33.29
30.12
26.85
23.85
21.35
19.33
17.62
15.95
14.12
12.01
9.51
6.53
2.97
-1.16
-5.74
-10.47
-15.03
-19.24
-23.06
-26.69
-30.44
-34.73
-39.98
-46.45
-54.03
-61.95
-68.71
-72.35
-71.06
-63.93
-51.4
-35.21
-17.83
-1.72
11.4
20.8
26.57
29.31
29.77
28.63
26.5
24.02
21.84
20.66
21.03
23.16
26.84
31.41
35.96
39.63
41.88
42.61
42.08
40.73
38.92
36.83
34.43
31.61
28.21
24.21
19.79
15.3
11.24
8.04
5.87
4.54
3.49
2.03
-0.42
-4.07
-8.74
-13.93
-19.08
-23.74
-27.77
-31.32
-34.86
-39.04
-44.5
-51.7
-60.68
-70.77
-80.58
-88.11
-91.16
-88.04
-78.16
-62.46
-43.22
-23.35
-5.55
8.49
18.38
24.74
28.63
30.95
32.2
32.58
32.29
31.73
31.48
32.08
33.78
36.37
39.28
41.81
43.42
43.92
43.46
42.36
40.95
39.37
37.53
35.24
32.29
28.65
24.46
20.0
15.63
11.67
8.3
5.59
3.43
1.58
-0.34
-2.76
-6.05
-10.32
-15.34
-20.6
-25.53
-29.71
-33.15
-36.27
-39.74
-44.31
-50.5
-58.47
-67.81
-77.41
-85.55
-90.09
-89.09
-81.51
-67.71
-49.53
-29.73
-11.2
3.95
14.88
21.91
26.02
28.35
29.74
30.64
31.25
31.74
32.3
33.2
34.63
36.59
38.88
41.07
42.76
43.66
43.76
43.25
42.4
41.41
40.28
38.87
36.95
34.37
31.15
27.41
23.36
19.22
15.24
11.61
8.45
5.74
3.29
0.74
-2.28
-5.98
-10.36
-15.14
-19.93
-24.41
-28.47
-32.22
-35.96
-40.13
-45.24
-51.72
-59.74
-68.94
-78.13
-85.41
-88.57
-85.83
-76.59
-61.8
-43.67
-25.0
-8.26
5.09
14.69
21.03
24.94
27.2
28.38
28.88
29.05
29.34
30.15
31.74
34.21
37.34
40.75
43.95
46.56
48.37
49.36
49.61
49.24
48.25
46.62
44.26
41.22
37.66
33.87
30.16
26.72
23.59
20.62
17.67
14.67
11.7
8.93
6.5
4.3
2.02
-0.76
-4.38
-8.89
-13.99
-19.21
-24.07
-28.41
-32.36
-36.35
-40.98
-46.77
-54.02
-62.6
-71.81
-80.27
-86.09
-87.34
-82.66
-71.83
-56.07
-37.68
-19.38
-3.45
8.84
17.34
22.66
25.63
26.96
27.09
26.39
25.33
24.47
24.49
25.79
28.41
31.97
35.82
39.3
41.95
43.6
44.34
44.35
43.82
42.86
41.42
39.46
36.86
33.63
29.86
25.76
21.68
17.99
14.92
12.53
10.54
8.5
5.89
2.39
-1.97
-6.85
-11.74
-16.24
-20.22
-23.82
-27.41
-31.4
-36.18
-42.05
-49.12
-57.13
-65.19
-71.76
-74.96
-73.09
-65.36
-52.32
-35.81
-18.38
-2.45
10.29
19.27
24.76
27.53
28.4
28.03
26.93
25.56
24.42
23.99
24.64
26.49
29.32
32.69
35.97
38.68
40.55
41.56
41.89
41.73
41.18
40.21
38.81
36.91
34.55
31.77
28.63
25.16
21.4
17.42
13.35
9.4
5.72
2.37
-0.74
-3.89
-7.41
-11.57
-16.44
-21.83
-27.35
-32.57
-37.14
-41.0
-44.36
-47.76
-51.9
-57.4
-64.54
-72.87
-81.14
-87.3
-89.19
-85.18
-74.91
-59.5
-41.26
-22.95
-6.91
5.51
14.08
19.39
22.41
23.97
24.69
24.93
25.0
25.24
25.98
27.53
29.91
32.9
36.01
38.73
40.71
41.86
42.36
42.44
42.2
41.58
40.37
38.4
35.71
32.53
29.22
26.12
23.37
20.92
18.56
16.04
13.19
10.05
6.8
3.7
0.85
-1.88
-4.79
-8.21
-12.34
-17.03
-21.95
-26.64
-30.82
-34.49
-37.9
-41.51
-45.87
-51.43
-58.41
-66.47
-74.6
-81.05
-83.76
-81.02
-72.13
-57.87
-40.37
-22.43
-6.65
5.35
13.27
17.86
20.37
21.95
23.34
24.81
26.4
28.15
30.14
32.51
35.26
38.16
40.79
42.75
43.81
44.02
43.69
43.12
42.53
41.84
40.7
38.78
35.88
32.12
27.94
23.9
20.44
17.75
15.62
13.62
11.31
8.49
5.29
2.09
-0.72
-2.96
-4.82
-6.77
-9.34
-12.78
-17.0
-21.54
-25.88
-29.58
-32.61
-35.32
-38.33
-42.34
-47.88
-55.14
-63.69
-72.41
-79.54
-83.07
-81.26
-73.42
-60.21
-43.65
-26.4
-10.98
0.97
9.08
13.9
16.48
17.8
18.53
19.03
19.54
20.34
21.79
24.18
27.56
31.69
36.02
39.9
42.83
44.62
45.41
45.56
45.35
44.85
43.87
42.11
39.35
35.64
31.27
26.68
22.26
18.28
14.77
11.7
9.0
6.56
4.19
1.65
-1.36
-5.03
-9.31
-13.89
-18.29
-22.07
-25.07
-27.51
-29.91
-32.95
-37.22
-43.02
-50.18
-57.93
-64.99
-69.66
-70.3
-65.81
-56.06
-42.12
-26.02
-10.1
3.61
13.95
20.7
24.39
25.74
25.48
24.17
22.31
20.48
19.36
19.56
21.41
24.75
29.01
33.27
36.67
38.67
39.25
38.8
37.91
37.07
36.38
35.57
34.15
31.7
28.13
23.71
19.0
14.59
10.95
8.21
6.2
4.5
2.55
-0.18
-3.97
-8.76
-14.16
-19.6
-24.59
-28.96
-32.91
-37.0
-41.9
-48.22
-56.14
-65.3
-74.6
-82.27
-86.24
-84.83
-77.29
-64.23
-47.54
-29.76
-13.3
0.23
10.22
16.99
21.31
24.02
25.7
26.74
27.38
27.88
28.53
29.67
31.48
33.94
36.73
39.31
41.18
42.01
41.87
41.08
40.09
39.13
38.13
36.71
34.4
30.86
26.2
20.89
15.68
11.26
7.97
5.71
3.95
1.94
-0.9
-4.85
-9.75
-15.12
-20.35
-24.95
-28.73
-31.83
-34.74
-38.16
-42.83
-49.32
-57.75
-67.5
-77.12
-84.54
-87.56
-84.65
-75.48
-61.2
-44.1
-26.89
-11.77
0.09
8.65
14.64
19.0
22.45
25.37
27.88
30.09
32.17
34.34
36.75
39.35
41.9
44.02
45.43
45.99
45.79
45.05
44.02
42.9
41.72
40.36
38.65
36.39
33.5
30.06
26.31
22.61
19.37
16.88
15.19
14.06
12.9
11.09
8.09
3.74
-1.67
-7.54
-13.2
-18.21
-22.53
-26.51
-30.79
-35.96
-42.49
-50.47
-59.52
-68.72
-76.56
-81.22
-81.03
-75.01
-63.32
-47.33
-29.31
-11.77
3.21
14.49
21.97
26.32
28.56
29.65
30.33
30.98
31.84
33.02
34.65
36.76
39.29
41.98
44.45
46.31
47.29
47.33
46.6
45.38
43.89
42.23
40.32
38.01
35.12
31.61
27.53
23.14
18.74
14.67
11.14
8.24
5.8
3.49
0.93
-2.23
-6.1
-10.56
-15.24
-19.76
-23.8
-27.29
-30.42
-33.56
-37.18
-41.81
-47.83
-55.31
-63.8
-72.07
-78.31
-80.47
-77.0
-67.49
-52.93
-35.49
-17.79
-2.11
10.24
18.97
24.6
27.9
29.54
29.96
29.45
28.4
27.31
26.76
27.23
28.84
31.35
34.17
36.62
38.19
38.71
38.37
37.6
36.79
36.11
35.37
34.16
32.01
28.75
24.56
20.03
15.87
12.63
10.42
8.89
7.35
5.13
1.9
-2.22
-6.77
-11.1
-14.79
-17.77
-20.28
-22.85
-26.1
-30.54
-36.46
-43.74
-51.7
-59.09
-64.21
-65.37
-61.39
-52.11
-38.62
-22.91
-7.31
6.3
16.78
23.97
28.25
30.22
30.38
29.13
26.94
24.47
22.53
21.88
22.95
25.63
29.29
33.03
36.02
37.75
38.2
37.68
36.65
35.41
33.96
32.11
29.54
26.12
21.99
17.6
13.46
9.99
7.23
4.9
2.48
-0.53
-4.39
-9.0
-13.97
-18.74
-22.83
-26.03
-28.48
-30.64
-33.14
-36.66
-41.75
-48.58
-56.73
-65.03
-71.66
-74.56
-72.12
-63.82
-50.59
-34.57
-18.43
-4.45
6.1
13.14
17.36
19.71
20.94
21.46
21.43
21.07
20.76
20.95
22.02
24.08
26.82
29.69
32.04
33.43
33.73
33.23
32.37
31.59
30.99
30.33
29.14
26.97
23.67
19.46
14.91
10.67
7.21
4.68
2.83
1.17
-0.85
-3.66
-7.39
-11.85
-16.65
-21.27
-25.34
-28.73
-31.58
-34.34
-37.56
-41.84
-47.64
-55.07
-63.56
-71.78
-77.75
-79.39
-75.32
-65.44
-51.17
-34.94
-19.45
-6.72
2.41
8.29
11.9
14.32
16.3
18.09
19.7
21.1
22.45
24.04
26.17
28.97
32.21
35.43
38.08
39.85
40.74
41.08
41.27
41.56
41.86
41.77
40.75
38.36
34.52
29.57
24.19
19.17
15.09
12.12
9.97
8.02
5.57
2.12
-2.43
-7.86
-13.66
-19.26
-24.2
-28.27
-31.62
-34.67
-38.09
-42.61
-48.77
-56.6
-65.38
-73.65
-79.44
-80.82
-76.6
-66.77
-52.62
-36.36
-20.43
-6.71
3.86
11.32
16.33
19.67
21.95
23.56
24.75
25.76
26.9
28.42
30.5
33.1
36.01
38.92
41.42
43.2
44.07
44.03
43.26
42.03
40.57
38.89
36.82
34.1
30.56
26.22
21.41
16.59
12.23
8.6
5.72
3.32
0.98
-1.7
-4.97
-8.83
-12.99
-17.07
-20.75
-23.88
-26.62
-29.32
-32.42
-36.38
-41.59
-48.24
-56.04
-64.11
-70.88
-74.43
-73.1
-66.13
-54.01
-38.53
-22.12
-7.09
5.04
13.76
19.41
22.74
24.45
25.05
24.86
24.22
23.56
23.41
24.25
26.24
29.17
32.43
35.34
37.36
38.34
38.5
38.23
37.83
37.32
36.45
34.8
32.13
28.48
24.28
20.15
16.63
13.96
11.97
10.15
7.85
4.67
0.46
-4.44
-9.46
-14.01
-17.75
-20.71
-23.26
-26.03
-29.64
-34.68
-41.39
-49.46
-57.92
-65.09
-68.9
-67.64
-60.54
-48.19
-32.52
-16.09
-1.24
10.6
19.09
24.66
28.03
29.78
30.22
29.61
28.33
26.97
26.18
26.37
27.58
29.42
31.28
32.57
32.99
32.59
31.73
30.84
30.17
29.64
28.95
27.62
25.31
21.98
17.94
13.69
9.8
6.58
4.07
2.01
-0.08
-2.62
-5.83
-9.61
-13.64
-17.48
-20.85
-23.86
-26.92
-30.64
-35.57
-42.01
-49.84
-58.45
-66.68
-72.98
-75.64
-73.23
-65.19
-52.18
-36.06
-19.32
-4.36
7.27
15.22
20.04
22.72
24.13
24.81
25.04
25.03
25.13
25.74
27.21
29.55
32.41
35.18
37.2
38.07
37.73
36.52
34.99
33.62
32.62
31.83
30.81
29.1
26.5
23.15
19.52
16.2
13.59
11.75
10.37
8.9
6.76
3.53
-0.89
-6.21
-11.88
-17.26
-21.84
-25.52
-28.59
-31.69
-35.63
-41.08
-48.35
-57.16
-66.5
-74.68
-79.66
-79.64
-73.68
-62.23
-46.95
-30.28
-14.58
-1.48
8.35
15.17
19.65
22.54
24.42
25.78
26.95
28.21
29.76
31.68
33.87
36.08
37.99
39.26
39.72
39.39
38.46
37.22
35.88
34.55
33.15
31.54
29.52
26.97
23.83
20.19
16.29
12.54
9.37
7.09
5.74
4.99
4.29
2.99
0.65
-2.84
-7.29
-12.24
-17.17
-21.64
-25.4
-28.49
-31.3
-34.47
-38.7
-44.53
-52.06
-60.68
-69.12
-75.54
-78.05
-75.26
-66.79
-53.54
-37.48
-21.04
-6.42
5.0
12.86
17.64
20.21
21.44
22.04
22.46
23.02
23.94
25.37
27.4
29.93
32.68
35.22
37.02
37.71
37.23
35.85
34.1
32.47
31.18
30.1
28.82
26.92
24.2
20.76
16.99
13.38
10.32
8.02
6.44
5.31
4.13
2.39
-0.22
-3.73
-7.76
-11.76
-15.2
-17.89
-19.94
-21.77
-23.92
-26.86
-31.0
-36.52
-43.23
-50.33
-56.46
-59.91
-59.12
-53.3
-42.81
-29.14
-14.49
-1.02
9.74
17.16
21.47
23.38
23.7
23.08
21.95
20.66
19.61
19.28
20.07
22.19
25.46
29.28
32.88
35.54
36.85
36.86
35.93
34.56
33.15
31.82
30.39
28.57
26.06
22.8
18.98
15.0
11.31
8.14
5.47
2.96
0.12
-3.43
-7.78
-12.65
-17.47
-21.7
-24.97
-27.36
-29.29
-31.43
-34.41
-38.71
-44.54
-51.75
-59.76
-67.38
-72.97
-74.72
-71.22
-62.06
-48.19
-31.73
-15.3
-1.24
9.13
15.69
19.22
20.84
21.52
21.71
21.6
21.22
20.75
20.57
21.09
22.51
24.73
27.33
29.66
31.24
31.83
31.51
30.57
29.37
28.13
26.89
25.49
23.72
21.38
18.48
15.26
12.13
9.58
7.86
6.97
6.49
5.79
4.27
1.62
-2.15
-6.62
-11.28
-15.68
-19.62
-23.15
-26.58
-30.32
-34.83
-40.55
-47.65
-55.84
-64.27
-71.38
-75.34
-74.55
-68.22
-56.8
-41.87
-25.72
-10.62
1.76
10.73
16.42
19.54
20.85
21.04
20.58
19.9
19.38
19.43
20.35
22.21
24.86
27.88
30.76
33.02
34.39
34.84
34.59
33.95
33.2
32.42
31.44
29.96
27.7
24.6
20.86
16.97
13.39
10.45
8.22
6.42
4.66
2.5
-0.37
-4.02
-8.31
-12.82
-17.11
-20.81
-23.74
-26.12
-28.41
-31.28
-35.38
-41.15
-48.48
-56.68
-64.3
-69.46
-70.31
-65.68
-55.59
-41.44
-25.58
-10.55
1.72
10.4
15.78
18.78
20.34
21.06
21.19
20.79
20.11
19.6
19.84
21.3
23.98
27.44
30.93
33.66
35.15
35.36
34.7
33.64
32.63
31.78
30.89
29.64
27.68
24.88
21.37
17.48
13.69
10.42
7.87
6.0
4.43
2.67
0.29
-2.92
-6.83
-11.08
-15.17
-18.78
-21.81
-24.44
-27.1
-30.34
-34.67
-40.41
-47.48
-55.25
-62.5
-67.52
-68.62
-64.61
-55.32
-41.82
-26.09
-10.49
2.96
13.13
19.88
23.76
25.62
26.15
25.77
24.78
23.51
22.47
22.2
23.0
24.83
27.19
29.45
31.11
32.04
32.4
32.51
32.55
32.46
31.99
30.81
28.78
25.97
22.69
19.37
16.39
13.98
12.05
10.27
8.15
5.29
1.55
-2.88
-7.56
-11.95
-15.68
-18.63
-20.96
-23.11
-25.64
-29.2
-34.26
-40.83
-48.22
-55.03
-59.43
-59.71
-54.91
-45.24
-32.05
-17.4
-3.42
8.27
16.93
22.58
25.7
26.91
26.72
25.54
23.81
22.07
20.96
21.06
22.57
25.23
28.34
31.08
32.8
33.3
32.87
31.99
31.13
30.47
29.88
28.95
27.26
24.57
20.93
16.68
12.41
8.68
5.8
3.76
2.14
0.27
-2.43
-6.25
-11.06
-16.36
-21.47
-25.91
-29.46
-32.28
-34.87
-37.81
-41.7
-46.96
-53.64
-61.22
-68.5
-73.74
-75.04
-71.05
-61.51
-47.59
-31.49
-15.83
-2.66
6.99
13.27
17.09
19.47
21.15
22.39
23.2
23.53
23.6
23.74
24.34
25.61
27.43
29.39
31.03
32.02
32.34
32.25
32.12
32.18
32.39
32.5
32.12
30.96
28.92
26.1
22.69
19.03
15.43
12.17
9.38
6.96
4.57
1.73
-1.97
-6.56
-11.69
-16.74
-21.08
-24.43
-26.95
-29.2
-31.8
-35.36
-40.25
-46.6
-54.23
-62.44
-69.96
-75.07
-75.97
-71.49
-61.54
-47.4
-31.29
-15.69
-2.57
7.13
13.5
17.3
19.52
20.94
22.07
23.12
24.26
25.6
27.25
29.18
31.28
33.28
34.95
36.11
36.76
36.98
36.93
36.65
36.13
35.3
34.11
32.54
30.58
28.22
25.47
22.35
18.95
15.42
12.0
8.88
6.19
3.89
1.8
-0.39
-2.97
-6.11
-9.77
-13.69
-17.52
-20.91
-23.79
-26.27
-28.71
-31.49
-35.07
-39.86
-46.07
-53.49
-61.29
-67.97
-71.63
-70.55
-63.89
-52.18
-37.16
-21.26
-6.83
4.59
12.56
17.53
20.41
22.13
23.28
24.18
24.99
25.85
27.0
28.64
30.9
33.58
36.27
38.43
39.64
39.8
39.16
38.17
37.23
36.51
35.87
34.97
33.49
31.3
28.49
25.3
22.05
18.93
16.08
13.52
11.34
9.6
8.26
7.15
5.91
4.1
1.4
-2.29
-6.75
-11.55
-16.28
-20.62
-24.49
-28.02
-31.52
-35.44
-40.26
-46.37
-53.78
-61.84
-69.15
-73.82
-74.02
-68.62
-57.79
-43.01
-26.64
-11.12
1.68
10.94
16.83
20.09
21.6
22.02
21.8
21.26
20.75
20.74
21.64
23.68
26.7
30.18
33.4
35.74
36.86
36.83
36.02
34.9
33.83
32.9
31.95
30.66
28.76
26.16
23.0
19.57
16.31
13.53
11.38
9.8
8.49
7.03
5.06
2.38
-0.92
-4.52
-7.94
-10.84
-13.15
-15.07
-17.1
-19.72
-23.38
-28.33
-34.59
-41.86
-49.33
-55.7
-59.33
-58.74
-53.13
-42.75
-29.07
-14.23
-0.46
10.65
18.4
22.97
25.01
25.3
24.45
22.88
21.04
19.41
18.55
19.02
21.05
24.47
28.66
32.81
36.11
38.13
38.81
38.44
37.39
35.95
34.23
32.17
29.61
26.46
22.79
18.84
14.98
11.56
8.86
6.89
5.38
3.9
1.96
-0.73
-4.23
-8.29
-12.5
-16.45
-19.87
-22.75
-25.36
-28.16
-31.74
-36.62
-43.05
-50.83
-59.09
-66.39
-70.95
-71.13
-66.02
-55.86
-42.05
-26.82
-12.45
-0.69
7.7
12.94
15.86
17.42
18.32
18.96
19.48
20.01
20.75
21.99
23.98
26.73
29.97
33.24
35.95
37.75
38.51
38.36
37.59
36.4
34.87
32.92
30.44
27.36
23.77
19.92
16.14
12.72
9.87
7.64
5.96
4.56
3.12
1.29
-1.19
-4.34
-7.97
-11.69
-15.11
-17.98
-20.34
-22.53
-25.04
-28.44
-33.22
-39.56
-47.32
-55.86
-63.97
-70.0
-72.18
-69.2
-60.71
-47.63
-31.95
-16.14
-2.4
7.92
14.67
18.49
20.47
21.55
22.28
22.94
23.59
24.33
25.35
26.85
28.88
31.27
33.69
35.76
37.22
37.97
38.07
37.65
36.77
35.46
33.69
31.41
28.67
25.52
22.15
18.74
15.5
12.61
10.17
8.19
6.54
5.03
3.39
1.36
-1.21
-4.39
-8.05
-11.95
-15.8
-19.31
-22.33
-24.92
-27.33
-29.92
-33.2
-37.61
-43.41
-50.47
-58.08
-64.87
-69.09
-69.04
-63.69
-53.21
-38.95
-23.23
-8.5
3.38
11.57
16.3
18.49
19.17
19.12
18.8
18.43
18.21
18.46
19.48
21.39
24.02
26.87
29.26
30.69
30.98
30.3
29.12
27.94
27.03
26.41
25.8
24.8
23.1
20.57
17.33
13.7
10.04
6.69
3.89
1.71
0.1
-1.19
-2.5
-4.21
-6.51
-9.33
-12.36
-15.22
-17.64
-19.6
-21.3
-23.12
-25.44
-28.65
-33.01
-38.56
-44.91
-51.05
-55.44
-56.41
-52.81
-44.51
-32.53
-18.79
-5.38
6.04
14.64
20.31
23.41
24.47
23.97
22.41
20.39
18.62
17.85
18.58
20.91
24.4
28.26
31.59
33.7
34.36
33.79
32.44
30.8
29.08
27.23
25.02
22.21
18.78
14.91
10.98
7.41
4.48
2.25
0.52
-1.14
-3.2
-5.93
-9.37
-13.25
-17.19
-20.84
-23.99
-26.72
-29.3
-32.16
-35.73
-40.36
-46.16
-52.83
-59.54
-65.0
-67.62
-66.06
-59.72
-49.04
-35.48
-21.13
-8.03
2.41
9.66
14.03
16.32
17.33
17.63
17.5
17.09
16.56
16.21
16.4
17.38
19.18
21.54
23.95
25.97
27.28
27.88
27.99
27.85
27.61
27.12
26.06
24.08
21.05
17.09
12.77
8.73
5.6
3.62
2.59
1.89
0.79
-1.29
-4.54
-8.73
-13.33
-17.79
-21.75
-25.13
-28.15
-31.19
-34.74
-39.21
-44.84
-51.53
-58.6
-64.78
-68.39
-67.88
-62.34
-52.01
-38.34
-23.54
-9.84
1.08
8.62
13.07
15.37
16.5
17.2
17.86
18.59
19.48
20.69
22.49
25.09
28.35
31.87
34.96
36.99
37.64
37.07
35.85
34.6
33.72
33.22
32.71
31.63
29.58
26.48
22.63
18.54
14.76
11.65
9.26
7.39
5.61
3.52
0.77
-2.71
-6.82
-11.27
-15.7
-19.78
-23.41
-26.63
-29.77
-33.29
-37.65
-43.18
-49.83
-57.04
-63.68
-68.19
-69.01
-65.12
-56.46
-44.12
-30.07
-16.46
-5.0
3.51
9.26
12.95
15.36
16.99
18.01
18.47
18.59
18.82
19.7
21.64
24.62
28.18
31.57
34.17
35.59
35.89
35.46
34.78
34.15
33.58
32.82
31.5
29.4
26.55
23.22
19.91
17.01
14.78
13.16
11.9
10.57
8.79
6.25
2.9
-1.05
-5.24
-9.2
-12.65
-15.55
-18.17
-21.01
-24.64
-29.49
-35.78
-43.28
-51.22
-58.26
-62.68
-62.9
-58.0
-48.26
-35.14
-20.84
-7.6
3.04
10.56
15.32
18.09
19.59
20.24
20.26
19.85
19.45
19.7
21.15
24.03
28.05
32.43
36.26
38.85
40.01
40.06
39.5
38.77
37.98
36.94
35.3
32.81
29.44
25.4
21.08
16.93
13.32
10.48
8.34
6.58
4.66
2.08
-1.45
-5.78
-10.44
-14.83
-18.5
-21.33
-23.65
-26.03
-29.18
-33.72
-39.98
-47.89
-56.81
-65.47
-72.18
-75.14
-73.05
-65.54
-53.44
-38.52
-23.08
-9.18
1.85
9.63
14.6
17.57
19.34
20.47
21.25
21.89
22.65
23.84
25.74
28.4
31.59
34.89
37.8
39.99
41.36
42.06
42.28
42.2
41.86
41.17
39.99
38.19
35.78
32.83
29.53
26.06
22.61
19.28
16.14
13.19
10.36
7.5
4.45
1.05
-2.79
-7.02
-11.45
-15.89
-20.14
-24.19
-28.11
-32.09
-36.5
-41.72
-48.09
-55.71
-64.11
-72.12
-77.99
-79.9
-76.56
-67.86
-54.98
-40.05
-25.4
-12.81
-3.13
3.77
8.6
12.17
15.14
17.89
20.58
23.34
26.27
29.47
32.96
36.64
40.31
43.69
46.51
48.54
49.67
49.97
49.56
48.57
47.11
45.13
42.57
39.41
35.79
31.99
28.41
25.32
22.72
20.42
18.05
15.41
12.49
9.49
6.65
4.05
1.44
-1.56
-5.3
-9.86
-14.96
-20.13
-24.87
-28.95
-32.43
-35.65
-39.17
-43.56
-49.21
-56.11
-63.62
-70.45
-74.82
-75.02
-70.03
-59.88
-45.83
-30.03
-14.79
-1.94
7.57
13.8
17.43
19.44
20.67
21.67
22.7
23.85
25.13
26.63
28.43
30.58
32.98
35.44
37.69
39.5
40.79
41.59
42.03
42.23
42.17
41.77
40.85
39.26
37.01
34.22
31.08
27.71
24.19
20.46
16.49
12.38
8.34
4.59
1.26
-1.71
-4.58
-7.61
-10.99
-14.67
-18.43
-22.03
-25.29
-28.28
-31.26
-34.63
-38.75
-43.96
-50.3
-57.4
-64.38
-69.79
-72.0
-69.62
-62.11
-50.1
-35.31
-20.07
-6.49
4.07
11.32
15.72
18.08
19.05
19.02
18.2
16.97
15.92
15.8
17.2
20.29
24.67
29.53
33.97
37.35
39.48
40.57
41.03
41.21
41.21
40.85
39.83
37.85
34.86
31.05
26.83
22.67
18.93
15.76
13.09
10.7
8.27
5.59
2.54
-0.83
-4.38
-7.87
-11.14
-14.18
-17.17
-20.38
-24.17
-28.84
-34.68
-41.76
-49.83
-58.1
-65.22
-69.47
-69.31
-63.88
-53.53
-39.79
-24.81
-10.78
0.81
9.38
15.1
18.54
20.26
20.73
20.33
19.53
18.89
18.98
20.22
22.69
26.1
29.88
33.42
36.22
38.03
38.83
38.75
37.99
36.69
34.99
32.88
30.36
27.43
24.19
20.84
17.66
14.93
12.79
11.14
9.66
7.9
5.34
1.69
-3.11
-8.76
-14.73
-20.37
-25.15
-28.9
-31.85
-34.57
-37.84
-42.36
-48.54
-56.33
-65.06
-73.42
-79.57
-81.58
-78.04
-68.65
-54.5
-37.87
-21.46
-7.55
2.72
9.37
13.3
15.63
17.26
18.64
19.87
21.03
22.19
23.59
25.42
27.78
30.56
33.47
36.16
38.3
39.7
40.34
40.36
39.94
39.18
38.07
36.51
34.34
31.52
28.15
24.48
20.78
17.27
14.05
11.09
8.31
5.6
2.91
0.14
-2.84
-6.19
-9.99
-14.21
-18.6
-22.79
-26.51
-29.75
-32.77
-36.15
-40.47
-46.19
-53.36
-61.42
-69.23
-75.16
-77.51
-74.99
-67.22
-54.92
-39.81
-24.1
-9.84
1.6
9.74
14.92
17.91
19.52
20.43
21.04
21.62
22.36
23.42
24.95
27.05
29.68
32.57
35.41
37.77
39.35
40.06
40.05
39.67
39.23
38.89
38.52
37.8
36.31
33.79
30.31
26.22
22.04
18.26
15.16
12.78
10.99
9.44
7.72
5.43
2.31
-1.68
-6.28
-11.03
-15.49
-19.4
-22.81
-26.11
-29.83
-34.56
-40.67
-48.18
-56.56
-64.65
-70.8
-73.17
-70.4
-62.18
-49.48
-34.39
-19.32
-6.3
3.61
10.34
14.53
16.89
18.02
18.21
17.75
17.03
16.62
17.13
18.99
22.24
26.48
31.02
35.1
38.17
40.01
40.7
40.58
39.99
39.17
38.13
36.74
34.78
32.1
28.69
24.73
20.53
16.5
12.87
9.78
7.11
4.61
2.02
-0.87
-4.16
-7.76
-11.52
-15.19
-18.57
-21.52
-24.1
-26.51
-29.13
-32.39
-36.76
-42.45
-49.29
-56.48
-62.6
-65.94
-64.93
-58.88
-48.25
-34.67
-20.38
-7.5
2.56
9.41
13.4
15.26
15.68
15.15
14.06
12.87
12.11
12.35
13.96
16.95
20.99
25.44
29.64
33.09
35.61
37.26
38.26
38.79
38.82
38.21
36.7
34.17
30.66
26.48
22.1
17.97
14.38
11.27
8.33
5.11
1.28
-3.1
-7.66
-11.81
-15.07
-17.4
-19.24
-21.34
-24.45
-29.09
-35.25
-42.42
-49.6
-55.44
-58.5
-57.63
-52.35
-43.18
-31.43
-18.86
-7.22
2.41
9.58
14.44
17.34
18.68
18.77
17.98
16.76
15.7
15.28
15.87
17.54
20.07
23.05
25.98
28.44
30.17
31.17
31.56
31.48
30.92
29.7
27.57
24.36
20.14
15.33
10.54
6.38
3.2
1.02
-0.6
-2.22
-4.39
-7.33
-10.93
-14.76
-18.33
-21.3
-23.61
-25.57
-27.7
-30.62
-34.91
-40.79
-48.0
-55.58
-61.98
-65.38
-64.27
-58.02
-47.25
-33.64
-19.46
-6.81
3.0
9.64
13.64
15.86
17.11
17.82
18.14
18.13
17.99
18.12
18.94
20.72
23.35
26.37
29.12
31.05
31.9
31.83
31.25
30.54
29.91
29.2
28.07
26.17
23.31
19.71
15.86
12.36
9.69
7.89
6.66
5.43
3.62
0.9
-2.74
-6.99
-11.38
-15.48
-19.06
-22.18
-25.15
-28.4
-32.39
-37.44
-43.66
-50.73
-57.78
-63.45
-66.13
-64.47
-57.94
-47.22
-33.96
-20.36
-8.31
1.07
7.7
12.07
14.94
16.84
18.06
18.73
19.03
19.25
19.74
20.79
22.44
24.52
26.65
28.38
29.37
29.53
29.08
28.4
27.8
27.37
26.91
26.05
24.48
22.12
19.18
16.03
13.05
10.49
8.39
6.52
4.55
2.11
-1.02
-4.86
-9.09
-13.24
-16.87
-19.73
-21.93
-23.89
-26.17
-29.4
-34.01
-40.08
-47.09
-53.88
-58.77
-60.03
-56.5
-48.13
-36.06
-22.36
-9.23
1.62
9.46
14.42
17.21
18.65
19.31
19.6
19.73
19.95
20.47
21.51
23.13
25.18
27.28
28.98
29.91
29.93
29.29
28.37
27.57
27.04
26.59
25.79
24.19
21.59
18.1
14.18
10.4
7.24
4.91
3.29
1.97
0.47
-1.57
-4.27
-7.46
-10.76
-13.78
-16.29
-18.4
-20.52
-23.17
-26.84
-31.82
-38.05
-45.02
-51.79
-57.06
-59.43
-57.8
-51.78
-41.88
-29.52
-16.55
-4.76
4.66
11.28
15.32
17.33
17.94
17.65
16.89
16.06
15.63
15.97
17.25
19.4
22.04
24.65
26.72
28.01
28.51
28.41
27.99
27.4
26.58
25.35
23.53
21.14
18.43
15.82
13.72
12.33
11.6
11.16
10.49
9.08
6.6
3.06
-1.25
-5.77
-9.94
-13.43
-16.32
-19.05
-22.29
-26.69
-32.57
-39.74
-47.34
-53.99
-58.0
-58.0
-53.27
-44.15
-32.01
-18.75
-6.29
3.98
11.44
16.17
18.63
19.39
18.97
17.83
16.47
15.42
15.17
16.03
17.99
20.69
23.51
25.83
27.22
27.65
27.43
26.99
26.69
26.53
26.23
25.36
23.66
21.07
17.85
14.43
11.26
8.65
6.68
5.16
3.69
1.82
-0.8
-4.26
-8.31
-12.5
-16.4
-19.81
-22.85
-25.94
-29.61
-34.33
-40.23
-47.0
-53.82
-59.38
-62.18
-60.94
-55.1
-45.12
-32.43
-19.03
-6.81
2.92
9.76
