0
10.54
5.82
0.51
-4.94
-10.05
-14.48
-18.2
-21.43
-24.6
-28.17
-32.53
-37.88
-44.08
-50.59
-56.38
-60.2
-60.83
-57.57
-50.51
-40.56
-29.13
-17.71
-7.39
1.32
8.41
14.11
18.59
21.89
23.93
24.72
24.45
23.52
22.5
21.84
21.86
22.56
23.72
25.04
26.18
26.92
27.12
26.74
25.79
24.33
22.42
20.1
17.38
14.14
10.34
5.97
1.23
-3.57
-8.13
-12.25
-15.98
-19.59
-23.48
-28.05
-33.58
-40.12
-47.4
-54.75
-61.12
-65.28
-66.08
-62.83
-55.61
-45.17
-32.78
-19.87
-7.66
2.99
11.66
18.26
22.95
25.98
27.72
28.54
28.85
29.05
29.48
30.35
31.73
33.5
35.39
37.09
38.37
39.11
39.28
38.9
37.92
36.22
33.71
30.37
26.38
22.0
17.56
13.27
9.19
5.25
1.29
-2.82
-7.12
-11.55
-15.99
-20.35
-24.65
-29.13
-34.14
-40.0
-46.69
-53.65
-59.77
-63.63
-63.92
-59.94
-51.87
-40.67
-27.84
-14.92
-3.16
6.68
14.3
19.77
23.26
25.04
25.36
24.6
23.28
22.0
21.33
21.64
22.97
25.03
27.33
29.39
30.87
31.66
31.77
31.3
30.34
28.88
26.82
24.02
20.35
15.87
10.82
5.62
0.74
-3.49
-7.03
-10.11
-13.14
-16.57
-20.74
-25.85
-31.9
-38.57
-45.2
-50.75
-54.08
-54.15
-50.51
-43.38
-33.65
-22.62
-11.58
-1.58
6.72
13.11
17.59
20.35
21.59
21.57
20.63
19.19
17.72
16.67
16.34
16.8
17.87
19.27
20.74
22.08
23.13
23.72
23.56
22.34
19.83
16.1
11.45
6.39
1.44
-3.05
-6.97
-10.42
-13.7
-17.14
-21.13
-26.0
-31.82
-38.33
-44.71
-49.76
-52.1
-50.68
-45.13
-35.98
-24.56
-12.51
-1.31
8.13
15.58
21.24
25.44
28.35
29.93
30.16
29.25
27.73
26.31
25.62
25.93
27.02
28.38
29.43
29.79
29.43
28.56
27.44
26.2
24.78
22.89
20.19
16.47
11.72
6.25
0.53
-4.94
-9.86
-14.24
-18.35
-22.65
-27.62
-33.59
-40.64
-48.49
-56.37
-63.11
-67.28
-67.59
-63.34
-54.77
-42.95
-29.51
-16.16
-4.18
5.75
13.53
19.36
23.57
26.44
28.21
29.08
29.3
29.19
29.19
29.66
30.84
32.68
34.81
36.68
37.77
37.85
36.97
35.44
33.6
31.56
29.23
26.32
22.62
18.05
12.8
7.19
1.59
-3.73
-8.61
-13.08
-17.31
-21.63
-26.45
-32.14
-38.88
-46.46
-54.19
-60.94
-65.38
-66.35
-63.2
-56.02
-45.66
-33.45
-20.84
-9.03
1.25
9.8
16.65
21.94
25.78
28.17
29.28
29.37
28.93
28.5
28.54
29.3
30.68
32.37
33.92
34.91
35.1
34.49
33.26
31.64
29.76
27.56
24.83
21.32
17.0
12.02
6.81
1.88
-2.46
-6.14
-9.42
-12.7
-16.44
-20.98
-26.47
-32.86
-39.87
-46.94
-53.2
-57.55
-58.95
-56.64
-50.51
-41.13
-29.66
-17.53
-6.03
3.93
11.89
17.73
21.53
23.43
23.63
22.46
20.5
18.43
16.94
16.48
17.1
18.57
20.44
22.35
24.06
25.45
26.38
26.63
25.9
23.91
20.6
16.17
11.01
5.59
0.35
-4.46
-8.8
-12.79
-16.79
-21.22
-26.48
-32.71
-39.61
-46.35
-51.69
-54.28
-53.09
-47.72
-38.61
-26.89
-14.05
-1.63
9.26
17.93
24.2
28.18
30.13
30.33
29.18
27.16
24.89
23.0
21.96
21.95
22.77
24.0
25.11
25.77
25.88
25.52
24.88
23.98
22.63
20.51
17.27
12.76
7.15
0.92
-5.3
-10.96
-15.77
-19.84
-23.57
-27.6
-32.55
-38.78
-46.21
-54.16
-61.4
-66.35
-67.51
-63.98
-55.72
-43.76
-29.78
-15.66
-2.89
7.69
15.97
22.21
26.77
29.89
31.66
32.22
31.91
31.23
30.8
31.08
32.22
34.02
35.99
37.61
38.5
38.49
37.68
36.36
34.77
33.03
31.0
28.34
24.73
20.0
14.33
8.15
2.01
-3.63
-8.59
-12.98
-17.1
-21.35
-26.16
-31.89
-38.81
-46.8
-55.32
-63.25
-69.03
-71.06
-68.18
-60.15
-47.8
-32.91
-17.67
-3.98
7.01
15.09
20.74
24.66
27.41
29.24
30.19
30.37
30.14
30.02
30.47
31.64
33.34
35.16
36.69
37.66
38.03
37.85
37.18
36.08
34.5
32.43
29.81
26.58
22.71
18.19
13.13
7.74
2.35
-2.76
-7.37
-11.5
-15.35
-19.35
-23.99
-29.69
-36.67
-44.66
-52.98
-60.51
-65.88
-67.83
-65.49
-58.68
-48.01
-34.78
-20.63
-7.16
4.47
13.77
20.74
25.69
28.95
30.7
31.06
30.33
29.04
27.9
27.55
28.29
29.91
31.82
33.36
34.13
34.09
33.51
32.7
31.8
30.62
28.79
25.85
21.53
15.93
9.5
2.91
-3.14
-8.24
-12.37
-15.92
-19.47
-23.61
-28.77
-35.06
-42.26
-49.73
-56.4
-60.95
-62.08
-58.95
-51.46
-40.43
-27.3
-13.75
-1.24
9.28
17.34
22.9
26.08
27.14
26.48
24.63
22.24
20.04
18.64
18.39
19.25
20.86
22.73
24.4
25.65
26.44
26.82
26.72
25.86
23.85
20.43
15.65
9.92
3.84
-2.01
-7.35
-12.17
-16.78
-21.66
-27.36
-34.31
-42.6
-51.76
-60.71
-67.84
-71.5
-70.43
-64.24
-53.53
-39.75
-24.72
-10.18
2.66
13.14
21.13
26.79
30.32
31.94
31.94
30.77
29.08
27.65
27.15
27.9
29.7
31.95
33.93
35.1
35.26
34.57
33.39
31.99
30.42
28.46
25.72
21.86
16.71
10.42
3.45
-3.6
-10.14
-15.83
-20.71
-25.15
-29.8
-35.33
-42.23
-50.62
-60.07
-69.49
-77.31
-81.8
-81.51
-75.79
-65.06
-50.68
-34.58
-18.69
-4.49
7.28
16.51
23.47
28.57
32.18
34.57
36.0
36.73
37.14
37.61
38.42
39.72
41.37
43.04
44.31
44.89
44.7
43.87
42.67
41.24
39.53
37.29
34.23
30.08
24.81
18.67
12.01
5.35
-0.91
-6.52
-11.51
-16.14
-20.84
-26.13
-32.47
-40.12
-49.03
-58.71
-68.18
-75.99
-80.54
-80.41
-74.91
-64.33
-49.94
-33.61
-17.3
-2.51
9.92
19.74
27.11
32.32
35.69
37.52
38.22
38.31
38.29
38.59
39.47
40.94
42.82
44.84
46.7
48.06
48.69
48.46
47.34
45.37
42.65
39.29
35.38
30.99
26.25
21.28
16.17
10.95
5.61
0.13
-5.44
-10.98
-16.33
-21.44
-26.51
-31.94
-38.24
-45.81
-54.62
-64.06
-72.85
-79.35
-81.87
-79.3
-71.41
-59.01
-43.68
-27.32
-11.6
2.32
13.85
22.79
29.14
32.92
34.31
33.71
31.81
29.55
27.85
27.37
28.3
30.34
32.86
35.2
36.87
37.75
37.94
37.61
36.78
35.2
32.52
28.43
22.94
16.42
9.51
2.88
-2.99
-7.93
-12.18
-16.19
-20.54
-25.77
-32.23
-39.88
-48.22
-56.2
-62.38
-65.19
-63.42
-56.64
-45.47
-31.4
-16.39
-2.29
9.64
18.9
25.58
30.03
32.51
33.2
32.27
30.14
27.51
25.25
24.11
24.38
25.81
27.73
29.45
30.45
30.62
30.09
29.07
27.57
25.31
21.94
17.15
11.01
3.92
-3.43
-10.34
-16.36
-21.45
-25.99
-30.64
-36.1
-42.95
-51.31
-60.7
-69.96
-77.42
-81.3
-80.19
-73.58
-61.98
-46.84
-30.07
-13.56
1.25
13.53
22.98
29.73
34.08
36.4
37.11
36.71
35.72
34.72
34.21
34.52
35.69
37.47
39.41
41.0
41.83
41.73
40.79
39.18
37.06
34.42
31.12
26.95
21.79
15.73
9.11
2.37
-4.02
-9.82
-15.05
-19.97
-25.08
-30.93
-38.02
-46.53
-56.22
-66.24
-75.17
-81.3
-83.08
-79.54
-70.62
-57.25
-41.03
-23.81
-7.31
7.28
19.33
28.69
35.5
40.03
42.58
43.45
43.06
41.95
40.75
40.05
40.18
41.15
42.57
43.92
44.72
44.67
43.76
42.14
39.99
37.4
34.38
30.82
26.61
21.69
16.14
10.14
4.01
-1.91
-7.38
-12.3
-16.75
-20.99
-25.41
-30.48
-36.65
-44.19
-53.03
-62.48
-71.29
-77.74
-80.19
-77.53
-69.57
-57.17
-41.9
-25.65
-10.1
3.55
14.69
23.13
28.96
32.4
33.75
33.42
31.94
30.01
28.31
27.38
27.46
28.44
29.91
31.37
32.47
33.06
33.26
33.19
32.88
32.05
30.29
27.17
22.54
16.63
10.0
3.34
-2.78
-8.08
-12.62
-16.75
-20.99
-25.93
-32.02
-39.44
-47.86
-56.28
-63.19
-66.88
-66.02
-60.07
-49.55
-35.88
-20.88
-6.29
6.67
17.39
25.68
31.57
35.1
36.34
35.55
33.26
30.37
27.86
26.52
26.67
28.03
29.91
31.55
32.42
32.39
31.71
30.69
29.46
27.91
25.67
22.31
17.59
11.62
4.81
-2.2
-8.79
-14.56
-19.46
-23.79
-28.11
-33.05
-39.13
-46.57
-55.09
-63.89
-71.62
-76.66
-77.5
-73.24
-63.9
-50.53
-34.9
-19.01
-4.54
7.57
17.06
24.24
29.57
33.44
36.08
37.6
38.16
38.05
37.68
37.5
37.85
38.82
40.29
41.87
43.13
43.67
43.27
41.92
39.8
37.13
34.06
30.61
26.62
21.95
16.49
10.34
3.73
-2.98
-9.44
-15.35
-20.58
-25.15
-29.36
-33.64
-38.56
-44.66
-52.15
-60.76
-69.61
-77.24
-81.92
-82.11
-76.93
-66.53
-52.08
-35.47
-18.77
-3.63
8.99
18.88
26.28
31.58
35.08
37.06
37.79
37.71
37.39
37.37
38.01
39.4
41.33
43.41
45.18
46.25
46.4
45.57
43.89
41.57
38.79
35.61
31.91
27.48
22.21
16.13
9.56
2.96
-3.23
-8.76
-13.63
-18.09
-22.46
-27.1
-32.28
-38.18
-44.93
-52.47
-60.46
-68.12
-74.26
-77.46
-76.43
-70.5
-59.88
-45.71
-29.81
-14.08
-0.04
11.5
20.38
26.83
31.16
33.58
34.27
33.5
31.84
30.04
28.82
28.57
29.24
30.38
31.47
32.08
32.08
31.58
30.7
29.51
27.9
25.67
22.56
18.44
13.31
7.47
1.37
-4.47
-9.66
-14.09
-17.98
-21.78
-26.06
-31.24
-37.54
-44.76
-52.28
-59.02
-63.6
-64.62
-61.12
-52.95
-40.88
-26.47
-11.54
2.26
13.93
23.07
29.69
34.01
36.24
36.6
35.39
33.14
30.53
28.33
27.13
27.17
28.26
29.85
31.24
31.86
31.48
30.2
28.35
26.25
24.03
21.52
18.39
14.32
9.18
3.16
-3.32
-9.75
-15.7
-20.97
-25.61
-29.95
-34.46
-39.7
-46.1
-53.79
-62.32
-70.65
-77.26
-80.46
-78.99
-72.34
-61.03
-46.42
-30.35
-14.62
-0.57
11.08
20.14
26.82
31.43
34.31
35.75
36.1
35.82
35.46
35.54
36.42
38.11
40.32
42.55
44.31
45.24
45.23
44.28
42.48
39.92
36.69
32.9
28.73
24.33
19.83
15.21
10.37
5.2
-0.31
-6.05
-11.75
-17.17
-22.14
-26.75
-31.36
-36.47
-42.6
-49.98
-58.38
-66.95
-74.31
-78.89
-79.24
-74.57
-64.9
-51.21
-35.12
-18.55
-3.22
9.69
19.66
26.76
31.42
34.17
35.5
35.81
35.46
34.8
34.19
33.94
34.25
35.15
36.5
38.1
39.68
41.0
41.79
41.81
40.82
38.74
35.61
31.67
27.23
22.63
18.08
13.6
9.06
4.25
-1.02
-6.72
-12.63
-18.37
-23.55
-28.03
-31.97
-35.78
-40.02
-45.2
-51.64
-59.26
-67.45
-75.08
-80.56
-82.24
-78.89
-70.23
-57.07
-41.13
-24.52
-9.1
3.91
13.98
21.13
25.57
27.58
27.54
25.99
23.67
21.43
19.99
19.76
20.75
22.64
24.91
27.07
28.77
29.92
30.53
30.64
30.21
29.02
26.8
23.35
18.73
13.22
7.31
1.48
-3.96
-8.9
-13.47
-17.88
-22.46
-27.55
-33.48
-40.36
-47.87
-55.07
-60.55
-62.82
-60.73
-53.96
-43.19
-29.83
-15.58
-1.94
10.07
19.96
27.58
32.94
36.09
37.09
36.19
33.87
30.88
28.07
26.2
25.71
26.54
28.21
30.03
31.34
31.73
31.15
29.74
27.76
25.27
22.13
18.08
12.88
6.61
-0.37
-7.43
-13.94
-19.52
-24.19
-28.37
-32.68
-37.75
-44.03
-51.66
-60.28
-69.07
-76.74
-81.73
-82.62
-78.52
-69.41
-56.22
-40.59
-24.36
-9.13
4.08
14.89
23.37
29.73
34.18
36.83
37.84
37.51
36.37
35.05
34.16
34.09
34.85
36.21
37.72
38.91
39.4
39.02
37.83
35.97
33.66
30.95
27.75
23.88
19.19
13.69
7.69
1.6
-4.16
-9.33
-13.96
-18.31
-22.77
-27.7
-33.41
-40.12
-47.87
-56.36
-64.88
-72.23
-76.96
-77.64
-73.42
-64.28
-51.13
-35.56
-19.43
-4.32
8.73
19.28
27.33
33.09
36.74
38.52
38.69
37.78
36.44
35.38
35.07
35.62
36.82
38.24
39.48
40.29
40.57
40.32
39.53
38.17
36.22
33.7
30.71
27.32
23.54
19.36
14.7
9.55
4.03
-1.7
-7.37
-12.73
-17.67
-22.24
-26.73
-31.58
-37.29
-44.19
-52.29
-61.03
-69.37
-75.82
-78.91
-77.49
-71.1
-60.19
-46.02
-30.37
-15.02
-1.38
9.75
18.18
24.08
27.8
29.65
29.96
29.16
27.82
26.58
26.06
26.58
28.06
30.09
32.09
33.53
34.12
33.86
32.88
31.38
29.42
26.86
23.47
19.02
13.55
7.41
1.14
-4.64
-9.6
-13.75
-17.49
-21.44
-26.2
-32.16
-39.3
-47.11
-54.63
-60.55
-63.48
-62.31
-56.54
-46.52
-33.4
-18.78
-4.36
8.48
18.89
26.5
31.34
33.62
33.68
31.96
29.08
25.8
22.9
21.04
20.51
21.19
22.64
24.24
25.51
26.21
26.33
25.88
24.84
22.93
19.83
15.31
9.43
2.63
-4.42
-11.01
-16.71
-21.54
-25.98
-30.79
-36.74
-44.29
-53.36
-63.16
-72.29
-79.01
-81.63
-79.03
-71.01
-58.38
-42.77
-26.09
-10.15
3.78
15.07
23.66
29.8
33.84
36.11
36.89
36.51
35.45
34.3
33.68
33.98
35.21
36.99
38.68
39.69
39.69
38.73
37.13
35.21
33.04
30.39
26.87
22.11
16.06
9.05
1.68
-5.34
-11.54
-16.77
-21.3
-25.64
-30.34
-35.91
-42.66
-50.62
-59.42
-68.17
-75.43
-79.46
-78.74
-72.44
-60.91
-45.54
-28.38
-11.5
3.54
15.97
25.62
32.69
37.48
40.26
41.36
41.25
40.53
39.84
39.68
40.25
41.48
43.02
44.47
45.47
45.79
45.4
44.41
42.95
41.05
38.66
35.59
31.62
26.6
20.57
13.79
6.73
-0.07
-6.16
-11.29
-15.49
-19.09
-22.64
-26.76
-32.07
-38.97
-47.42
-56.8
-65.84
-72.84
-76.01
-74.03
-66.5
-54.14
-38.56
-21.84
-5.94
7.79
18.67
26.62
31.87
34.72
35.53
34.69
32.84
30.77
29.31
29.02
30.07
32.09
34.47
36.52
37.8
38.17
37.77
36.85
35.52
33.73
31.25
27.8
23.25
17.72
11.59
5.34
-0.55
-5.85
-10.56
-14.93
-19.36
-24.27
-30.05
-36.84
-44.43
-52.09
-58.64
-62.64
-62.77
-58.31
-49.33
-36.73
-22.03
-6.92
7.08
18.87
27.88
33.98
37.34
38.34
37.48
35.37
32.67
30.1
28.3
27.66
28.22
29.63
31.31
32.7
33.43
33.35
32.52
30.93
28.49
25.0
20.32
14.54
8.01
1.25
-5.18
-10.97
-16.14
-21.03
-26.19
-32.2
-39.44
-47.9
-57.04
-65.75
-72.51
-75.72
-74.16
-67.42
-56.06
-41.5
-25.59
-10.18
3.42
14.53
23.04
29.18
33.2
35.31
35.75
34.91
33.38
31.94
31.25
31.67
33.07
34.95
36.67
37.72
37.88
37.25
36.03
34.41
32.35
29.63
25.98
21.2
15.36
8.79
2.06
-4.26
-9.78
-14.46
-18.58
-22.69
-27.34
-32.98
-39.83
-47.83
-56.51
-64.95
-71.79
-75.42
-74.44
-68.19
-57.07
-42.49
-26.46
-10.94
2.67
13.78
22.42
28.96
33.72
36.87
38.46
38.59
37.61
36.13
34.92
34.59
35.46
37.42
39.98
42.53
44.53
45.62
45.66
44.66
42.63
39.67
35.88
31.46
26.61
21.44
16.0
10.28
4.35
-1.57
-7.2
-12.29
-16.76
-20.81
-24.87
-29.46
-35.08
-42.06
-50.33
-59.32
-67.87
-74.33
-76.97
-74.49
-66.56
-53.99
-38.57
-22.46
-7.52
5.06
14.93
22.23
27.29
30.39
31.71
31.51
30.23
28.49
26.98
26.23
26.48
27.59
29.18
30.75
31.93
32.51
32.52
32.1
31.3
30.03
28.0
24.83
20.33
14.6
8.08
1.47
-4.56
-9.61
-13.67
-17.18
-20.74
-25.05
-30.58
-37.5
-45.47
-53.67
-60.83
-65.52
-66.41
-62.73
-54.51
-42.6
-28.48
-13.88
-0.3
11.22
20.21
26.6
30.58
32.41
32.41
30.99
28.73
26.33
24.48
23.7
24.1
25.39
26.98
28.27
28.86
28.7
28.0
26.94
25.49
23.34
20.08
15.44
9.55
2.89
-3.82
-9.98
-15.32
-19.97
-24.34
-29.01
-34.47
-41.04
-48.7
-56.9
-64.56
-70.21
-72.27
-69.58
-61.77
-49.53
-34.39
-18.37
-3.37
9.25
18.91
25.7
30.07
32.5
33.34
32.83
31.22
28.96
26.68
25.06
24.53
25.14
26.49
27.96
28.9
28.93
27.95
26.1
23.7
20.96
18.0
14.7
10.9
6.44
1.4
-3.95
-9.13
-13.75
-17.61
-20.9
-24.09
-27.76
-32.42
-38.38
-45.67
-53.95
-62.48
-70.06
-75.25
-76.59
-73.07
-64.55
-51.82
-36.43
-20.19
-4.75
8.82
19.99
28.69
35.04
39.19
41.33
41.68
40.69
38.95
37.18
36.01
35.85
36.69
38.2
39.82
41.0
41.38
40.87
39.59
37.72
35.39
32.55
29.1
24.88
19.83
14.05
7.77
1.36
-4.81
-10.43
-15.39
-19.8
-24.02
-28.51
-33.73
-39.98
-47.26
-55.19
-62.89
-69.09
-72.34
-71.41
-65.65
-55.28
-41.37
-25.64
-9.92
4.25
15.97
24.87
31.05
34.75
36.29
36.05
34.55
32.45
30.53
29.46
29.59
30.87
32.85
34.83
36.16
36.47
35.7
34.08
31.89
29.31
26.27
22.51
17.83
12.23
6.04
-0.25
-6.08
-11.17
-15.57
-19.62
-23.84
-28.72
-34.59
-41.53
-49.26
-57.13
-64.09
-68.84
-70.08
-66.9
-59.11
-47.36
-33.05
-17.91
-3.64
8.53
17.92
24.4
28.19
29.67
29.32
27.69
25.42
23.22
21.75
21.43
22.3
24.01
25.98
27.68
28.75
29.13
28.87
27.99
26.35
23.66
19.64
14.26
7.78
0.73
-6.25
-12.67
-18.4
-23.64
-28.86
-34.66
-41.49
-49.45
-58.11
-66.45
-72.98
-76.11
-74.54
-67.78
-56.27
-41.39
-25.02
-9.05
5.08
16.53
25.11
30.95
34.41
35.84
35.65
34.33
32.48
30.76
29.77
29.84
30.96
32.75
34.63
36.04
36.61
36.25
35.1
33.34
31.04
28.14
24.42
19.68
13.85
7.15
0.02
-6.99
-13.33
-18.77
-23.38
-27.61
-32.11
-37.55
-44.36
-52.57
-61.6
-70.22
-76.81
-79.63
-77.41
-69.76
-57.37
-41.86
-25.31
-9.63
3.87
14.66
22.83
28.71
32.62
34.8
35.46
34.93
33.79
32.72
32.37
33.1
34.88
37.28
39.66
41.39
42.13
41.82
40.68
39.04
37.1
34.8
31.9
28.01
22.93
16.68
9.62
2.32
-4.61
-10.72
-15.91
-20.37
-24.63
-29.37
-35.22
-42.54
-51.13
-60.12
-68.0
-72.97
-73.46
-68.63
-58.69
-44.87
-28.96
-12.87
1.83
14.19
23.78
30.59
34.82
36.78
36.86
35.6
33.65
31.72
30.48
30.38
31.53
33.68
36.26
38.58
40.07
40.42
39.67
38.04
35.79
33.0
29.58
25.33
20.13
14.09
7.59
1.2
-4.6
-9.6
-13.99
-18.28
-23.12
-29.02
-36.17
-44.29
-52.7
-60.34
-65.9
-68.16
-66.21
-59.71
-49.15
-35.68
-20.91
-6.45
6.39
16.8
24.42
29.19
31.3
31.1
29.22
26.47
23.71
21.64
20.62
20.71
21.68
23.24
25.03
26.66
27.73
27.89
26.88
24.64
21.29
17.08
12.29
7.15
1.86
-3.35
-8.33
-12.99
-17.52
-22.29
-27.83
-34.55
-42.48
-51.01
-58.91
-64.57
-66.33
-63.08
-54.66
-41.97
-26.72
-10.94
3.62
15.83
25.27
32.01
36.36
38.6
38.98
37.83
35.67
33.17
31.05
29.86
29.84
30.82
32.32
33.75
34.64
34.73
34.04
32.67
30.65
27.81
23.85
18.56
11.95
4.39
-3.46
-10.91
-17.47
-23.08
-28.08
-33.1
-38.86
-45.83
-54.1
-63.16
-71.84
-78.53
-81.54
-79.57
-72.18
-59.97
-44.39
-27.36
-10.72
4.18
16.63
26.44
33.72
38.67
41.45
42.31
41.64
40.1
38.44
37.41
37.46
38.63
40.54
42.55
44.01
44.54
44.08
42.85
41.15
39.11
36.67
33.56
29.51
24.36
18.25
11.52
4.62
-1.97
-7.99
-13.33
-18.14
-22.71
-27.46
-32.88
-39.37
-47.1
-55.82
-64.69
-72.28
-76.9
-77.01
-71.79
-61.47
-47.29
-31.12
-14.89
-0.1
12.42
22.41
29.98
35.35
38.79
40.65
41.4
41.61
41.8
42.29
43.22
44.47
45.87
47.2
48.34
49.2
49.66
49.62
48.93
47.43
44.99
41.6
37.34
32.39
27.01
21.41
15.75
10.12
4.56
-0.85
-5.99
-10.71
-14.96
-18.85
-22.66
-26.87
-31.89
-38.1
-45.63
-54.28
-63.42
-71.95
-78.38
-81.11
-78.91
-71.28
-58.81
-43.02
-25.96
-9.65
4.44
15.58
23.71
29.14
32.31
33.59
33.36
32.07
30.32
28.8
28.08
28.51
29.99
32.04
34.06
35.46
35.95
35.55
34.49
33.03
31.22
28.89
25.73
21.49
16.09
9.78
3.09
-3.32
-8.92
-13.45
-17.1
-20.39
-24.01
-28.61
-34.5
-41.57
-49.23
-56.54
-62.34
-65.46
-64.9
-60.15
-51.28
-39.05
-24.79
-10.11
3.49
14.95
23.7
29.65
32.98
34.03
33.2
31.11
28.5
26.22
24.94
25.01
26.27
28.2
30.1
31.39
31.81
31.36
30.22
28.57
26.4
23.54
19.77
14.96
9.18
2.83
-3.53
-9.36
-14.39
-18.74
-22.89
-27.55
-33.37
-40.72
-49.49
-58.99
-68.0
-74.92
-78.13
-76.44
-69.49
-57.9
-43.13
-27.12
-11.67
1.86
12.84
21.2
27.29
31.49
34.21
35.69
36.16
35.9
35.25
34.66
34.49
34.99
36.05
37.35
38.39
38.7
38.09
36.61
34.58
32.25
29.75
26.9
23.4
18.93
13.43
7.15
0.6
-5.64
-11.17
-15.85
-19.89
-23.72
-27.89
-32.92
-39.25
-47.04
-56.03
-65.44
-73.95
-79.95
-81.91
-78.82
-70.53
-57.85
-42.27
-25.6
-9.55
4.6
16.17
24.95
31.1
34.95
36.91
37.39
36.86
35.86
34.94
34.6
35.14
36.61
38.8
41.31
43.62
45.29
46.0
45.62
44.22
41.96
39.02
35.59
31.74
27.51
22.91
18.0
12.87
7.54
2.07
-3.54
-9.25
-14.92
-20.4
-25.59
-30.52
-35.51
-41.02
-47.5
-55.14
-63.62
-71.96
-78.71
-82.15
-80.85
-74.1
-62.22
-46.54
-29.1
-12.04
2.9
14.78
23.43
29.21
32.71
34.47
34.89
34.31
33.13
31.82
30.88
30.73
31.56
33.24
35.4
37.55
39.21
40.09
40.06
39.14
37.44
35.03
32.0
28.42
24.39
20.0
15.29
10.33
5.11
-0.25
-5.62
-10.78
-15.59
-20.0
-24.16
-28.44
-33.26
-39.05
-46.02
-54.02
-62.34
-69.77
-74.71
-75.66
-71.63
-62.57
-49.44
-33.97
-18.14
-3.68
8.31
17.33
23.42
26.83
27.91
27.12
25.08
22.56
20.42
19.37
19.73
21.37
23.76
26.19
28.1
29.21
29.52
29.21
28.43
27.16
25.23
22.35
18.35
13.25
7.33
1.1
-4.89
-10.23
-14.76
-18.7
-22.56
-27.03
-32.72
-39.91
-48.26
-56.78
-63.88
-67.85
-67.24
-61.46
-50.94
-37.02
-21.56
-6.42
6.97
17.84
25.95
31.42
34.44
35.23
34.06
31.41
28.06
24.97
23.07
22.86
24.21
26.44
28.53
29.68
29.57
28.44
26.81
25.1
23.31
21.01
17.64
12.84
6.7
-0.26
-7.33
-13.91
-19.71
-24.78
-29.47
-34.21
-39.51
-45.81
-53.42
-62.25
-71.62
-80.16
-86.08
-87.62
-83.62
-73.99
-59.75
-42.73
-25.08
-8.63
5.36
16.41
24.62
30.44
34.35
36.72
37.8
37.84
37.24
36.55
36.37
37.08
38.67
40.71
42.6
43.8
44.09
43.52
42.28
40.51
38.17
35.13
31.2
26.3
20.5
14.04
7.3
0.76
-5.18
-10.27
-14.56
-18.35
-22.1
-26.33
-31.46
-37.79
-45.36
-53.94
-62.77
-70.58
-75.7
-76.53
-72.06
-62.35
-48.51
-32.39
-16.03
-1.05
11.6
21.63
29.22
34.7
38.38
40.47
41.18
40.83
39.88
38.92
38.46
38.81
39.94
41.55
43.2
44.49
45.18
45.18
44.47
43.0
40.7
37.53
33.56
28.92
23.84
18.49
13.01
7.52
2.16
-2.91
-7.51
-11.58
-15.23
-18.77
-22.64
-27.36
-33.34
-40.78
-49.4
-58.33
-66.22
-71.4
-72.37
-68.25
-59.15
-46.14
-30.93
-15.38
-1.09
10.94
20.24
26.73
30.53
31.92
31.3
29.29
26.69
24.3
22.83
22.62
23.64
25.48
27.57
29.44
30.78
31.5
31.65
31.18
29.98
27.84
24.59
20.21
14.97
9.29
3.69
-1.36
-5.67
-9.3
-12.6
-16.16
-20.64
-26.52
-33.94
-42.44
-50.96
-57.98
-61.92
-61.56
-56.43
-46.97
-34.38
-20.33
-6.43
6.08
16.47
24.48
30.13
33.58
35.02
34.77
33.31
31.3
29.46
28.39
28.42
29.51
31.24
33.03
34.3
34.75
34.33
33.26
31.71
29.72
27.11
23.54
18.76
12.81
6.06
-0.85
-7.28
-12.83
-17.4
-21.35
-25.31
-30.05
-36.28
-44.32
-53.89
-63.94
-72.8
-78.52
-79.44
-74.74
-64.73
-50.78
-34.82
-18.81
-4.25
8.09
18.05
25.77
31.47
35.3
37.38
37.96
37.47
36.48
35.59
35.28
35.8
37.13
39.01
41.0
42.6
43.41
43.19
41.91
39.73
36.86
33.43
29.45
24.82
19.48
13.53
7.23
0.96
-4.97
-10.4
-15.35
-19.98
-24.54
-29.33
-34.7
-41.0
-48.43
-56.9
-65.81
-74.03
-80.02
-82.27
-79.7
-72.04
-59.99
-45.02
-28.95
-13.47
0.23
11.58
20.51
27.23
31.98
35.0
36.54
36.95
36.74
36.45
36.58
37.35
38.74
40.5
42.29
43.84
44.94
45.46
45.27
44.23
42.25
39.32
35.56
31.2
26.54
21.83
17.2
12.67
8.13
3.45
-1.44
-6.46
-11.43
-16.13
-20.43
-24.4
-28.38
-32.87
-38.42
-45.33
-53.49
-62.21
-70.26
-76.02
-77.95
-74.97
-66.82
-54.26
-38.83
-22.44
-6.9
6.54
17.31
25.43
31.18
34.88
36.74
36.96
35.89
34.1
32.37
31.45
31.71
33.08
35.02
36.81
37.88
38.02
37.37
36.19
34.73
32.93
30.57
27.32
23.01
17.69
11.66
5.42
-0.53
-5.85
-10.45
-14.49
-18.28
-22.15
-26.39
-31.16
-36.55
-42.49
-48.64
-54.26
-58.24
-59.31
-56.48
-49.47
-38.81
-25.83
-12.14
0.79
11.94
20.85
27.36
31.48
33.27
32.91
30.78
27.59
24.2
21.48
20.03
20.0
21.1
22.75
24.33
25.32
25.5
24.83
23.44
21.42
18.8
15.49
11.36
6.34
0.58
-5.57
-11.61
-17.02
-21.55
-25.28
-28.71
-32.61
-37.68
-44.32
-52.34
-60.93
-68.73
-74.13
-75.67
-72.43
-64.37
-52.35
-37.94
-22.94
-8.94
3.06
12.69
20.13
25.73
29.8
32.51
33.95
34.32
33.98
33.44
33.23
33.73
35.0
36.77
38.58
39.91
40.44
40.03
38.82
36.99
34.7
31.94
28.6
24.51
19.61
13.99
7.9
1.7
-4.21
-9.54
-14.18
-18.24
-22.04
-26.08
-30.88
-36.86
-44.16
-52.49
-61.13
-68.91
-74.39
-76.17
-73.3
-65.57
-53.71
-39.15
-23.76
-9.24
3.23
13.17
20.67
26.15
30.06
32.73
34.36
35.15
35.34
35.27
35.29
35.69
36.54
37.74
39.05
40.23
41.09
41.53
41.46
40.76
39.23
36.72
33.2
28.89
24.18
19.46
14.96
10.64
6.25
1.54
-3.55
-8.84
-14.0
-18.75
-23.0
-26.92
-30.84
-35.21
-40.46
-46.87
-54.41
-62.54
-70.13
-75.61
-77.39
-74.42
-66.54
-54.59
-40.13
-24.95
-10.52
2.14
12.57
20.64
26.42
30.08
31.85
32.09
31.24
29.8
28.36
27.36
27.16
27.83
29.2
30.89
32.41
33.35
33.47
32.79
31.51
29.84
27.85
25.41
22.25
18.17
13.18
7.54
1.78
-3.6
-8.29
-12.28
-15.83
-19.31
-23.06
-27.37
-32.43
-38.33
-44.96
-51.82
-57.93
-61.91
-62.4
-58.5
-50.19
-38.37
-24.59
-10.6
2.14
12.68
20.63
25.99
29.02
30.09
29.62
28.13
26.14
24.2
22.79
22.24
22.66
23.88
25.44
26.83
27.6
27.58
26.85
25.54
23.73
21.24
17.78
13.14
7.4
1.02
-5.31
-11.0
-15.75
-19.7
-23.35
-27.4
-32.47
-38.95
-46.72
-55.14
-63.02
-68.8
-71.0
-68.59
-61.38
-50.14
-36.33
-21.73
-7.88
4.18
14.01
21.6
27.07
30.53
32.06
31.84
30.32
28.21
26.31
25.3
25.42
26.48
27.94
29.23
29.93
29.89
29.22
28.09
26.66
24.94
22.84
20.16
16.68
12.35
7.24
1.67
-3.94
-9.17
-13.82
-17.95
-21.92
-26.28
-31.61
-38.33
-46.51
-55.68
-64.8
-72.4
-76.82
-76.72
-71.48
-61.45
-47.86
-32.46
-17.07
-3.18
8.33
17.18
23.56
27.89
30.66
32.27
33.01
33.15
32.97
32.82
33.05
33.88
35.32
37.14
38.93
40.29
40.92
40.73
39.74
38.04
35.69
32.73
29.2
25.17
20.75
15.98
10.94
5.69
0.38
-4.83
-9.72
-14.17
-18.21
-22.04
-26.05
-30.69
-36.42
-43.48
-51.81
-60.78
-69.2
-75.42
-77.78
-75.12
-67.23
-54.93
-39.91
-24.22
-9.63
2.75
12.54
19.91
25.22
28.81
30.94
31.83
31.81
31.37
31.06
31.36
32.48
34.35
36.69
39.11
41.26
42.82
43.58
43.38
42.14
39.93
36.93
33.39
29.54
25.51
21.27
16.82
12.15
7.4
2.76
-1.6
-5.65
-9.55
-13.64
-18.3
-23.86
-30.48
-38.16
-46.62
-55.31
-63.27
-69.28
-72.0
-70.43
-64.18
-53.77
-40.52
-26.16
-12.36
-0.33
9.32
16.47
21.3
24.08
25.15
24.9
23.88
22.66
21.77
21.56
22.1
23.24
24.69
26.1
27.19
27.8
27.86
27.33
26.13
24.08
20.98
16.71
11.39
5.44
-0.52
-5.87
-10.26
-13.75
-16.8
-20.1
-24.31
-29.87
-36.81
-44.59
-52.12
-57.93
-60.43
-58.45
-51.6
-40.49
-26.54
-11.58
2.67
14.98
24.71
31.76
36.32
38.73
39.33
38.59
37.01
35.24
33.89
33.43
34.0
35.34
36.91
38.05
38.32
37.57
35.99
33.89
31.5
28.82
25.66
21.73
16.84
11.04
4.62
-1.97
-8.22
-13.75
-18.44
-22.51
-26.48
-31.03
-36.78
-44.04
-52.61
-61.68
-69.9
-75.61
-77.23
-73.72
-64.94
-51.74
-35.83
-19.22
-3.73
9.46
19.92
27.76
33.35
37.01
38.99
39.56
39.14
38.31
37.69
37.75
38.63
40.1
41.71
42.95
43.47
43.11
41.98
40.26
38.17
35.81
33.11
29.88
25.85
20.87
14.98
8.43
1.68
-4.78
-10.53
-15.45
-19.67
-23.58
-27.67
-32.46
-38.36
-45.5
-53.68
-62.18
-69.72
-74.7
-75.57
-71.35
-62.01
-48.61
-32.97
-17.09
-2.62
9.47
18.98
26.1
31.18
34.51
36.31
36.87
36.6
36.02
35.65
35.87
36.8
38.3
40.06
41.77
43.14
43.93
43.95
43.04
41.16
38.35
34.86
30.93
26.78
22.43
17.8
12.76
7.31
1.61
-4.03
-9.26
-13.88
-17.91
-21.59
-25.33
-29.61
-34.86
-41.31
-48.85
-56.84
-64.14
-69.27
-70.77
-67.68
-59.88
-48.18
-34.06
-19.29
-5.38
6.64
16.28
23.46
28.22
30.7
31.1
29.86
27.68
25.44
23.97
23.78
24.91
26.95
29.22
31.1
32.21
32.53
32.21
31.42
30.15
28.21
25.28
21.21
16.06
10.16
4.05
-1.75
-6.91
-11.4
-15.47
-19.59
-24.28
-29.94
-36.68
-44.24
-51.83
-58.25
-62.13
-62.22
-57.86
-49.15
-37.08
-23.14
-9.01
3.97
14.92
23.49
29.62
33.42
35.06
34.79
33.11
30.75
28.55
27.23
27.11
28.04
29.48
30.81
31.51
31.4
30.56
29.2
27.42
25.14
22.14
18.16
13.14
7.22
0.76
-5.78
-11.93
-17.37
-21.98
-25.93
-29.66
-33.8
-39.04
-45.87
-54.32
-63.76
-72.85
-79.78
-82.7
-80.38
-72.56
-60.14
-44.86
-28.77
-13.59
-0.43
10.33
18.77
25.16
29.74
32.72
34.31
34.83
34.73
34.52
34.66
35.41
36.76
38.42
39.96
40.95
41.1
40.38
38.94
36.93
34.48
31.56
28.12
24.08
19.49
14.42
9.07
3.63
-1.63
-6.47
-10.78
-14.67
-18.48
-22.74
-27.98
-34.53
-42.39
