0
-71.51
-52.64
-30.9
-9.8
7.94
21.09
29.88
35.29
38.26
39.22
38.21
35.31
31.08
26.63
23.22
21.73
22.24
24.13
26.34
27.93
28.53
28.36
27.96
27.7
27.47
26.62
24.35
20.16
14.21
7.35
0.73
-4.68
-8.5
-11.19
-13.75
-17.43
-23.28
-31.8
-42.63
-54.45
-65.09
-71.99
-72.93
-66.85
-54.29
-37.28
-18.66
-1.13
13.59
24.95
33.28
39.13
42.77
44.09
42.94
39.59
34.96
30.41
27.23
26.14
27.0
28.99
30.94
31.95
31.65
30.26
28.39
26.62
25.23
24.03
22.48
19.91
15.92
10.57
4.39
-1.78
-7.23
-11.61
-15.15
-18.49
-22.42
-27.58
-34.38
-42.98
-53.26
-64.56
-75.55
-84.12
-87.91
-85.08
-75.07
-59.05
-39.64
-19.91
-2.42
11.5
21.85
29.33
34.77
38.55
40.65
40.99
39.78
37.66
35.5
34.11
33.92
34.89
36.6
38.5
40.18
41.41
42.13
42.31
41.89
40.72
38.72
35.94
32.54
28.75
24.71
20.4
15.66
10.34
4.42
-1.88
-8.14
-13.85
-18.64
-22.47
-25.63
-28.73
-32.64
-38.24
-46.1
-56.04
-66.8
-76.02
-80.85
-78.97
-69.52
-53.63
-34.09
-14.35
2.78
15.82
24.8
30.6
34.18
36.05
36.32
34.99
32.44
29.46
27.07
26.07
26.67
28.49
30.71
32.49
33.32
33.17
32.37
31.36
30.4
29.48
28.3
26.47
23.73
19.98
15.41
10.38
5.35
0.71
-3.33
-6.88
-10.31
-14.17
-18.9
-24.82
-31.95
-40.15
-48.93
-57.39
-64.15
-67.51
-65.96
-58.78
-46.56
-31.09
-14.77
0.21
12.61
22.25
29.51
34.81
38.15
39.21
37.82
34.37
29.86
25.68
22.98
22.27
23.31
25.28
27.24
28.48
28.72
28.1
27.04
25.92
24.96
24.06
22.82
20.69
17.2
12.24
6.09
-0.58
-7.07
-12.81
-17.62
-21.77
-25.75
-30.14
-35.4
-41.9
-49.76
-58.78
-68.16
-76.36
-81.3
-81.0
-74.28
-61.49
-44.44
-25.86
-8.38
6.25
17.5
25.69
31.47
35.21
37.0
36.89
35.23
32.77
30.44
28.93
28.5
28.92
29.77
30.72
31.64
32.6
33.62
34.55
35.07
34.78
33.44
31.05
27.89
24.29
20.54
16.74
12.82
8.65
4.13
-0.66
-5.47
-9.99
-13.97
-17.41
-20.53
-23.78
-27.76
-33.04
-40.02
-48.73
-58.5
-67.87
-74.67
-76.65
-72.21
-61.14
-44.87
-25.97
-7.32
8.89
21.6
30.87
37.32
41.58
44.01
44.64
43.56
41.07
37.77
34.42
31.66
29.84
29.01
28.91
29.21
29.61
29.94
30.07
29.89
29.26
28.03
26.13
23.64
20.77
17.76
14.7
11.55
8.04
3.92
-0.91
-6.26
-11.76
-16.94
-21.48
-25.41
-29.15
-33.32
-38.73
-45.95
-55.11
-65.49
-75.41
-82.47
-84.26
-79.15
-67.12
-49.84
-30.23
-11.34
4.6
16.7
25.24
31.03
34.72
36.47
36.13
33.71
29.78
25.48
22.11
20.63
21.24
23.31
25.79
27.66
28.42
28.13
27.26
26.34
25.61
24.82
23.45
20.88
16.78
11.28
4.98
-1.23
-6.54
-10.48
-13.19
-15.28
-17.63
-21.13
-26.37
-33.61
-42.64
-52.61
-62.05
-68.94
-71.23
-67.45
-57.44
-42.48
-24.93
-7.51
7.66
19.46
27.77
33.04
35.84
36.61
35.71
33.51
30.51
27.4
24.82
23.24
22.96
23.95
25.89
28.24
30.29
31.45
31.38
30.15
28.13
25.79
23.41
20.99
18.21
14.69
10.18
4.75
-1.2
-7.1
-12.44
-17.01
-20.91
-24.45
-28.08
-32.26
-37.4
-44.0
-52.37
-62.4
-73.13
-82.62
-88.23
-87.49
-79.13
-63.75
-43.8
-22.7
-3.62
11.5
22.33
29.67
34.66
38.08
40.14
40.73
39.86
37.95
35.75
34.06
33.41
33.87
35.11
36.62
37.93
38.78
39.09
38.87
38.11
36.77
34.76
32.09
28.84
25.16
21.2
16.95
12.36
7.35
2.04
-3.31
-8.44
-13.14
-17.5
-21.85
-26.63
-32.25
-39.03
-47.16
-56.6
-66.83
-76.5
-83.48
-85.24
-79.86
-66.95
-48.17
-26.77
-6.41
10.14
21.83
29.2
33.59
36.14
37.22
36.58
34.02
29.93
25.38
21.77
20.06
20.36
21.93
23.58
24.36
24.04
23.07
22.24
22.24
23.06
24.13
24.42
23.0
19.41
13.87
7.17
0.45
-5.35
-9.79
-13.06
-15.9
-19.31
-24.19
-31.14
-40.23
-50.89
-61.81
-70.96
-75.92
-74.56
-65.93
-50.76
-31.46
-11.25
6.9
21.22
31.35
37.86
41.51
42.64
41.32
37.64
32.29
26.55
21.94
19.55
19.62
21.44
23.77
25.4
25.67
24.65
22.96
21.39
20.42
19.96
19.36
17.71
14.32
9.06
2.51
-4.28
-10.24
-14.78
-18.03
-20.81
-24.28
-29.48
-37.06
-47.06
-58.86
-71.1
-81.73
-88.3
-88.6
-81.41
-67.15
-47.93
-26.95
-7.38
8.68
20.63
29.07
34.98
38.99
41.1
41.04
38.84
35.22
31.42
28.73
27.92
28.91
30.89
32.83
33.88
33.76
32.63
30.97
29.22
27.63
26.17
24.53
22.25
18.92
14.28
8.46
2.03
-4.25
-9.7
-14.05
-17.53
-20.84
-24.78
-30.02
-36.97
-45.75
-56.05
-66.95
-76.73
-82.99
-83.35
-76.33
-62.18
-42.98
-22.02
-2.55
13.25
24.82
32.84
38.38
42.2
44.37
44.57
42.68
39.06
34.72
30.87
28.48
27.95
28.99
30.82
32.54
33.52
33.56
32.86
31.85
30.89
30.06
29.15
27.68
25.19
21.4
16.38
10.53
4.49
-1.11
-5.89
-9.86
-13.42
-17.18
-21.77
-27.69
-35.24
-44.41
-54.79
-65.31
-74.13
-78.97
-77.77
-69.59
-55.09
-36.56
-17.03
0.71
14.96
25.34
32.29
36.44
38.16
37.54
34.77
30.5
25.91
22.27
20.5
20.73
22.28
24.08
25.07
24.76
23.39
21.67
20.31
19.64
19.35
18.64
16.66
12.93
7.64
1.57
-4.25
-9.03
-12.56
-15.29
-18.15
-22.14
-28.0
-35.88
-45.29
-55.02
-63.27
-68.01
-67.53
-61.02
-49.01
-33.21
-16.1
-0.03
13.44
23.79
31.24
36.26
39.13
39.86
38.45
35.28
31.2
27.37
24.88
24.35
25.69
28.18
30.78
32.5
32.8
31.7
29.75
27.63
25.91
24.56
23.11
20.73
16.78
11.16
4.42
-2.39
-8.29
-12.7
-15.74
-18.17
-21.05
-25.37
-31.81
-40.62
-51.46
-63.38
-74.66
-83.07
-86.25
-82.55
-71.77
-55.32
-35.95
-16.72
-0.06
12.89
22.25
28.81
33.4
36.37
37.73
37.35
35.5
32.84
30.32
28.72
28.41
29.24
30.62
31.87
32.45
32.19
31.21
29.92
28.8
28.13
27.89
27.68
26.81
24.62
20.8
15.54
9.59
3.88
-0.87
-4.52
-7.55
-10.83
-15.22
-21.26
-29.1
-38.49
-48.94
-59.59
-69.06
-75.52
-77.04
-72.31
-61.26
-45.34
-27.06
-9.2
6.18
18.16
26.87
32.89
36.72
38.51
38.25
36.16
32.92
29.51
26.95
25.83
26.14
27.32
28.55
29.2
29.02
28.16
27.05
26.03
25.15
24.11
22.34
19.28
14.71
8.84
2.41
-3.66
-8.56
-11.9
-13.95
-15.5
-17.59
-21.17
-26.83
-34.58
-43.82
-53.33
-61.36
-65.98
-65.54
-59.3
-47.72
-32.49
-15.96
-0.44
12.44
22.07
28.61
32.64
34.62
34.83
33.39
30.62
27.09
23.64
21.1
19.95
20.13
21.09
22.06
22.4
21.92
20.93
20.02
19.65
19.74
19.66
18.5
15.59
10.85
4.97
-0.96
-5.94
-9.51
-11.98
-14.14
-17.03
-21.45
-27.85
-36.31
-46.32
-56.81
-66.0
-71.73
-72.07
-66.04
-54.16
-38.39
-21.43
-5.8
7.02
16.68
23.69
28.79
32.31
34.22
34.3
32.55
29.53
26.17
23.56
22.45
23.11
25.1
27.58
29.66
30.71
30.6
29.6
28.25
27.0
26.05
25.29
24.32
22.67
19.94
15.98
10.95
5.33
-0.29
-5.4
-9.84
-13.77
-17.65
-22.03
-27.36
-34.04
-42.3
-52.05
-62.57
-72.26
-78.81
-79.8
-73.72
-60.68
-42.62
-22.66
-3.98
11.21
22.22
29.55
34.28
37.24
38.83
39.02
37.82
35.56
32.93
30.76
29.68
29.92
31.24
33.03
34.67
35.71
36.01
35.65
34.85
33.75
32.41
30.73
28.57
25.74
22.1
17.64
12.51
7.01
1.52
-3.58
-8.11
-12.08
-15.74
-19.51
-23.89
-29.36
-36.32
-45.03
-55.26
-66.03
-75.49
-81.21
-80.91
-73.41
-59.25
-40.68
-20.91
-3.0
11.14
20.98
27.11
30.39
31.45
30.51
27.81
23.86
19.72
16.67
15.62
16.74
19.38
22.41
24.69
25.59
25.21
24.14
23.07
22.41
21.99
21.15
19.07
15.25
9.8
3.5
-2.59
-7.59
-11.23
-13.93
-16.65
-20.4
-25.92
-33.49
-42.81
-52.93
-62.21
-68.54
-69.77
-64.53
-52.92
-36.6
-18.36
-1.09
13.24
23.92
31.29
36.06
38.66
39.07
37.19
33.24
28.09
23.08
19.55
18.24
19.09
21.27
23.55
24.9
24.82
23.55
21.81
20.39
19.63
19.23
18.34
15.95
11.47
5.03
-2.53
-9.93
-16.1
-20.63
-23.96
-27.21
-31.65
-38.23
-47.31
-58.5
-70.68
-82.15
-90.67
-93.89
-90.05
-78.67
-60.97
-39.7
-18.29
0.32
14.56
24.45
31.0
35.37
38.12
39.21
38.41
35.83
32.29
28.98
27.06
27.06
28.77
31.3
33.59
34.78
34.58
33.24
31.38
29.62
28.24
27.01
25.28
22.31
17.68
11.61
4.9
-1.37
-6.38
-9.97
-12.71
-15.63
-19.75
-25.75
-33.78
-43.65
-54.7
-65.81
-75.25
-80.85
-80.56
-73.19
-59.14
-40.39
-19.96
-0.82
15.02
26.89
35.18
40.68
43.9
44.91
43.64
40.31
35.73
31.2
28.06
27.11
28.25
30.59
32.87
34.04
33.72
32.29
30.49
28.99
27.92
26.79
24.76
21.08
15.55
8.64
1.33
-5.39
-10.85
-15.08
-18.7
-22.66
-27.82
-34.74
-43.56
-53.9
-64.85
-74.79
-81.6
-83.05
-77.62
-65.18
-47.34
-26.95
-7.21
9.48
22.01
30.5
35.63
38.0
37.92
35.57
31.47
26.62
22.3
19.6
18.91
19.89
21.67
23.33
24.26
24.39
23.96
23.23
22.26
20.8
18.42
14.91
10.36
5.25
0.27
-4.08
-7.72
-10.98
-14.61
-19.37
-25.91
-34.54
-44.96
-56.05
-65.89
-72.08
-72.42
-65.85
-52.93
-35.85
-17.64
-1.1
12.14
21.73
28.31
32.68
35.29
36.12
35.11
32.48
29.04
25.93
24.11
23.98
25.24
27.04
28.45
28.89
28.3
27.14
25.93
24.92
23.9
22.25
19.31
14.78
8.94
2.55
-3.48
-8.49
-12.33
-15.42
-18.51
-22.51
-28.2
-36.11
-46.25
-57.82
-69.06
-77.49
-80.56
-76.58
-65.53
-49.18
-30.49
-12.51
2.69
14.47
23.31
30.08
35.26
38.72
40.04
38.97
35.94
32.04
28.65
26.86
27.05
28.79
31.12
32.93
33.58
32.95
31.51
29.92
28.7
27.96
27.31
26.15
23.89
20.3
15.6
10.35
5.31
1.01
-2.39
-5.19
-8.01
-11.48
-16.14
-22.29
-30.1
-39.51
-49.99
-60.35
-68.64
-72.59
-70.3
-61.22
-46.45
-28.57
-10.57
5.1
17.3
26.15
32.39
36.71
39.31
40.1
39.02
36.44
33.26
30.51
29.0
28.99
30.23
32.16
34.19
35.92
37.12
37.71
37.6
36.79
35.34
33.42
31.21
28.73
25.75
21.88
16.84
10.75
4.17
-2.07
-7.35
-11.53
-15.11
-18.92
-23.74
-30.07
-38.03
-47.53
-58.19
-69.23
-79.07
-85.49
-86.14
-79.51
-65.75
-46.92
-26.28
-7.12
8.32
19.36
26.52
30.83
32.98
33.27
31.77
28.84
25.33
22.4
21.0
21.45
23.28
25.52
27.17
27.7
27.24
26.42
25.91
26.01
26.45
26.43
25.06
21.78
16.69
10.52
4.34
-0.98
-5.06
-8.23
-11.3
-15.23
-20.83
-28.54
-38.27
-49.32
-60.18
-68.69
-72.49
-69.76
-60.1
-44.83
-26.65
-8.72
6.5
17.94
25.83
31.12
34.56
36.4
36.37
34.32
30.62
26.26
22.59
20.72
21.06
23.17
25.92
28.05
28.69
27.7
25.72
23.72
22.44
21.97
21.69
20.54
17.62
12.62
6.0
-1.24
-8.01
-13.63
-18.0
-21.67
-25.45
-30.21
-36.56
-44.83
-54.95
-66.25
-77.3
-85.8
-89.14
-85.2
-73.35
-54.99
-33.26
-11.93
5.96
19.06
27.77
33.46
37.42
40.16
41.41
40.75
38.24
34.71
31.41
29.48
29.41
30.92
33.13
35.03
35.9
35.54
34.18
32.34
30.58
29.2
28.12
26.92
24.97
21.71
16.96
11.02
4.62
-1.44
-6.57
-10.71
-14.23
-17.84
-22.18
-27.73
-34.71
-43.19
-52.99
-63.46
-73.17
-79.88
-81.12
-75.13
-61.79
-42.95
-21.89
-2.11
13.92
25.41
33.0
37.9
41.0
42.42
41.87
39.22
35.05
30.61
27.3
26.0
26.66
28.4
30.04
30.7
30.14
28.83
27.52
26.71
26.41
26.04
24.71
21.68
16.72
10.19
2.98
-3.87
-9.57
-13.88
-17.17
-20.24
-24.05
-29.45
-36.94
-46.55
-57.68
-68.9
-78.02
-82.49
-80.24
-70.51
-54.37
-34.45
-14.07
3.89
17.86
27.58
33.68
36.94
37.81
36.51
33.41
29.32
25.43
22.95
22.51
23.95
26.33
28.49
29.51
29.14
27.75
26.02
24.47
23.07
21.28
18.38
13.89
7.9
1.1
-5.53
-11.19
-15.65
-19.28
-22.93
-27.57
-33.98
-42.51
-52.95
-64.22
-74.34
-80.7
-80.77
-73.13
-58.16
-38.23
-16.87
2.45
17.63
28.27
35.29
39.89
42.74
43.7
42.31
38.56
33.28
28.01
24.38
23.31
24.61
27.15
29.46
30.38
29.58
27.53
25.15
23.23
22.01
21.04
19.38
16.12
10.85
3.99
-3.47
-10.25
-15.49
-19.05
-21.59
-24.28
-28.26
-34.37
-42.97
-53.92
-66.36
-78.67
-88.38
-92.74
-89.51
-78.06
-59.87
-38.14
-16.71
1.38
14.75
23.74
29.54
33.28
35.36
35.64
34.01
30.89
27.46
25.08
24.78
26.73
30.2
33.89
36.54
37.46
36.73
35.09
33.45
32.43
32.05
31.68
30.42
27.48
22.66
16.32
9.4
2.95
-2.31
-6.18
-9.11
-11.97
-15.8
-21.41
-29.3
-39.46
-51.35
-63.73
-74.67
-81.71
-82.49
-75.61
-61.4
-42.03
-20.88
-1.4
14.11
25.03
32.09
36.48
39.01
39.84
38.75
35.84
31.86
28.02
25.56
25.05
26.19
28.02
29.47
29.86
29.2
28.09
27.26
27.12
27.47
27.53
26.32
23.16
18.05
11.72
5.3
-0.2
-4.37
-7.57
-10.74
-14.93
-20.93
-29.04
-39.06
-50.3
-61.57
-71.05
-76.58
-76.13
-68.64
-54.64
-36.29
-16.75
0.93
14.71
24.03
29.45
31.94
32.26
30.81
27.89
24.04
20.14
17.2
15.89
16.25
17.71
19.43
20.7
21.3
21.42
21.48
21.67
21.79
21.29
19.5
16.1
11.24
5.57
-0.09
-5.1
-9.26
-12.92
-16.78
-21.69
-28.39
-37.27
-48.08
-59.63
-69.73
-75.72
-75.27
-67.4
-53.05
-34.83
-16.06
0.44
13.25
22.32
28.46
32.41
34.45
34.49
32.55
29.22
25.59
22.89
21.91
22.66
24.46
26.34
27.47
27.51
26.63
25.33
24.1
23.16
22.29
20.91
18.38
14.32
8.81
2.46
-3.86
-9.42
-13.89
-17.55
-21.14
-25.57
-31.68
-39.99
-50.5
-62.47
-74.24
-83.41
-87.39
-84.26
-73.64
-56.98
-37.14
-17.38
-0.21
13.24
23.14
30.31
35.49
38.92
40.46
40.02
37.94
35.08
32.47
30.99
30.96
32.09
33.64
34.77
34.93
34.06
32.52
30.84
29.43
28.31
27.12
25.31
22.41
18.29
13.27
7.95
3.05
-0.94
-3.95
-6.39
-8.97
-12.49
-17.59
-24.66
-33.78
-44.58
-56.13
-66.84
-74.57
-77.18
-73.26
-62.76
-47.11
-28.94
-10.99
4.67
17.14
26.54
33.39
38.06
40.52
40.64
38.54
35.01
31.26
28.56
27.71
28.76
31.02
33.46
35.15
35.62
34.98
33.71
32.39
31.38
30.57
29.48
27.46
24.02
19.16
13.38
7.52
2.37
-1.68
-4.79
-7.63
-11.08
-15.83
-22.36
-30.78
-40.92
-52.11
-62.98
-71.58
-75.65
-73.43
-64.4
-49.7
-31.86
-13.88
1.77
13.84
22.34
27.96
31.38
32.93
32.62
30.61
27.49
24.28
22.05
21.43
22.33
24.03
25.58
26.22
25.75
24.52
23.11
22.03
21.32
20.58
19.17
16.51
12.44
7.31
1.88
-3.1
-7.16
-10.36
-13.27
-16.71
-21.44
-27.97
-36.4
-46.29
-56.56
-65.47
-70.85
-70.75
-64.11
-51.43
-34.68
-16.73
-0.26
13.08
22.97
30.05
35.08
38.42
39.86
39.11
36.22
31.96
27.62
24.47
23.34
24.25
26.5
29.02
30.89
31.59
31.13
29.88
28.38
26.95
25.62
24.08
21.83
18.44
13.74
8.0
1.79
-4.12
-9.15
-13.1
-16.29
-19.42
-23.32
-28.62
-35.67
-44.48
-54.72
-65.59
-75.67
-82.92
-85.1
-80.49
-68.77
-51.33
-30.93
-10.82
6.49
19.83
29.39
36.04
40.63
43.46
44.5
43.66
41.31
38.22
35.38
33.59
33.18
33.98
35.48
37.11
38.45
39.25
39.46
39.08
38.13
36.63
34.58
32.04
29.11
25.91
22.49
18.76
14.52
9.6
4.03
-1.91
-7.77
-13.11
-17.81
-22.17
-26.84
-32.59
-40.12
-49.69
-60.91
-72.5
-82.35
-87.9
-86.88
-78.25
-62.72
-42.77
-21.8
-2.98
11.76
22.05
28.66
32.71
35.01
35.81
35.11
33.08
30.33
27.82
26.46
26.69
28.33
30.57
32.44
33.17
32.61
31.15
29.55
28.43
27.89
27.42
26.15
23.26
18.48
12.28
5.68
-0.27
-4.88
-8.19
-10.77
-13.56
-17.46
-23.14
-30.88
-40.47
-51.07
-61.09
-68.3
-70.47
-66.1
-55.13
-39.17
-21.0
-3.57
10.95
21.75
29.09
33.74
36.33
37.05
35.85
32.84
28.66
24.43
21.39
20.38
21.52
24.13
27.0
28.93
29.14
27.57
24.84
21.86
19.4
17.64
16.13
13.98
10.38
5.02
-1.68
-8.75
-15.1
-20.05
-23.57
-26.34
-29.45
-33.92
-40.48
-49.33
-60.07
-71.49
-81.6
-87.86
-87.84
-80.14
-65.11
-45.02
-23.34
-3.53
12.15
23.2
30.52
35.44
38.9
40.99
41.37
39.82
36.74
33.2
30.42
29.27
29.9
31.75
33.85
35.33
35.69
35.01
33.71
32.33
31.17
30.15
28.77
26.4
22.52
17.05
10.44
3.51
-2.85
-8.1
-12.22
-15.77
-19.54
-24.31
-30.55
-38.45
-47.89
-58.48
-69.25
-78.48
-83.87
-83.17
-75.15
-60.23
-40.62
-19.56
-0.12
15.81
27.76
36.31
42.24
45.94
47.29
46.13
42.72
38.01
33.4
30.19
29.02
29.76
31.53
33.21
33.96
33.49
32.16
30.63
29.43
28.7
28.04
26.7
23.94
19.34
13.07
5.78
-1.6
-8.19
-13.53
-17.73
-21.45
-25.59
-31.0
-38.24
-47.46
-58.33
-69.86
-80.26
-87.12
-87.98
-81.25
-66.98
-47.17
-25.16
-4.43
12.56
24.9
33.0
37.78
39.94
39.71
37.16
32.78
27.66
23.27
20.83
20.78
22.65
25.32
27.6
28.76
28.72
27.92
26.87
25.77
24.33
21.94
18.04
12.55
6.0
-0.7
-6.68
-11.53
-15.5
-19.34
-24.01
-30.33
-38.79
-49.24
-60.8
-71.59
-79.12
-80.8
-74.94
-61.59
-42.74
-21.75
-2.1
13.75
25.07
32.43
36.94
39.41
39.96
38.46
34.97
30.34
25.91
23.09
22.62
24.35
27.25
29.98
31.41
31.13
29.49
27.27
25.28
23.85
22.68
20.95
17.73
12.53
5.55
-2.29
-9.83
-16.15
-20.99
-24.87
-28.71
-33.51
-40.01
-48.59
-59.15
-70.93
-82.32
-90.85
-93.76
-88.92
-75.81
-56.1
-33.09
-10.58
8.51
22.97
33.12
39.99
44.44
46.65
46.41
43.68
39.12
34.05
29.98
27.97
28.14
29.78
31.68
32.7
32.33
30.75
28.71
27.08
26.33
26.25
26.01
24.53
20.99
15.33
8.31
1.17
-4.93
-9.37
-12.46
-15.11
-18.5
-23.62
-30.96
-40.57
-51.94
-63.88
-74.42
-81.04
-81.25
-73.6
-58.43
-38.01
-15.86
4.5
20.77
32.28
39.68
44.08
46.24
46.36
44.37
40.53
35.67
31.07
27.86
26.54
26.85
27.92
28.78
28.85
28.14
27.08
26.17
25.59
25.03
23.79
21.13
16.66
10.57
3.63
-3.22
-9.15
-13.9
-17.84
-21.8
-26.79
-33.66
-42.8
-53.99
-66.11
-77.11
-84.32
-85.18
-78.13
-63.46
-43.34
-21.21
-0.56
16.19
28.19
35.87
40.15
41.77
41.03
38.15
33.64
28.46
23.82
20.64
19.26
19.39
20.38
21.55
22.51
23.15
23.43
23.3
22.5
20.7
17.68
13.47
8.41
3.04
-2.12
-6.78
-11.02
-15.25
-20.1
-26.28
-34.37
-44.58
-56.35
-68.05
-77.16
-80.86
-77.12
-65.59
-47.98
-27.5
-7.61
9.09
21.6
30.17
35.59
38.43
38.81
36.73
32.62
27.55
22.94
20.03
19.31
20.42
22.43
24.3
25.42
25.72
25.51
25.17
24.82
24.18
22.63
19.54
14.61
8.12
0.92
-5.95
-11.6
-15.77
-18.91
-22.04
-26.38
-33.0
-42.4
-54.24
-67.19
-78.94
-86.66
-87.81
-81.06
-66.98
-47.91
-27.24
-8.18
7.23
18.53
26.38
31.77
35.35
37.23
37.25
35.47
32.5
29.33
26.98
26.09
26.61
27.94
29.2
29.72
29.37
28.52
27.8
27.68
28.06
28.26
27.29
24.33
19.22
12.58
5.62
-0.45
-4.9
-7.82
-10.06
-12.9
-17.59
-24.9
-34.96
-47.02
-59.53
-70.24
-76.65
-76.73
-69.58
-55.88
-37.76
-18.16
0.12
15.29
26.76
34.89
40.28
43.38
44.25
42.92
39.81
35.82
32.22
30.1
29.9
31.31
33.41
35.14
35.83
35.38
34.22
32.97
32.01
31.27
30.22
28.14
24.49
19.2
12.71
5.88
-0.47
-5.79
-10.12
-13.96
-18.13
-23.45
-30.55
-39.72
-50.7
-62.47
-73.19
-80.43
-81.81
-75.94
-63.02
-44.96
-24.8
-5.61
10.46
22.59
30.93
36.05
38.31
37.83
34.79
29.87
24.29
19.53
16.69
16.09
17.25
19.16
20.84
21.76
21.93
21.63
21.14
20.44
19.18
16.97
13.58
9.16
4.24
-0.5
-4.55
-7.79
-10.53
-13.43
-17.26
-22.74
-30.29
-39.86
-50.6
-60.83
-68.19
-70.34
-65.81
-54.63
-38.54
-20.4
-3.11
11.37
22.34
30.17
35.57
38.9
40.11
38.99
35.75
31.3
27.05
24.34
23.86
25.33
27.7
29.68
30.41
29.75
28.22
26.56
25.25
24.21
22.8
20.22
15.92
9.93
2.9
-4.16
-10.3
-15.03
-18.48
-21.33
-24.55
-29.1
-35.77
-44.84
-55.96
-67.84
-78.29
-84.58
-84.28
-76.26
-61.28
-41.91
-21.6
-3.35
11.16
21.83
29.53
35.2
39.22
41.4
41.4
39.35
36.01
32.58
30.2
29.54
30.58
32.76
35.17
36.99
37.71
37.24
35.92
34.26
32.69
31.31
29.81
27.66
24.32
19.62
13.83
7.59
1.69
-3.28
-7.2
-10.39
-13.54
-17.42
-22.71
-29.88
-39.11
-50.16
-62.08
-73.17
-81.06
-83.34
-78.41
-66.2
-48.4
-27.96
-8.03
9.04
22.27
31.9
38.73
43.39
46.07
46.59
44.94
41.62
37.67
34.36
32.68
32.92
34.63
36.83
38.5
38.97
38.2
36.64
34.88
33.36
32.07
30.59
28.28
24.6
19.41
13.04
6.21
-0.25
-5.73
-10.1
-13.77
-17.49
-22.03
-28.04
-35.79
-45.27
-56.11
-67.34
-77.4
-84.11
-85.23
-79.31
-66.34
-47.97
-27.13
-6.93
10.27
23.38
32.4
37.88
40.35
40.15
37.65
33.49
28.77
24.79
22.55
22.42
23.98
26.29
28.32
29.39
29.35
28.55
27.52
26.53
25.45
23.73
20.74
16.14
10.25
3.83
-2.13
-6.99
-10.73
-13.98
-17.7
-22.86
-30.13
-39.66
-50.91
-62.54
-72.42
-77.97
-76.97
-68.49
-53.42
-34.35
-14.61
2.91
16.76
26.95
34.3
39.52
42.66
43.27
40.99
36.25
30.36
25.17
22.22
22.2
24.65
28.26
31.51
33.31
33.32
31.95
30.01
28.17
26.62
24.92
22.34
18.17
12.24
4.95
-2.84
-10.18
-16.41
-21.39
-25.48
-29.4
-33.95
-39.87
-47.64
-57.44
-68.88
-80.7
-90.71
-96.11
-94.38
-84.27
-66.6
-44.11
-20.61
0.42
16.91
28.58
36.4
41.63
44.99
46.54
45.98
43.39
39.49
35.51
32.74
31.9
32.95
35.08
37.2
38.36
38.15
36.7
34.65
32.69
31.24
30.25
29.19
27.27
23.83
18.7
12.25
5.37
-0.99
-6.2
-10.21
-13.57
-17.18
-21.92
-28.33
-36.67
-46.8
-58.19
-69.65
-79.28
-84.63
-83.39
-74.33
-58.06
-37.03
-14.84
5.09
20.64
31.41
38.28
42.46
44.71
45.1
43.4
39.7
34.86
30.28
27.32
26.64
27.9
29.99
31.59
31.86
30.75
28.92
27.21
26.12
25.5
24.59
22.42
18.34
12.4
5.34
-1.74
-7.84
-12.51
-15.97
-18.99
-22.55
-27.47
-34.29
-43.14
-53.62
-64.66
-74.37
-80.31
-80.07
-72.33
-57.52
-37.83
-16.6
2.89
18.43
29.31
35.95
39.2
39.81
38.19
34.78
30.26
25.76
22.42
20.96
21.38
22.96
24.69
25.7
25.73
25.04
24.18
23.45
22.72
21.36
18.64
14.13
8.02
1.07
-5.74
-11.64
-16.44
-20.56
-24.77
-29.95
-36.82
-45.79
-56.64
-68.38
-79.01
-85.82
-86.16
-78.46
-63.14
-42.61
-20.52
-0.38
15.61
26.97
34.47
39.16
41.59
41.71
39.32
34.74
29.12
24.09
21.03
20.46
21.84
23.85
25.11
24.83
23.05
20.55
18.29
16.88
16.23
15.62
14.06
10.83
5.84
-0.31
-6.62
-12.19
-16.62
-20.17
-23.61
-27.79
-33.47
-41.08
-50.67
-61.8
-73.27
-83.05
-88.61
-87.63
-78.98
-63.37
-43.27
-22.09
-2.93
12.4
23.57
31.24
36.24
39.01
39.56
37.87
34.39
30.18
26.55
24.64
24.84
26.74
29.34
31.46
32.32
31.82
30.43
28.94
27.94
27.47
27.01
25.72
22.93
18.45
12.75
6.7
1.15
-3.39
-6.96
-10.09
-13.47
-17.77
-23.5
-30.95
-40.13
-50.54
-60.95
-69.4
-73.64
-71.85
-63.45
-49.41
-32.02
-14.09
2.08
15.24
25.24
32.56
37.64
40.57
41.19
39.48
35.93
31.59
27.73
25.35
24.79
25.66
27.06
28.07
28.18
27.38
26.12
24.91
23.96
23.09
21.78
19.47
15.85
11.1
5.73
0.47
-4.08
-7.7
-10.65
-13.54
-17.13
-22.08
-28.81
-37.46
-47.73
-58.74
-68.92
-76.11
-78.15
-73.6
-62.45
-46.3
-27.83
-9.88
5.54
17.6
26.45
32.57
36.18
37.22
35.66
31.94
27.14
22.68
19.72
18.76
19.47
21.0
22.41
23.1
22.98
22.27
21.31
20.23
18.84
16.8
13.81
9.86
5.27
0.61
-3.65
-7.33
-10.72
-14.39
-19.01
-25.13
-32.88
-41.91
-51.21
-59.23
-64.13
-64.29
-58.83
-48.03
-33.33
-16.89
-0.9
13.03
24.14
32.44
38.26
41.9
43.47
43.07
41.05
38.16
35.41
33.83
34.02
35.94
38.92
42.03
44.41
45.66
45.86
45.49
45.08
44.98
45.2
45.43
45.27
44.4
42.82
40.81
38.78
37.11
35.88
34.91
33.83
32.31
30.31
28.03
25.86
24.1
22.86
22.01
21.23
20.26
18.88
17.04
14.83
12.38
9.92
7.69
5.87
4.53
3.59
2.78
1.77
0.27
-1.81
-4.28
-6.8
-8.96
-10.52
-11.59
-12.59
-14.1
-16.61
-20.25
-24.65
-29.19
-33.2
-36.4
-39.0
-41.71
-45.39
-50.66
-57.51
-65.28
-72.9
-79.29
-83.89
-86.88
-89.18
-92.16
-97.26
-105.64
-117.77
-133.02
-149.23
-162.59
-168.38
-162.32
-142.35
-109.97
-70.12
-29.61
5.22
30.7
46.54
54.94
58.86
60.37
60.12
57.92
53.83
48.74
44.34
42.17
42.85
45.73
49.26
51.82
52.49
51.38
49.42
47.76
47.08
47.2
47.13
45.59
41.64
35.17
27.05
18.74
11.7
6.75
3.75
1.69
-0.84
-5.12
-11.84
-20.98
-31.87
-43.28
-53.57
-60.84
-63.26
-59.61
-49.75
-34.83
-17.07
0.87
16.7
29.11
37.8
43.12
45.59
45.6
43.41
39.44
34.47
29.53
25.62
23.31
22.56
22.82
23.4
23.75
23.64
23.11
22.26
21.02
19.14
16.27
12.26
7.25
1.78
-3.48
-7.91
-11.32
-14.05
-16.92
-20.97
-27.17
-36.06
-47.38
-59.86
-71.23
-78.68
-79.69
-72.93
-58.92
-39.94
-19.27
-0.05
15.72
27.49
35.76
41.33
44.73
45.94
44.79
41.43
36.57
31.42
27.27
24.99
24.71
25.85
27.39
28.36
28.29
27.3
25.98
24.94
24.38
23.87
22.57
19.63
14.69
8.13
0.98
-5.6
-10.86
-14.78
-18.1
-21.94
-27.37
-35.0
-44.95
-56.83
-69.75
-82.2
-92.05
-96.83
-94.44
-84.02
-66.63
-45.04
-22.83
-3.15
12.27
23.31
30.91
36.18
39.79
41.83
42.31
41.44
39.79
38.13
37.06
36.79
37.24
38.15
39.28
40.49
41.58
42.3
42.32
41.33
39.15
35.86
31.75
27.22
22.6
18.05
13.52
8.85
3.83
-1.62
-7.37
-13.16
-18.67
-23.66
-28.13
-32.32
-36.71
-41.97
-48.86
-57.9
-68.97
-80.89
-91.39
-97.56
-96.73
-87.67
-71.14
-49.75
-27.04
-6.24
10.74
23.51
32.67
39.13
43.44
45.77
46.15
44.89
42.67
40.4
38.82
38.27
38.52
39.05
39.34
39.22
38.93
38.92
39.57
40.82
42.07
42.44
41.1
37.74
32.78
27.2
22.12
18.29
15.8
14.01
11.9
8.55
3.56
-2.76
-9.56
-15.88
-21.08
-25.12
-28.61
-32.49
-37.73
-45.1
-54.91
-66.65
-78.87
-89.17
-94.69
-93.06
-83.35
-66.57
-45.52
-23.67
-4.03
11.77
23.53
31.94
37.71
41.21
42.44
41.49
38.85
35.51
32.5
30.61
30.07
30.66
31.91
33.4
34.88
36.23
37.39
38.22
38.49
37.91
36.34
33.8
30.53
26.88
23.17
19.57
16.08
12.58
8.89
4.92
0.67
-3.8
-8.35
-12.88
-17.35
-21.75
-26.23
-31.1
-36.93
-44.29
-53.43
-63.74
-73.52
-80.23
-81.26
-74.96
-61.5
-42.91
-22.44
-3.34
12.23
23.62
31.42
36.6
39.87
41.37
40.95
38.7
35.24
31.63
28.94
27.79
28.1
29.28
30.52
31.19
31.07
30.27
29.06
27.74
26.48
25.26
23.96
22.34
20.1
16.99
12.89
7.93
2.39
-3.27
-8.65
-13.49
-17.75
-21.67
-25.61
-30.06
-35.51
-42.44
-51.08
-61.21
-71.81
-81.05
-86.53
-86.03
-78.37
-63.97
-44.91
-24.22
-4.88
11.06
22.86
30.9
36.02
38.95
40.11
39.68
37.94
35.47
32.94
31.08
30.22
30.34
31.16
32.32
33.53
34.71
35.8
36.71
37.16
36.81
35.32
32.57
28.8
24.51
20.27
16.45
13.06
9.72
5.91
1.32
-3.98
-9.53
-14.76
-19.24
-22.98
-26.39
-30.18
-35.12
-41.88
-50.8
-61.62
-73.21
-83.49
-89.83
-89.8
-82.1
-67.25
-47.56
-26.33
-6.74
9.21
20.99
29.22
34.89
38.7
40.86
41.27
40.06
37.8
35.42
33.87
33.64
34.64
36.28
37.83
38.84
39.32
39.63
40.13
40.88
41.51
41.32
39.73
36.58
32.23
27.51
23.24
19.91
17.39
15.03
11.98
7.61
1.83
-4.92
-11.8
-18.03
-23.19
-27.34
-31.02
-35.01
-40.11
-46.92
-55.66
-65.88
-76.18
-84.27
-87.46
-83.56
-71.89
-53.77
-32.16
-10.68
7.69
21.51
30.87
36.77
40.27
41.88
41.66
39.59
36.07
31.99
28.52
26.55
26.47
28.01
30.42
32.82
34.48
35.01
34.43
33.07
31.32
29.54
27.78
25.85
23.37
19.94
15.4
9.89
3.86
-2.08
-7.42
-11.94
-15.74
-19.23
-22.85
-27.05
-32.18
-38.59
-46.48
-55.68
-65.27
-73.45
-77.84
-76.24
-67.61
-52.65
-33.7
-13.93
3.83
17.93
28.13
35.12
39.68
42.18
42.52
40.51
36.47
31.36
26.59
23.47
22.64
23.84
26.01
27.86
28.48
27.68
25.9
23.95
22.4
21.35
20.35
18.7
15.77
11.32
5.59
-0.79
-7.06
-12.58
-17.08
-20.7
-23.99
-27.64
-32.32
-38.5
-46.4
-55.95
-66.54
-76.86
-84.8
-87.84
-83.86
-72.05
-53.61
-31.39
-9.12
10.0
24.22
33.42
38.64
41.17
41.89
41.16
39.05
35.79
32.0
28.58
26.39
25.96
27.24
29.66
32.29
34.24
34.91
34.19
32.48
30.37
28.38
26.67
24.97
22.74
19.43
14.76
8.88
2.36
-4.09
-9.84
-14.66
-18.75
-22.63
-26.9
-31.97
-38.06
-45.36
-54.0
-63.94
-74.44
-83.78
-89.42
-88.73
