0
2.83
2.01
2.71
4.59
7.12
9.68
11.69
12.74
12.74
11.82
10.21
8.1
5.49
2.25
-1.71
-6.34
-11.33
-16.27
-20.74
-24.55
-27.72
-30.52
-33.34
-36.65
-40.85
-46.19
-52.48
-58.95
-64.2
-66.45
-64.08
-56.22
-43.1
-26.1
-7.27
11.18
27.5
40.62
50.14
56.13
58.88
58.72
56.01
51.12
44.48
36.68
28.39
20.4
13.41
7.95
4.24
2.2
1.57
2.05
3.38
5.34
7.72
10.17
12.23
13.37
13.12
11.27
7.9
3.44
-1.51
-6.35
-10.68
-14.37
-17.62
-20.72
-24.0
-27.69
-31.99
-37.06
-42.95
-49.33
-55.27
-59.28
-59.66
-55.11
-45.28
-31.06
-14.23
3.07
19.01
32.38
42.65
49.72
53.64
54.56
52.68
48.35
42.13
34.7
26.81
19.13
12.19
6.31
1.66
-1.66
-3.6
-4.06
-3.07
-0.84
2.09
4.95
6.92
7.44
6.39
4.1
1.16
-1.82
-4.52
-6.95
-9.37
-12.17
-15.72
-20.29
-26.0
-32.63
-39.5
-45.43
-48.91
-48.5
-43.36
-33.6
-20.3
-5.22
9.78
23.19
34.1
42.1
47.1
49.14
48.3
44.81
39.07
31.71
23.51
15.28
7.72
1.36
-3.47
-6.66
-8.3
-8.62
-7.99
-6.8
-5.51
-4.54
-4.2
-4.62
-5.68
-7.11
-8.65
-10.2
-11.97
-14.42
-18.07
-23.28
-29.97
-37.46
-44.47
-49.33
-50.42
-46.61
-37.71
-24.55
-8.82
7.45
22.44
34.91
44.35
50.71
54.09
54.61
52.34
47.42
40.28
31.64
22.43
13.64
6.15
0.52
-3.02
-4.6
-4.58
-3.49
-1.87
-0.17
1.28
2.27
2.58
2.03
0.51
-1.98
-5.32
-9.39
-14.18
-19.81
-26.38
-33.59
-40.53
-45.66
-47.21
-43.81
-35.11
-21.95
-6.14
10.13
24.99
37.21
46.26
52.13
55.0
55.05
52.41
47.26
39.95
31.09
21.51
12.18
4.04
-2.27
-6.47
-8.66
-9.24
-8.74
-7.66
-6.43
-5.3
-4.46
-3.98
-3.92
-4.36
-5.44
-7.42
-10.63
-15.4
-21.8
-29.44
-37.38
-44.11
-47.95
-47.48
-42.05
-31.97
-18.46
-3.3
11.68
24.99
35.66
43.23
47.59
48.79
46.99
42.45
35.61
27.18
18.1
9.4
1.97
-3.64
-7.37
-9.55
-10.7
-11.31
-11.58
-11.54
-11.11
-10.33
-9.4
-8.69
-8.61
-9.55
-11.82
-15.64
-21.11
-28.04
-35.79
-43.18
-48.63
-50.55
-47.86
-40.47
-29.26
-15.88
-2.12
10.48
20.96
28.81
33.75
35.52
33.85
28.73
20.62
10.51
-0.18
-10.07
-18.15
-24.04
-27.97
-30.52
-32.27
-33.57
-34.49
-34.94
-34.82
-34.28
-33.7
-33.68
-34.8
-37.55
-42.16
-48.52
-55.98
-63.33
-68.86
-70.64
-67.1
-57.5
-42.23
-22.72
-0.97
20.95
41.31
58.9
72.92
82.8
88.14
88.8
85.01
77.54
67.62
56.74
46.31
37.38
30.4
25.26
21.5
18.62
16.35
14.65
13.63
13.26
13.26
13.04
11.84
8.93
3.83
-3.55
-12.77
-22.7
-31.64
-37.61
-38.87
-34.49
-24.76
-11.06
4.56
20.03
33.78
44.89
52.94
57.72
59.05
56.77
51.02
42.41
32.08
21.48
12.0
4.62
-0.32
-3.1
-4.35
-4.74
-4.71
-4.4
-3.78
-2.79
-1.62
-0.7
-0.58
-1.86
-4.99
-10.22
-17.39
-25.86
-34.41
-41.28
-44.57
-42.79
-35.36
-22.92
-7.11
9.87
25.9
39.41
49.47
55.71
58.1
56.78
52.07
44.52
35.03
24.71
14.78
6.34
0.12
-3.57
-4.94
-4.54
-3.12
-1.37
0.17
1.19
1.57
1.26
0.27
-1.38
-3.69
-6.63
-10.25
-14.64
-19.99
-26.5
-34.08
-42.18
-49.58
-54.59
-55.45
-50.92
-40.76
-25.91
-8.24
9.98
26.7
40.48
50.57
56.74
58.99
57.48
52.56
44.88
35.52
25.79
17.0
10.05
5.31
2.61
1.49
1.48
2.28
3.72
5.65
7.79
9.61
10.49
9.9
7.55
3.54
-1.64
-7.31
-12.73
-17.4
-21.2
-24.42
-27.7
-31.76
-37.13
-43.83
-51.08
-57.38
-60.77
-59.44
-52.31
-39.5
-22.36
-3.07
15.93
32.62
45.67
54.54
59.23
60.01
57.27
51.53
43.47
34.04
24.39
15.7
8.95
4.71
3.06
3.55
5.39
7.74
9.93
11.63
12.75
13.38
13.57
13.19
11.96
9.6
5.94
1.12
-4.43
-10.14
-15.44
-19.96
-23.58
-26.48
-29.02
-31.65
-34.86
-39.06
-44.41
-50.61
-56.73
-61.19
-62.14
-58.02
-48.15
-33.06
-14.46
5.28
23.8
39.29
50.75
57.92
60.99
60.33
56.42
49.86
41.46
32.22
23.28
15.66
10.05
6.71
5.46
5.83
7.32
9.44
11.84
14.22
16.25
17.6
17.97
17.19
15.31
12.5
9.04
5.16
1.0
-3.4
-8.0
-12.74
-17.46
-21.92
-25.86
-29.11
-31.68
-33.82
-35.97
-38.71
-42.52
-47.55
-53.31
-58.65
-61.85
-61.08
-55.01
-43.37
-27.08
-8.09
11.23
28.72
42.9
53.1
59.22
61.49
60.22
55.86
49.0
40.48
31.33
22.56
15.0
9.19
5.37
3.55
3.57
5.09
7.66
10.71
13.68
16.07
17.56
17.95
17.19
15.34
12.55
9.06
5.17
1.16
-2.88
-7.01
-11.38
-16.05
-20.87
-25.46
-29.39
-32.43
-34.69
-36.62
-38.89
-42.09
-46.5
-51.83
-57.14
-60.92
-61.5
-57.5
-48.41
-34.8
-18.17
-0.58
16.02
30.18
41.13
48.63
52.69
53.47
51.14
46.07
38.87
30.46
21.87
14.1
7.87
3.51
0.89
-0.34
-0.6
-0.21
0.71
2.14
4.0
6.03
7.69
8.38
7.59
5.12
1.19
-3.61
-8.59
-13.13
-16.9
-19.9
-22.44
-24.98
-27.98
-31.86
-36.78
-42.5
-48.29
-52.95
-55.02
-53.23
-46.89
-36.21
-22.23
-6.55
9.19
23.58
35.64
44.75
50.55
52.89
51.81
47.67
41.11
33.06
24.55
16.49
9.54
4.05
0.09
-2.4
-3.53
-3.39
-2.16
-0.1
2.28
4.34
5.43
5.06
3.07
-0.31
-4.55
-9.06
-13.33
-17.1
-20.48
-23.85
-27.76
-32.74
-39.03
-46.3
-53.58
-59.3
-61.69
-59.35
-51.66
-39.09
-23.06
-5.5
11.63
26.82
39.15
48.22
53.92
56.32
55.52
51.78
45.59
37.71
29.12
20.79
13.51
7.74
3.57
0.88
-0.5
-0.65
0.36
2.37
4.99
7.56
9.29
9.56
8.09
5.03
0.87
-3.78
-8.38
-12.65
-16.55
-20.32
-24.42
-29.37
-35.55
-42.83
-50.42
-56.81
-60.15
-58.85
-52.12
-40.31
-24.85
-7.75
8.97
23.8
35.86
44.8
50.5
52.91
52.06
48.19
41.89
34.09
25.96
18.53
12.54
8.27
5.65
4.37
4.11
4.63
5.76
7.37
9.23
11.02
12.28
12.55
11.48
8.93
5.1
0.44
-4.45
-9.0
-12.92
-16.25
-19.36
-22.79
-27.1
-32.61
-39.24
-46.34
-52.71
-56.79
-57.01
-52.35
-42.68
-28.95
-12.84
3.66
18.9
31.81
41.94
49.11
53.16
53.91
51.25
45.45
37.35
28.2
19.33
11.81
6.15
2.36
0.1
-1.01
-1.24
-0.74
0.43
2.13
4.07
5.86
6.99
7.05
5.8
3.31
-0.11
-3.92
-7.63
-10.92
-13.82
-16.64
-19.87
-23.95
-29.12
-35.3
-42.03
-48.41
-53.2
-55.02
-52.68
-45.65
-34.29
-19.82
-4.01
11.38
24.97
35.96
44.0
49.01
50.96
49.92
46.12
40.07
32.52
24.37
16.49
9.56
4.02
0.12
-2.06
-2.63
-1.83
-0.07
2.16
4.31
5.86
6.38
5.64
3.66
0.7
-2.82
-6.45
-9.89
-13.06
-16.2
-19.75
-24.24
-30.02
-37.03
-44.51
-51.05
-54.91
-54.46
-48.87
-38.44
-24.55
-9.19
5.64
18.5
28.61
35.73
39.87
41.06
39.36
34.95
28.31
20.14
11.26
2.45
-5.65
-12.57
-17.99
-21.81
-24.1
-25.14
-25.35
-25.2
-25.13
-25.47
-26.47
-28.26
-30.88
-34.17
-37.83
-41.47
-44.8
-47.74
-50.47
-53.17
-55.82
-57.85
-58.12
-55.25
-48.02
-35.99
-19.69
-0.64
19.15
37.7
53.51
65.8
74.34
79.25
80.73
78.94
74.16
66.85
57.76
47.89
38.28
29.88
23.25
18.61
15.76
14.25
13.53
13.06
12.46
11.53
10.16
8.33
6.02
3.19
-0.16
-4.05
-8.5
-13.64
-19.64
-26.52
-33.88
-40.69
-45.42
-46.4
-42.49
-33.52
-20.46
-5.1
10.61
25.01
37.02
46.18
52.3
55.31
55.18
51.97
46.01
37.95
28.73
19.43
11.03
4.29
-0.45
-3.21
-4.37
-4.43
-3.88
-3.1
-2.33
-1.74
-1.48
-1.75
-2.75
-4.64
-7.53
-11.52
-16.7
-23.15
-30.73
-38.84
-46.33
-51.55
-52.84
-49.0
-39.82
-26.19
-9.84
7.19
23.07
36.54
46.92
53.96
57.59
57.83
54.85
49.06
41.2
32.3
23.47
15.72
9.68
5.56
3.18
2.07
1.73
1.76
1.96
2.24
2.54
2.72
2.53
1.64
-0.25
-3.41
-8.0
-14.04
-21.39
-29.55
-37.51
-43.84
-46.91
-45.37
-38.62
-27.11
-12.24
3.99
19.63
33.16
43.7
50.95
54.86
55.49
52.91
47.39
39.54
30.37
21.13
13.02
6.87
2.9
0.84
0.05
-0.1
-0.03
0.11
0.34
0.65
0.94
0.91
0.2
-1.54
-4.56
-8.94
-14.61
-21.27
-28.26
-34.56
-38.88
-39.9
-36.75
-29.29
-18.26
-5.02
8.77
21.67
32.62
41.01
46.48
48.79
47.8
43.62
36.73
28.07
18.94
10.64
4.2
0.06
-1.93
-2.34
-1.89
-1.15
-0.46
0.12
0.65
1.09
1.3
1.0
-0.16
-2.41
-5.9
-10.59
-16.32
-22.75
-29.29
-35.02
-38.82
-39.5
-36.22
-28.77
-17.77
-4.55
9.19
21.82
32.14
39.49
43.67
44.72
42.83
38.3
31.69
23.78
15.58
8.06
2.0
-2.19
-4.42
-4.87
-3.91
-2.0
0.26
2.29
3.57
3.79
2.92
1.14
-1.25
-4.0
-6.96
-10.06
-13.3
-16.8
-20.73
-25.35
-30.73
-36.47
-41.59
-44.58
-43.93
-38.67
-28.83
-15.5
-0.46
14.35
27.38
37.63
44.65
48.34
48.76
46.14
40.9
33.72
25.53
17.33
10.05
4.31
0.42
-1.72
-2.39
-1.97
-0.83
0.67
2.2
3.36
3.84
3.4
2.04
-0.09
-2.7
-5.55
-8.53
-11.65
-15.04
-18.86
-23.3
-28.52
-34.46
-40.62
-46.03
-49.27
-48.93
-44.15
-35.0
-22.52
-8.41
5.63
18.23
28.61
36.39
41.36
43.34
42.2
38.15
31.74
24.01
16.1
9.08
3.62
-0.07
-2.15
-3.01
-2.98
-2.31
-1.07
0.63
2.53
4.19
5.07
4.69
2.89
-0.13
-3.91
-7.86
-11.55
-14.78
-17.63
-20.37
-23.36
-26.95
-31.38
-36.63
-42.22
-47.14
-50.02
-49.45
-44.54
-35.26
-22.53
-7.97
6.66
19.92
30.87
39.13
44.53
46.99
46.43
42.92
36.88
29.09
20.64
12.66
6.06
1.34
-1.48
-2.72
-2.82
-2.2
-1.08
0.43
2.29
4.3
6.07
7.06
6.75
4.84
1.41
-3.05
-7.84
-12.28
-15.94
-18.72
-20.86
-22.84
-25.25
-28.6
-33.19
-38.85
-44.83
-49.8
-52.18
-50.63
-44.49
-34.07
-20.48
-5.36
9.64
23.16
34.23
42.3
47.06
48.46
46.67
42.12
35.53
27.8
19.88
12.62
6.65
2.3
-0.4
-1.61
-1.68
-0.95
0.29
1.82
3.46
5.04
6.29
6.9
6.58
5.1
2.44
-1.21
-5.43
-9.71
-13.6
-16.89
-19.65
-22.19
-24.94
-28.29
-32.51
-37.63
-43.32
-48.85
-53.09
-54.7
-52.52
-45.95
-35.23
-21.43
-6.17
8.87
22.32
33.36
41.6
46.91
49.19
48.42
44.75
38.65
30.99
22.86
15.33
9.25
5.02
2.63
1.75
1.97
2.85
4.07
5.39
6.64
7.68
8.4
8.65
8.27
7.05
4.87
1.69
-2.37
-7.04
-11.98
-16.85
-21.37
-25.43
-29.07
-32.48
-35.95
-39.76
-44.16
-49.24
-54.91
-60.77
-66.11
-69.9
-71.05
-68.65
-62.3
-52.2
-39.12
-24.02
-7.75
9.2
26.55
43.95
60.55
74.95
85.46
90.63
89.87
83.67
73.48
61.2
48.63
37.1
27.34
19.7
14.28
11.11
10.1
10.96
13.13
15.86
18.32
19.81
19.88
18.4
15.54
11.63
7.1
2.25
-2.7
-7.67
-12.61
-17.43
-21.93
-25.89
-29.18
-31.9
-34.4
-37.22
-40.98
-45.98
-52.02
-58.17
-62.84
-64.19
-60.72
-51.89
-38.38
-21.93
-4.69
11.38
25.08
35.95
43.98
49.28
51.77
51.3
47.88
41.9
34.2
25.92
18.17
11.83
7.38
4.88
4.09
4.6
5.95
7.76
9.74
11.71
13.46
14.75
15.27
14.68
12.76
9.48
5.15
0.24
-4.68
-9.18
-13.08
-16.48
-19.65
-22.92
-26.62
-30.99
-36.16
-41.99
-47.93
-52.98
-55.79
-54.98
-49.64
-39.7
-26.03
-10.2
5.96
20.82
33.27
42.78
49.18
52.52
52.84
50.27
45.11
37.96
29.72
21.51
14.39
9.13
5.97
4.67
4.68
5.42
6.48
7.71
9.11
10.67
12.17
13.2
13.21
11.77
8.69
4.21
-1.11
-6.54
-11.41
-15.4
-18.54
-21.21
-23.96
-27.35
-31.74
-37.2
-43.39
-49.5
-54.27
-56.26
-54.19
-47.4
-36.13
-21.58
-5.56
10.02
23.66
34.44
42.03
46.41
47.67
45.96
41.59
35.11
27.41
19.49
12.32
6.56
2.51
0.09
-0.94
-0.89
-0.0
1.56
3.61
5.86
7.86
9.08
9.04
7.51
4.58
0.71
-3.48
-7.43
-10.83
-13.77
-16.62
-19.92
-24.14
-29.47
-35.63
-41.84
-46.88
-49.37
-48.1
-42.47
-32.7
-19.81
-5.36
9.05
22.04
32.68
40.48
45.13
46.53
44.72
40.03
33.15
25.11
17.02
9.88
4.39
0.81
-0.92
-1.07
0.01
1.97
4.4
6.83
8.72
9.55
8.97
6.96
3.81
-0.01
-4.03
-7.98
-11.82
-15.75
-20.09
-25.13
-31.03
-37.63
-44.34
-50.1
-53.48
-53.1
-48.0
-38.07
-24.16
-7.92
8.72
23.95
36.48
45.64
51.22
53.31
52.12
47.99
41.46
33.33
24.61
16.38
9.53
4.65
1.86
1.0
1.72
3.65
6.37
9.37
12.02
13.65
13.68
11.89
8.5
4.05
-0.79
-5.47
-9.71
-13.53
-17.19
-21.13
-25.79
-31.48
-38.12
-45.05
-50.95
-54.11
-52.93
-46.49
-34.93
-19.44
-1.91
15.59
31.27
43.85
52.62
57.27
57.84
54.69
48.5
40.26
31.09
22.16
14.39
8.36
4.32
2.22
1.86
2.94
5.11
7.9
10.7
12.8
13.59
12.7
10.12
6.17
1.35
-3.84
-9.03
-14.0
-18.76
-23.5
-28.53
-34.2
-40.57
-47.11
-52.58
-55.26
-53.45
-46.17
-33.59
-17.08
1.21
18.99
34.4
46.3
54.21
58.1
58.18
54.84
48.64
40.43
31.25
22.22
14.37
8.4
4.64
3.03
3.24
4.78
7.11
9.7
12.05
13.64
13.96
12.65
9.58
4.97
-0.64
-6.57
-12.15
-16.94
-20.88
-24.26
-27.65
-31.69
-36.88
-43.21
-49.98
-55.72
-58.51
-56.56
-48.8
-35.38
-17.7
2.0
21.24
37.95
50.81
59.24
63.26
63.21
59.61
53.17
44.8
35.6
26.72
19.21
13.8
10.81
10.12
11.26
13.64
16.61
19.63
22.19
23.84
24.21
23.06
20.4
16.52
11.92
7.13
2.5
-1.89
-6.16
-10.53
-15.1
-19.76
-24.26
-28.27
-31.55
-34.05
-35.92
-37.51
-39.33
-41.97
-45.91
-51.21
-57.22
-62.51
-65.1
-63.03
-55.1
-41.3
-22.98
-2.4
17.86
35.57
49.34
58.58
63.37
64.13
61.44
55.97
48.51
40.06
31.74
24.61
19.45
16.61
15.93
16.89
18.83
21.16
23.49
25.6
27.29
28.32
28.33
26.95
24.0
19.54
13.96
7.89
2.03
-3.08
-7.21
-10.51
-13.41
-16.38
-19.74
-23.46
-27.21
-30.49
-32.94
-34.53
-35.6
-36.77
-38.74
-42.04
-46.83
-52.72
-58.72
-63.28
-64.58
-61.07
-51.97
-37.61
-19.49
0.16
19.01
35.14
47.4
55.37
59.11
58.97
55.46
49.28
41.37
32.89
25.0
18.76
14.79
13.29
13.92
16.04
18.87
21.69
24.02
25.65
26.52
26.62
25.88
24.14
21.28
17.28
12.35
6.91
1.52
-3.29
-7.23
-10.32
-12.86
-15.32
-18.07
-21.26
-24.71
-27.99
-30.69
-32.57
-33.77
-34.7
-35.97
-38.13
-41.56
-46.32
-52.05
-57.89
-62.53
-64.36
-61.93
-54.35
-41.67
-25.02
-6.33
12.15
28.4
41.07
49.55
53.89
54.51
51.95
46.84
39.91
32.06
24.34
17.8
13.29
11.21
11.43
13.37
16.25
19.29
21.95
24.01
25.4
26.14
26.13
25.15
22.96
19.43
14.68
9.11
3.29
-2.19
-6.94
-10.82
-13.96
-16.63
-19.14
-21.74
-24.47
-27.26
-29.9
-32.14
-33.84
-35.07
-36.1
-37.45
-39.69
-43.27
-48.32
-54.4
-60.43
-64.87
-65.98
-62.37
-53.41
-39.5
-22.0
-2.93
15.58
31.71
44.24
52.62
56.89
57.45
54.95
50.12
43.77
36.75
29.93
24.12
19.97
17.81
17.62
19.03
21.45
24.25
26.91
29.08
30.55
31.17
30.84
29.47
27.03
23.65
19.57
15.06
10.41
5.81
1.35
-2.88
-6.81
-10.34
-13.42
-16.11
-18.6
-21.17
-24.01
-27.14
-30.37
-33.38
-35.88
-37.78
-39.26
-40.69
-42.54
-45.31
-49.35
-54.75
-61.15
-67.54
-72.32
-73.63
-69.82
-60.12
-44.96
-25.94
-5.35
14.4
31.41
44.54
53.43
58.29
59.64
58.09
54.27
48.81
42.39
35.73
29.58
24.67
21.52
20.34
20.99
22.99
25.68
28.47
30.88
32.67
33.7
33.89
33.09
31.14
27.93
23.52
18.22
12.53
7.0
2.1
-1.96
-5.3
-8.22
-11.1
-14.24
-17.74
-21.51
-25.27
-28.69
-31.48
-33.52
-34.9
-35.99
-37.3
-39.41
-42.81
-47.68
-53.73
-60.06
-65.23
-67.5
-65.28
-57.69
-44.85
-27.97
-8.97
9.96
26.98
40.86
50.99
57.24
59.77
58.87
55.05
49.02
41.69
34.09
27.18
21.66
17.92
16.0
15.68
16.6
18.38
20.65
23.11
25.45
27.41
28.68
28.97
28.0
25.67
22.05
17.47
12.41
7.42
2.95
-0.81
-3.99
-6.91
-10.0
-13.54
-17.57
-21.83
-25.88
-29.27
-31.74
-33.35
-34.44
-35.55
-37.3
-40.16
-44.29
-49.41
-54.67
-58.77
-60.13
-57.39
-49.77
-37.48
-21.65
-4.1
13.18
28.52
40.84
49.68
55.02
57.04
55.99
52.2
46.16
38.59
30.47
22.85
16.65
12.47
10.47
10.35
11.59
13.61
15.96
18.35
20.6
22.56
24.0
24.61
24.11
22.39
19.57
15.96
11.99
7.99
4.17
0.58
-2.85
-6.21
-9.6
-13.05
-16.56
-20.06
-23.39
-26.37
-28.83
-30.77
-32.38
-33.99
-36.04
-38.89
-42.72
-47.39
-52.34
-56.51
-58.53
-56.97
-50.86
-40.05
-25.45
-8.71
8.2
23.61
36.46
46.27
52.92
56.39
56.68
53.9
48.45
41.06
32.72
24.46
17.09
11.16
6.91
4.4
3.58
4.29
6.29
9.22
12.52
15.58
17.82
18.82
18.43
16.82
14.37
11.52
8.61
5.78
2.98
0.04
-3.19
-6.81
-10.77
-14.93
-19.02
-22.73
-25.83
-28.27
-30.26
-32.28
-34.9
-38.52
-43.07
-47.85
-51.6
-52.81
-50.24
-43.3
-32.29
-18.33
-3.01
12.0
25.32
36.06
43.81
48.49
50.27
49.4
46.2
41.08
34.58
27.32
19.99
13.26
7.7
3.68
1.33
0.56
1.14
2.73
4.9
7.25
9.35
10.85
11.56
11.41
10.5
8.97
6.96
4.57
1.84
-1.18
-4.46
-7.92
-11.45
-14.91
-18.17
-21.17
-23.97
-26.79
-29.96
-33.82
-38.5
-43.62
-48.29
-51.11
-50.63
-45.85
-36.64
-23.87
-9.17
5.61
18.94
29.87
38.05
43.5
46.34
46.64
44.49
40.12
34.04
26.97
19.74
13.08
7.46
3.04
-0.23
-2.51
-3.9
-4.4
-3.97
-2.63
-0.58
1.8
3.96
5.39
5.76
4.93
2.98
0.19
-3.09
-6.47
-9.67
-12.54
-15.15
-17.74
-20.66
-24.24
-28.65
-33.85
-39.39
-44.43
-47.82
-48.33
-45.04
-37.67
-26.75
-13.49
0.57
13.99
25.67
34.96
41.49
45.13
45.86
43.87
39.56
33.56
26.65
19.59
12.99
7.28
2.66
-0.85
-3.32
-4.84
-5.46
-5.2
-4.13
-2.48
-0.73
0.52
0.73
-0.38
-2.65
-5.63
-8.74
-11.52
-13.82
-15.83
-17.94
-20.56
-24.02
-28.47
-33.75
-39.38
-44.47
-47.86
-48.33
-45.04
-37.8
-27.18
-14.43
-1.09
11.41
22.01
30.1
35.48
38.21
38.43
36.37
32.34
26.78
20.25
13.41
6.89
1.23
-3.2
-6.24
-7.91
-8.36
-7.89
-6.86
-5.66
-4.65
-4.09
-4.11
-4.73
-5.88
-7.49
-9.46
-11.73
-14.31
-17.28
-20.86
-25.27
-30.5
-36.03
-40.78
-43.3
-42.21
-36.72
-27.07
-14.47
-0.7
12.38
23.44
31.83
37.46
40.57
41.38
40.05
36.71
31.64
25.28
18.27
11.29
4.95
-0.32
-4.23
-6.7
-7.79
-7.73
-6.89
-5.77
-4.85
-4.46
-4.8
-5.9
-7.65
-9.93
-12.62
-15.69
-19.23
-23.42
-28.47
-34.35
-40.55
-46.0
-49.24
-48.87
-44.01
-34.74
-22.07
-7.65
6.78
19.78
30.43
38.34
43.39
45.65
45.23
42.34
37.33
30.73
23.22
15.6
8.67
3.12
-0.63
-2.45
-2.59
-1.54
0.13
1.86
3.28
4.15
4.35
3.76
2.33
0.01
-3.14
-6.97
-11.36
-16.31
-21.94
-28.38
-35.45
-42.37
-47.78
-50.05
-47.85
-40.66
-29.0
-14.32
1.5
16.64
29.7
39.87
46.79
50.43
50.96
48.69
44.07
37.71
30.31
22.67
15.58
9.76
5.7
3.59
3.29
4.36
6.2
8.17
9.71
10.43
10.13
8.83
6.69
3.92
0.71
-2.83
-6.77
-11.2
-16.31
-22.19
-28.8
-35.7
-42.02
-46.46
-47.58
-44.21
-35.95
-23.38
-7.99
8.31
23.63
36.57
46.3
52.52
55.21
54.52
50.8
44.69
37.09
29.08
21.67
15.6
11.2
8.49
7.26
7.29
8.35
10.2
12.49
14.72
16.31
16.66
15.37
12.33
7.85
2.49
-3.01
-8.02
-12.2
-15.62
-18.7
-22.06
-26.31
-31.73
-38.18
-44.86
-50.47
-53.37
-52.06
-45.62
-34.14
-18.78
-1.5
15.52
30.4
42.05
50.06
54.54
55.74
53.89
49.24
42.28
33.83
25.05
17.21
11.34
7.97
7.07
8.09
10.24
12.77
15.14
17.1
18.62
19.67
20.1
19.58
17.77
14.49
9.88
4.43
-1.19
-6.4
-10.91
-14.73
-18.14
-21.51
-25.11
-29.17
-33.83
-39.1
-44.77
-50.23
-54.37
-55.76
-53.07
-45.57
-33.47
-17.99
-0.99
15.53
29.98
41.35
49.29
53.78
55.01
53.17
48.58
41.79
33.7
25.4
18.05
12.58
9.47
8.69
9.82
12.23
15.24
18.25
20.79
22.48
23.06
22.42
20.64
17.96
14.68
11.03
7.11
2.88
-1.73
-6.69
-11.83
-16.86
-21.46
-25.36
-28.46
-30.81
-32.64
-34.39
-36.59
-39.7
-43.87
-48.7
-53.08
-55.41
-54.06
-47.91
-36.91
-22.13
-5.5
10.81
24.97
35.91
43.28
47.24
48.09
46.14
41.69
35.22
27.5
19.58
12.59
7.49
4.78
4.42
5.92
8.5
11.38
14.0
16.04
17.43
18.21
18.36
17.74
16.15
13.43
9.59
4.82
-0.5
-5.91
-11.05
-15.63
-19.52
-22.67
-25.15
-27.16
-29.03
-31.23
-34.18
-38.08
-42.64
-47.05
-50.01
-50.06
-46.06
-37.58
-25.09
-9.93
6.11
21.17
33.78
43.01
48.57
50.62
49.57
45.94
40.28
33.23
25.58
18.27
12.21
8.13
6.34
6.65
8.46
10.98
13.49
15.5
16.79
17.28
16.99
15.93
14.14
11.65
8.54
4.84
0.59
-4.13
-9.17
-14.21
-18.87
-22.84
-25.99
-28.41
-30.37
-32.25
-34.43
-37.26
-41.0
-45.7
-50.96
-55.8
-58.74
-58.2
-53.02
-42.92
-28.78
-12.29
4.46
19.64
31.99
40.95
46.42
48.61
47.81
44.42
39.01
32.34
25.36
19.01
14.07
10.98
9.78
10.17
11.65
13.76
16.12
18.51
20.72
22.46
23.3
22.8
20.69
16.98
12.11
6.76
1.63
-2.81
-6.51
-9.8
-13.15
-16.87
-20.94
-24.98
-28.48
-31.03
-32.6
-33.5
-34.28
-35.54
-37.78
-41.31
-46.16
-51.9
-57.52
-61.5
-62.09
-57.89
-48.4
-34.3
-17.34
0.31
16.61
30.16
40.31
46.96
50.28
50.52
47.99
43.22
36.95
30.19
23.99
19.22
16.41
15.62
16.51
18.53
21.09
23.7
26.02
27.84
29.01
29.37
28.77
27.1
24.33
20.57
16.09
11.28
6.53
2.19
-1.59
-4.95
-8.18
-11.63
-15.51
-19.7
-23.8
-27.33
-29.93
-31.58
-32.65
-33.7
-35.35
-38.1
-42.23
-47.7
-54.01
-60.18
-64.71
-66.0
-62.74
-54.43
-41.66
-25.96
-9.37
6.18
19.24
29.0
35.22
37.99
37.58
34.33
28.74
21.49
13.42
5.5
-1.39
-6.55
-9.6
-10.59
-9.91
-8.17
-6.06
-4.18
-2.98
-2.7
-3.4
-4.95
-7.04
-9.25
-11.12
-12.32
-12.7
-12.27
-11.18
-9.61
-7.71
-5.6
-3.43
-1.39
0.27
1.28
1.36
0.21
-2.41
-6.56
-11.85
-17.34
-21.53
-22.74
-19.69
-11.99
-0.37
13.57
27.87
40.77
51.09
58.31
62.38
63.43
61.7
57.45
51.12
43.33
34.95
26.95
20.22
15.48
13.05
12.87
14.51
17.26
20.33
22.96
24.61
24.97
24.0
21.83
18.74
14.97
10.74
6.13
1.19
-4.03
-9.36
-14.56
-19.36
-23.54
-27.1
-30.17
-33.04
-36.05
-39.49
-43.51
-48.08
-52.85
-57.08
-59.64
-59.23
-54.73
-45.64
-32.33
-16.04
1.43
18.19
32.64
43.73
50.97
54.32
54.06
50.71
45.03
37.89
30.3
23.21
17.43
13.51
11.68
11.79
13.43
16.02
18.92
21.61
23.7
24.97
25.28
24.55
22.71
19.77
15.86
11.26
6.38
1.58
-2.91
-7.12
-11.23
-15.49
-19.96
-24.48
-28.71
-32.21
-34.75
-36.4
-37.6
-39.06
-41.51
-45.39
-50.53
-56.03
-60.33
-61.63
-58.43
-50.04
-36.84
-20.23
-2.21
15.07
29.88
41.06
48.14
51.24
50.81
47.49
42.01
35.17
27.81
20.82
15.05
11.17
9.48
9.86
11.84
14.75
17.94
20.93
23.42
25.17
25.96
25.56
23.8
20.7
16.52
11.7
6.75
2.03
-2.35
-6.54
-10.75
-15.07
-19.38
-23.35
-26.58
-28.84
-30.22
-31.06
-31.94
-33.44
-36.05
-39.96
-44.97
-50.27
-54.53
-56.05
-53.3
-45.48
-32.82
-16.68
0.88
17.69
32.05
42.97
50.15
53.7
53.94
51.25
46.08
39.08
31.11
23.18
16.32
11.39
8.85
8.73
10.61
13.82
17.6
21.31
24.51
26.94
28.46
28.91
28.12
25.94
22.36
17.57
11.95
6.07
0.47
-4.41
-8.4
-11.6
-14.34
-17.05
-20.05
-23.4
-26.89
-30.13
-32.74
-34.56
-35.77
-36.82
-38.31
-40.8
-44.6
-49.58
-55.05
-59.73
-61.98
-60.13
-53.14
-40.95
-24.7
-6.38
11.72
27.61
40.06
48.59
53.29
54.47
52.52
47.89
41.2
33.37
25.56
18.92
14.39
12.37
12.74
14.86
17.95
21.27
24.31
26.78
28.56
29.49
29.41
28.13
25.61
21.96
17.49
12.6
7.7
3.1
-1.04
-4.66
-7.86
-10.77
-13.53
-16.29
-19.1
-21.91
-24.59
-26.95
-28.86
-30.34
-31.57
-32.91
-34.84
-37.83
-42.12
-47.56
-53.42
-58.38
-60.81
-59.15
-52.49
-40.89
-25.49
-8.21
8.8
23.73
35.41
43.38
47.7
48.64
46.61
42.09
35.71
28.32
20.95
14.6
10.05
7.7
7.54
9.16
11.98
15.38
18.84
21.96
24.4
25.83
25.97
24.61
21.75
17.64
12.76
7.7
2.98
-1.13
-4.62
-7.75
-10.85
-14.16
-17.73
-21.4
-24.8
-27.57
-29.5
-30.6
-31.23
-32.02
-33.65
-36.67
-41.09
-46.28
-50.95
-53.44
-52.22
-46.42
-36.12
-22.37
-6.88
8.42
21.9
32.4
39.42
42.9
43.15
40.6
35.75
29.21
21.72
14.21
7.68
3.02
0.76
0.93
3.08
6.44
10.17
13.62
16.36
18.2
19.08
19.05
18.15
16.42
13.86
10.41
6.06
0.9
-4.77
-10.48
-15.76
-20.25
-23.84
-26.66
-29.03
-31.35
-34.05
-37.5
-41.89
-47.0
-52.04
-55.65
-56.24
-52.48
-43.84
-30.87
-15.1
1.45
16.83
29.58
38.95
44.79
47.29
46.79
43.69
38.48
31.89
24.82
18.26
13.05
9.7
8.33
8.67
10.28
12.72
15.6
18.6
21.35
23.4
24.28
23.66
21.46
17.98
13.71
9.18
4.73
0.38
-4.04
-8.78
-13.87
-19.1
-24.03
-28.25
-31.52
-33.95
-35.95
-38.11
-40.97
-44.9
-49.82
-55.15
-59.71
-61.96
-60.33
-53.79
-42.26
-26.75
-9.16
8.33
23.77
35.93
44.35
49.17
50.8
49.7
46.35
41.23
35.0
28.48
22.56
18.0
15.25
14.39
15.16
17.15
19.89
22.95
25.91
28.34
29.8
29.88
28.39
25.37
21.13
16.16
11.01
6.1
1.65
-2.31
-5.98
-9.62
-13.44
-17.46
-21.48
-25.09
-27.93
-29.84
-31.07
-32.27
-34.27
-37.74
-42.86
-49.05
-54.96
-58.82
-58.83
-53.81
-43.57
-29.0
-11.88
5.66
21.66
34.77
44.36
50.34
52.98
52.6
49.59
44.45
37.93
30.98
24.66
19.9
17.22
16.67
17.85
20.11
22.84
25.56
28.01
30.04
31.45
31.98
31.31
29.19
25.63
20.9
15.59
10.29
5.51
1.39
-2.22
-5.69
-9.34
-13.32
-17.53
-21.62
-25.22
-28.01
-29.9
-31.07
-31.97
-33.21
-35.44
-39.09
-44.1
-49.77
-54.74
-57.27
-55.76
-49.26
-37.86
-22.71
-5.71
11.05
25.79
37.38
45.39
49.84
51.03
49.28
45.02
38.83
31.56
24.23
17.89
13.3
10.82
10.36
11.54
13.85
16.78
19.89
22.74
24.94
26.1
25.96
24.42
21.61
17.83
13.46
8.88
4.36
0.0
-4.23
-8.42
-12.64
-16.81
-20.7
-24.04
-26.62
-28.46
-29.8
-31.1
-32.89
-35.59
-39.35
-43.87
-48.27
-51.21
-51.19
-47.01
-38.27
-25.56
-10.36
5.41
19.9
31.81
40.55
46.03
48.48
48.15
45.32
40.35
33.79
26.48
19.42
13.56
9.61
7.88
8.28
10.35
13.5
17.13
20.64
23.56
25.44
25.93
24.86
22.23
18.32
13.6
8.66
3.98
-0.16
-3.85
-7.39
-11.15
-15.32
-19.73
-23.98
-27.59
-30.28
-32.08
-33.36
-34.7
-36.64
-39.59
-43.65
-48.48
-53.2
-56.48
-56.79
-52.87
-44.18
-31.22
-15.42
1.24
16.83
29.88
39.61
45.83
48.74
48.67
46.01
41.24
35.0
28.12
21.53
16.1
12.45
10.82
11.06
12.73
15.29
18.23
21.15
23.71
25.55
26.3
25.62
23.39
19.76
15.16
10.17
5.3
0.84
-3.21
-7.0
-10.79
-14.72
-18.77
-22.74
-26.31
-29.18
-31.2
-32.5
-33.56
-35.06
-37.69
-41.76
-46.94
-52.16
-55.78
-56.11
-51.9
-42.83
-29.6
-13.79
2.6
17.67
29.98
38.79
44.01
45.95
45.13
42.1
37.42
31.7
25.65
20.03
15.51
12.53
11.24
11.47
12.91
15.2
18.0
20.94
23.61
25.51
26.18
25.36
23.05
19.55
15.27
10.62
5.86
1.11
-3.61
-8.26
-12.71
-16.78
-20.25
-23.03
-25.22
-27.05
-28.88
-31.06
-33.86
-37.41
-41.64
-46.17
-50.19
-52.55
-51.92
-47.25
-38.21
-25.39
-10.27
5.23
19.33
30.74
38.87
43.71
45.55
44.77
41.76
36.96
30.96
24.46
18.25
13.11
9.66
8.24
8.81
10.96
14.02
17.3
20.21
22.37
23.59
23.76
22.77
20.56
17.2
12.98
8.34
3.75
-0.51
-4.41
-8.16
-11.98
-15.93
-19.85
-23.38
-26.23
-28.26
-29.62
-30.71
-32.11
-34.42
-38.01
-42.79
-48.06
-52.54
-54.59
-52.77
-46.33
-35.48
-21.4
-5.82
9.38
22.68
33.11
40.24
44.01
44.67
42.56
38.21
32.25
25.48
18.74
12.88
8.56
6.17
5.74
7.03
9.56
12.77
16.11
19.07
21.21
22.2
21.83
20.11
17.26
13.65
9.7
5.75
1.96
-1.72
-5.46
-9.4
-13.49
-17.53
-21.16
-24.09
-26.25
-27.85
-29.32
-31.19
-33.92
-37.64
-42.11
-46.59
-49.99
-50.98
-48.4
-41.6
-30.75
-16.86
-1.58
13.3
26.28
36.41
43.32
46.99
47.6
45.46
41.0
34.92
28.14
21.66
16.32
12.68
10.89
10.8
12.05
14.25
16.96
19.76
22.25
24.07
24.89
24.49
22.78
19.77
15.74
11.1
6.36
1.91
-2.06
-5.65
-9.15
-12.81
-16.7
-20.6
-24.14
-26.99
-29.01
-30.39
-31.49
-32.83
-34.91
-38.12
-42.58
-47.95
-53.28
-57.06
-57.61
-53.59
