0
3.45
-0.01
-4.33
-9.16
-14.12
-18.94
-23.46
-27.65
-31.55
-35.28
-39.04
-43.16
-48.03
-53.8
-60.04
-65.53
-68.4
-66.62
-58.72
-44.36
-24.54
-1.34
22.7
45.16
64.16
78.48
87.52
91.14
89.61
83.61
74.07
62.17
49.09
35.96
23.8
13.43
5.41
-0.08
-3.2
-4.44
-4.34
-3.38
-1.82
0.17
2.42
4.54
5.94
6.02
4.4
1.06
-3.64
-9.1
-14.72
-20.07
-24.86
-29.05
-32.74
-36.24
-40.02
-44.64
-50.51
-57.54
-64.91
-71.11
-74.22
-72.41
-64.56
-50.58
-31.5
-9.22
13.91
35.58
53.88
67.53
75.95
79.1
77.41
71.59
62.53
51.29
38.97
26.75
15.64
6.44
-0.49
-5.15
-7.82
-8.92
-8.81
-7.76
-5.97
-3.66
-1.1
1.27
2.92
3.29
1.99
-1.08
-5.63
-11.01
-16.45
-21.33
-25.42
-28.94
-32.47
-36.69
-42.1
-48.81
-56.33
-63.48
-68.56
-69.61
-65.01
-53.93
-36.78
-15.15
8.56
31.69
51.99
67.9
78.66
84.16
84.73
80.98
73.7
63.77
52.13
39.7
27.38
15.96
6.13
-1.59
-6.92
-9.81
-10.5
-9.44
-7.24
-4.54
-1.91
0.29
1.82
2.51
2.21
0.76
-1.96
-5.87
-10.68
-15.97
-21.23
-26.11
-30.46
-34.32
-37.89
-41.5
-45.55
-50.45
-56.34
-62.79
-68.62
-71.96
-70.74
-63.39
-49.42
-29.73
-6.36
18.03
40.82
59.96
74.21
83.06
86.6
85.33
79.98
71.45
60.69
48.68
36.34
24.5
13.93
5.22
-1.22
-5.26
-7.01
-6.84
-5.24
-2.78
0.01
2.62
4.65
5.79
5.86
4.85
2.78
-0.22
-4.04
-8.53
-13.47
-18.57
-23.48
-27.93
-31.8
-35.23
-38.59
-42.45
-47.31
-53.33
-60.08
-66.35
-70.35
-70.05
-63.88
-51.25
-32.83
-10.45
13.41
36.21
55.83
70.86
80.56
84.81
83.94
78.71
70.14
59.42
47.67
35.86
24.68
14.67
6.21
-0.31
-4.6
-6.58
-6.4
-4.55
-1.67
1.53
4.47
6.73
8.09
8.42
7.66
5.79
2.9
-0.87
-5.28
-10.08
-15.04
-19.95
-24.59
-28.75
-32.29
-35.2
-37.72
-40.31
-43.59
-48.04
-53.68
-59.72
-64.65
-66.38
-62.93
-53.04
-36.67
-15.12
9.24
33.59
55.31
72.49
84.15
90.11
90.81
86.98
79.54
69.46
57.76
45.44
33.4
22.36
12.8
5.02
-0.83
-4.63
-6.32
-6.01
-3.99
-0.87
2.59
5.59
7.47
7.94
6.99
4.85
1.81
-1.9
-6.21
-11.14
-16.65
-22.58
-28.62
-34.33
-39.31
-43.36
-46.55
-49.27
-52.09
-55.66
-60.37
-66.1
-71.95
-76.24
-76.92
-72.14
-60.88
-43.37
-21.1
3.59
28.1
50.09
67.85
80.36
87.25
88.7
85.33
78.11
68.14
56.59
44.48
32.68
21.86
12.53
5.03
-0.44
-3.82
-5.21
-4.89
-3.27
-0.89
1.67
3.88
5.33
5.76
5.03
3.12
0.09
-3.92
-8.64
-13.73
-18.81
-23.57
-27.83
-31.64
-35.19
-38.84
-43.02
-48.15
-54.39
-61.43
-68.21
-72.95
-73.57
-68.25
-56.1
-37.58
-14.45
10.73
35.2
56.58
73.25
84.33
89.67
89.63
85.0
76.82
66.24
54.38
42.15
30.29
19.4
10.05
2.72
-2.25
-4.8
-5.23
-4.11
-2.08
0.29
2.66
4.78
6.41
7.2
6.78
4.89
1.54
-2.94
-8.05
-13.32
-18.47
-23.38
-28.05
-32.43
-36.48
-40.23
-43.96
-48.15
-53.3
-59.56
-66.3
-72.1
-74.92
-72.66
-63.9
-48.38
-27.23
-2.68
22.48
45.58
64.58
78.32
86.43
89.16
87.11
81.1
72.1
61.13
49.24
37.39
26.37
16.76
8.97
3.27
-0.25
-1.6
-1.07
0.85
3.49
6.16
8.3
9.58
9.92
9.38
8.04
5.91
2.95
-0.84
-5.36
-10.37
-15.54
-20.57
-25.25
-29.5
-33.39
-37.08
-40.88
-45.22
-50.56
-57.03
-64.18
-70.7
-74.59
-73.69
-66.38
-52.22
-32.18
-8.47
16.11
38.85
57.64
71.29
79.45
82.42
80.81
75.39
66.91
56.11
43.81
30.93
18.44
7.3
-1.77
-8.37
-12.48
-14.39
-14.52
-13.3
-11.13
-8.34
-5.26
-2.29
0.12
1.49
1.42
-0.29
-3.53
-7.87
-12.64
-17.2
-21.12
-24.33
-27.12
-29.99
-33.45
-37.93
-43.64
-50.47
-57.79
-64.38
-68.47
-68.07
-61.58
-48.41
-29.34
-6.38
17.75
40.41
59.59
74.13
83.63
88.14
87.95
83.53
75.53
64.83
52.5
39.7
27.5
16.76
8.1
1.79
-2.15
-3.94
-3.99
-2.81
-0.9
1.28
3.35
4.98
5.88
5.76
4.38
1.6
-2.46
-7.47
-12.91
-18.24
-23.06
-27.24
-30.89
-34.32
-37.95
-42.25
-47.63
-54.23
-61.68
-68.84
-73.89
-74.66
-69.36
-57.17
-38.63
-15.58
9.4
33.57
54.63
71.02
81.95
87.3
87.47
83.19
75.37
64.98
53.03
40.49
28.33
17.43
8.47
1.85
-2.43
-4.65
-5.21
-4.52
-2.87
-0.52
2.25
5.05
7.41
8.77
8.68
6.84
3.19
-2.03
-8.33
-15.01
-21.33
-26.74
-31.0
-34.32
-37.23
-40.47
-44.69
-50.25
-56.9
-63.7
-69.02
-70.85
-67.34
-57.31
-40.75
-18.93
5.87
30.88
53.44
71.55
84.04
90.6
91.61
87.87
80.43
70.35
58.66
46.24
33.88
22.36
12.35
4.43
-1.09
-4.18
-5.13
-4.49
-2.82
-0.66
1.58
3.63
5.22
6.05
5.8
4.17
1.05
-3.45
-8.99
-15.07
-21.22
-26.99
-32.18
-36.7
-40.68
-44.42
-48.37
-53.07
-58.87
-65.66
-72.55
-77.87
-79.48
-75.46
-64.75
-47.61
-25.64
-1.31
22.75
44.25
61.69
74.24
81.62
83.88
81.36
74.66
64.67
52.57
39.63
27.08
15.87
6.66
-0.3
-5.02
-7.65
-8.45
-7.67
-5.6
-2.66
0.63
3.66
5.79
6.5
5.46
2.65
-1.69
-7.09
-12.98
-18.78
-24.03
-28.55
-32.39
-35.92
-39.72
-44.42
-50.47
-57.78
-65.47
-71.85
-74.7
-71.89
-62.08
-45.29
-23.0
2.26
27.55
50.28
68.64
81.71
89.3
91.64
89.23
82.73
72.98
61.0
47.95
34.98
23.1
13.07
5.29
-0.16
-3.44
-4.86
-4.81
-3.66
-1.8
0.44
2.71
4.62
5.75
5.7
4.21
1.19
-3.18
-8.51
-14.25
-19.84
-24.85
-29.04
-32.45
-35.37
-38.35
-42.06
-47.11
-53.74
-61.49
-69.02
-74.27
-74.9
-69.06
-55.93
-36.17
-11.73
14.62
39.94
61.76
78.38
88.98
93.5
92.46
86.79
77.67
66.33
53.94
41.48
29.73
19.28
10.54
3.83
-0.67
-2.94
-3.14
-1.67
0.85
3.71
6.22
7.88
8.44
7.89
6.35
3.91
0.67
-3.35
-8.04
-13.19
-18.55
-23.81
-28.74
-33.28
-37.5
-41.61
-45.93
-50.81
-56.52
-62.96
-69.52
-74.9
-77.29
-74.81
-66.14
-50.99
-30.39
-6.45
18.12
40.7
59.26
72.63
80.39
82.7
80.08
73.27
63.2
50.94
37.65
24.48
12.39
2.09
-5.96
-11.6
-14.86
-15.97
-15.23
-13.0
-9.66
-5.62
-1.41
2.36
5.04
6.05
5.08
2.27
-1.87
-6.66
-11.42
-15.74
-19.55
-23.01
-26.4
-30.08
-34.43
-39.78
-46.28
-53.52
-60.35
-64.85
-64.83
-58.48
-45.11
-25.52
-1.85
23.03
46.27
65.65
79.88
88.49
91.61
89.73
83.47
73.68
61.36
47.7
33.95
21.27
10.58
2.39
-3.2
-6.49
-7.98
-8.19
-7.48
-6.05
-4.01
-1.57
0.82
2.5
2.76
1.12
-2.45
-7.5
-13.25
-18.9
-23.9
-28.11
-31.75
-35.28
-39.22
-44.08
-50.19
-57.49
-65.32
-72.24
-76.22
-75.1
-67.3
-52.42
-31.46
-6.7
19.0
42.83
62.63
77.18
86.07
89.55
88.19
82.7
73.9
62.68
50.06
37.16
25.1
14.8
6.82
1.33
-1.9
-3.24
-3.11
-1.81
0.39
3.17
6.14
8.76
10.45
10.74
9.36
6.33
1.94
-3.36
-9.04
-14.69
-20.03
-25.01
-29.72
-34.4
-39.4
-45.12
-51.86
-59.54
-67.43
-73.99
-77.18
-74.91
-65.84
-49.88
-28.36
-3.66
21.4
44.27
63.04
76.63
84.62
87.07
84.4
77.34
66.89
54.3
40.88
27.81
15.96
5.86
-2.35
-8.72
-13.35
-16.25
-17.39
-16.78
-14.66
-11.57
-8.3
-5.75
-4.63
-5.34
-7.84
-11.7
-16.26
-20.81
-24.79
-27.92
-30.36
-32.66
-35.62
-40.06
-46.36
-54.11
-61.97
-67.85
-69.5
-65.17
-54.17
-37.11
-15.73
7.62
30.49
50.81
67.05
78.28
84.11
84.65
80.43
72.36
61.54
49.12
36.18
23.61
12.09
2.08
-6.21
-12.68
-17.38
-20.39
-21.85
-21.98
-21.17
-20.0
-19.15
-19.23
-20.58
-23.1
-26.37
-29.77
-32.81
-35.33
-37.61
-40.28
-44.04
-49.25
-55.5
-61.45
-65.08
-64.2
-57.21
-43.72
-24.69
-2.23
21.02
42.57
60.47
73.58
81.4
83.99
81.81
75.6
66.26
54.79
42.13
29.14
16.7
5.64
-3.25
-9.42
-12.75
-13.63
-12.86
-11.39
-10.02
-9.2
-9.01
-9.38
-10.15
-11.3
-12.88
-15.05
-17.95
-21.86
-27.07
-33.78
-41.76
-50.09
-57.07
-60.5
-58.29
-49.19
-33.25
-11.92
12.31
36.57
58.21
75.24
86.56
91.85
91.48
86.32
77.47
66.15
53.48
40.43
27.79
16.27
6.47
-1.12
-6.21
-8.85
-9.44
-8.62
-7.11
-5.55
-4.44
-4.13
-4.84
-6.63
-9.38
-12.82
-16.58
-20.46
-24.55
-29.32
-35.39
-43.15
-52.28
-61.42
-68.37
-70.59
-66.02
-53.72
-34.37
-10.06
16.19
41.17
62.24
77.7
86.99
90.39
88.71
82.96
74.06
62.88
50.29
37.26
24.86
14.13
5.78
0.05
-3.3
-4.8
-5.01
-4.34
-3.0
-1.14
0.99
3.0
4.32
4.4
2.84
-0.49
-5.43
-11.52
-18.1
-24.47
-30.09
-34.71
-38.46
-41.77
-45.23
-49.47
-54.93
-61.75
-69.47
-76.9
-82.13
-82.81
-76.89
-63.29
-42.44
-16.34
12.0
39.28
62.72
80.46
91.72
96.55
95.61
89.87
80.55
68.89
56.13
43.35
31.4
20.93
12.39
6.04
2.02
0.29
0.61
2.55
5.51
8.82
11.83
14.04
15.13
15.01
13.71
11.32
7.98
3.77
-1.19
-6.78
-12.82
-19.06
-25.18
-30.85
-35.78
-39.76
-42.87
-45.52
-48.44
-52.48
-58.2
-65.33
-72.57
-77.65
-77.97
-71.47
-57.39
-36.65
-11.59
14.73
39.32
59.91
75.19
84.75
88.7
87.53
81.9
72.58
60.54
46.87
32.74
19.29
7.45
-2.16
-9.27
-13.95
-16.42
-16.97
-15.94
-13.65
-10.52
-7.03
-3.75
-1.27
-0.12
-0.67
-3.01
-6.87
-11.71
-16.83
-21.62
-25.75
-29.2
-32.21
-35.17
-38.5
-42.56
-47.61
-53.62
-60.03
-65.6
-68.47
-66.58
-58.41
-43.55
-23.05
0.87
25.44
48.05
66.77
80.54
88.97
92.11
90.27
83.98
74.01
61.45
47.52
33.51
20.57
9.53
0.86
-5.35
-9.29
-11.34
-11.88
-11.21
-9.55
-7.12
-4.34
-1.83
-0.39
-0.72
-3.12
-7.37
-12.73
-18.26
-23.15
-27.08
-30.19
-33.02
-36.23
-40.44
-46.03
-53.02
-60.85
-68.27
-73.39
-74.03
-68.34
-55.51
-36.09
-12.01
13.95
38.85
60.28
76.71
87.53
92.81
93.06
88.97
81.3
70.86
58.53
45.31
32.25
20.31
10.21
2.32
-3.37
-7.09
-9.16
-9.81
-9.22
-7.52
-4.98
-2.06
0.56
2.13
1.97
-0.25
-4.39
-9.86
-15.8
-21.36
-26.04
-29.78
-32.99
-36.32
-40.47
-45.95
-52.92
-60.93
-68.83
-74.81
-76.75
-72.72
-61.69
-43.95
-21.09
4.4
29.76
52.57
71.1
84.29
91.71
93.44
90.0
82.31
71.58
59.12
46.14
33.56
22.03
11.92
3.41
-3.39
-8.44
-11.71
-13.17
-12.88
-10.99
-7.9
-4.33
-1.14
0.78
0.82
-1.13
-4.68
-9.13
-13.71
-17.89
-21.55
-24.93
-28.55
-32.99
-38.73
-45.86
-53.89
-61.62
-67.19
-68.5
-63.81
-52.34
-34.65
-12.5
11.55
34.87
55.21
71.1
81.76
86.96
86.95
82.26
73.82
62.78
50.4
37.85
25.99
15.38
6.24
-1.39
-7.51
-12.09
-15.06
-16.34
-16.01
-14.37
-12.04
-9.8
-8.46
-8.56
-10.24
-13.18
-16.82
-20.54
-23.97
-27.04
-30.02
-33.37
-37.64
-43.21
-50.05
-57.45
-63.93
-67.48
-66.11
-58.53
-44.6
-25.52
-3.41
19.24
40.14
57.56
70.39
78.14
80.78
78.74
72.76
63.79
52.81
40.71
28.27
16.21
5.21
-4.09
-11.21
-15.97
-18.52
-19.34
-19.07
-18.35
-17.73
-17.53
-17.86
-18.65
-19.77
-21.04
-22.41
-23.95
-25.93
-28.82
-33.11
-39.15
-46.76
-54.97
-62.08
-65.92
-64.61
-57.15
-43.85
-26.22
-6.5
12.99
30.35
44.3
54.23
59.97
61.59
59.43
53.9
45.61
35.28
23.78
12.09
1.28
-7.73
-14.33
-18.42
-20.41
-20.96
-20.79
-20.35
-19.85
-19.29
-18.67
-18.06
-17.66
-17.69
-18.45
-20.28
-23.58
-28.7
-35.59
-43.5
-50.83
-55.41
-55.08
-48.44
-35.39
-17.24
3.75
25.0
44.31
60.16
71.8
78.95
81.66
80.08
74.55
65.59
54.02
40.89
27.42
14.77
3.86
-4.79
-11.18
-15.61
-18.55
-20.4
-21.36
-21.52
-20.98
-20.05
-19.21
-19.03
-19.95
-22.31
-26.26
-31.9
-39.17
-47.52
-55.71
-61.76
-63.32
-58.41
-46.19
-27.37
-4.06
20.86
44.54
64.7
79.96
89.71
93.9
92.89
87.32
78.01
65.92
52.04
37.39
23.0
9.91
-0.94
-8.92
-13.86
-16.12
-16.48
-15.81
-14.89
-14.18
-13.88
-14.0
-14.57
-15.64
-17.33
-19.82
-23.28
-27.95
-33.99
-41.35
-49.47
-57.09
-62.32
-62.97
-57.24
-44.33
-24.87
-0.86
24.82
49.1
69.43
84.14
92.56
94.85
91.72
84.24
73.63
61.14
47.96
35.13
23.46
13.44
5.3
-1.03
-5.76
-9.08
-11.02
-11.5
-10.46
-8.11
-5.11
-2.48
-1.34
-2.45
-5.95
-11.27
-17.42
-23.33
-28.32
-32.3
-35.7
-39.36
-44.19
-50.74
-58.9
-67.55
-74.63
-77.57
-74.05
-62.77
-44.02
-19.64
7.46
34.16
57.74
76.31
88.86
95.04
95.06
89.59
79.7
66.83
52.51
38.19
25.01
13.72
4.64
-2.19
-6.9
-9.67
-10.66
-10.0
-7.92
-4.78
-1.22
1.91
3.74
3.61
1.31
-2.8
-8.0
-13.41
-18.36
-22.59
-26.29
-30.02
-34.46
-40.21
-47.39
-55.46
-63.06
-68.14
-68.46
-62.23
-48.82
-29.05
-5.06
20.25
43.96
63.84
78.58
87.72
91.41
90.03
84.15
74.51
62.1
48.19
34.11
21.06
9.87
0.92
-5.78
-10.41
-13.14
-14.07
-13.31
-11.12
-8.02
-4.76
-2.19
-1.06
-1.83
-4.58
-8.96
-14.34
-19.95
-25.11
-29.43
-32.94
-36.09
-39.61
-44.27
-50.56
-58.37
-66.75
-73.94
-77.72
-75.96
-67.27
-51.56
-30.13
-5.42
19.63
42.24
60.38
72.95
79.74
81.1
77.74
70.46
60.19
47.97
34.86
21.98
10.27
0.44
-7.11
-12.28
-15.16
-15.97
-15.06
-12.88
-10.03
-7.16
-4.94
-3.85
-4.09
-5.58
-8.01
-11.05
-14.47
-18.26
-22.67
-28.11
-34.85
-42.62
-50.39
-56.32
-58.22
-54.21
-43.43
-26.47
-5.21
17.71
39.66
58.52
72.96
82.33
86.4
85.29
79.45
69.7
57.27
43.58
30.0
17.61
7.06
-1.42
-7.84
-12.36
-15.13
-16.24
-15.79
-13.97
-11.18
-8.04
-5.35
-3.9
-4.27
-6.61
-10.58
-15.47
-20.45
-24.85
-28.39
-31.25
-34.01
-37.45
-42.28
-48.81
-56.65
-64.57
-70.57
-72.29
-67.74
-55.94
-37.37
-13.91
11.63
36.29
57.63
74.08
84.94
90.14
89.98
85.07
76.28
64.73
51.72
38.53
26.2
15.43
6.55
-0.36
-5.4
-8.7
-10.35
-10.45
-9.1
-6.57
-3.3
0.0
2.49
3.37
2.19
-1.04
-5.81
-11.3
-16.69
-21.41
-25.32
-28.67
-32.06
-36.17
-41.62
-48.6
-56.62
-64.3
-69.51
-69.9
-63.62
-50.0
-29.95
-5.73
19.63
43.18
62.66
76.79
85.2
88.14
86.16
79.98
70.45
58.57
45.47
32.3
20.11
9.65
1.33
-4.8
-8.89
-11.18
-11.88
-11.15
-9.23
-6.45
-3.31
-0.46
1.44
1.84
0.47
-2.6
-6.94
-11.88
-16.68
-20.8
-24.07
-26.68
-29.19
-32.31
-36.69
-42.67
-50.04
-57.85
-64.42
-67.56
-65.18
-55.94
-39.76
-18.07
6.63
31.34
53.35
70.67
82.3
88.02
88.19
83.58
75.2
64.2
51.76
38.99
26.79
15.8
6.44
-1.11
-6.82
-10.74
-13.0
-13.72
-13.06
-11.25
-8.64
-5.74
-3.22
-1.78
-1.97
-4.04
-7.81
-12.71
-17.99
-22.93
-27.13
-30.53
-33.48
-36.57
-40.42
-45.49
-51.81
-58.74
-64.95
-68.61
-67.79
-61.07
-48.05
-29.56
-7.48
15.72
37.57
56.05
69.82
78.27
81.34
79.45
73.35
63.98
52.43
39.74
26.83
14.46
3.21
-6.52
-14.46
-20.44
-24.38
-26.34
-26.51
-25.29
-23.24
-21.03
-19.29
-18.44
-18.58
-19.56
-21.03
-22.72
-24.48
-26.45
-28.94
-32.38
-37.1
-43.06
-49.62
-55.45
-58.73
-57.59
-50.65
-37.57
-19.23
2.42
24.88
45.65
62.75
74.92
81.67
83.15
79.94
72.92
63.12
51.56
39.21
26.89
15.32
5.08
-3.35
-9.7
-13.86
-16.0
-16.53
-15.99
-15.0
-14.1
-13.69
-13.95
-14.94
-16.52
-18.55
-20.81
-23.18
-25.71
-28.74
-32.79
-38.38
-45.52
-53.34
-59.99
-63.01
-60.14
-50.13
-33.28
-11.41
12.74
36.29
56.88
72.89
83.5
88.43
87.88
82.49
73.29
61.6
48.76
35.87
23.71
12.7
3.06
-5.05
-11.43
-15.92
-18.41
-18.99
-17.94
-15.8
-13.33
-11.34
-10.54
-11.3
-13.54
-16.83
-20.55
-24.24
-27.78
-31.47
-35.84
-41.45
-48.45
-56.3
-63.7
-68.72
-69.24
-63.56
-50.99
-32.14
-8.87
16.22
40.31
61.05
76.87
87.03
91.49
90.67
85.21
75.98
63.99
50.47
36.72
24.0
13.25
4.96
-0.91
-4.74
-7.02
-8.15
-8.32
-7.56
-5.92
-3.63
-1.2
0.67
1.3
0.21
-2.66
-6.95
-12.04
-17.21
-21.95
-26.06
-29.68
-33.25
-37.35
-42.55
-49.25
-57.31
-65.86
-73.21
-77.1
-75.27
-66.23
-49.84
-27.41
-1.46
25.01
49.17
68.9
82.92
90.78
92.68
89.25
81.53
70.69
58.0
44.62
31.54
19.55
9.2
0.85
-5.36
-9.44
-11.54
-11.89
-10.72
-8.34
-5.15
-1.68
1.34
3.16
3.16
1.05
-2.99
-8.4
-14.41
-20.26
-25.42
-29.69
-33.24
-36.53
-40.24
-45.07
-51.39
-58.97
-66.62
-72.37
-73.84
-69.02
-56.93
-38.06
-14.24
11.87
37.4
59.91
77.68
89.72
95.74
95.99
91.15
82.21
70.35
56.85
42.92
29.63
17.83
8.08
0.64
-4.52
-7.62
-8.95
-8.8
-7.42
-5.07
-2.15
0.81
3.15
4.21
3.56
1.06
-3.06
-8.26
-13.9
-19.35
-24.2
-28.28
-31.72
-34.88
-38.29
-42.56
-48.13
-55.03
-62.61
-69.41
-73.39
-72.38
-64.84
-50.34
-29.86
-5.54
19.81
43.39
62.91
76.93
84.91
87.03
83.98
76.73
66.33
53.84
40.24
26.45
13.26
1.3
-9.02
-17.44
-23.8
-27.89
-29.57
-28.87
-26.17
-22.24
-18.13
-14.83
-13.0
-12.78
-13.83
-15.63
-17.72
-19.9
-22.32
-25.43
-29.75
-35.59
-42.73
-50.14
-56.01
-58.13
-54.53
-44.21
-27.53
-6.19
17.25
39.96
59.54
74.33
83.48
86.9
85.03
78.73
69.09
57.26
44.37
31.31
18.83
7.48
-2.28
-10.05
-15.56
-18.67
-19.53
-18.56
-16.41
-13.85
-11.63
-10.32
-10.2
-11.25
-13.25
-15.86
-18.8
-21.98
-25.56
-29.98
-35.75
-43.12
-51.7
-60.14
-66.31
-67.72
-62.41
-49.55
-29.93
-5.68
20.25
44.82
65.57
80.86
89.97
92.9
90.24
83.0
72.42
59.84
46.51
33.45
21.39
10.74
1.71
-5.64
-11.23
-14.91
-16.54
-16.07
-13.8
-10.4
-6.9
-4.37
-3.62
-4.98
-8.21
-12.63
-17.45
-22.0
-25.98
-29.59
-33.43
-38.29
-44.77
-52.76
-61.19
-68.05
-70.84
-67.34
-56.36
-38.27
-14.91
10.85
35.95
57.75
74.5
85.37
90.29
89.67
84.19
74.76
62.47
48.6
34.46
21.3
10.12
1.52
-4.38
-7.8
-9.18
-9.01
-7.68
-5.47
-2.64
0.47
3.32
5.23
5.56
3.92
0.32
-4.78
-10.64
-16.49
-21.74
-26.11
-29.71
-32.92
-36.35
-40.67
-46.36
-53.44
-61.15
-67.92
-71.6
-70.0
-61.62
-46.13
-24.64
0.59
26.66
50.72
70.46
84.41
91.98
93.35
89.24
80.74
69.1
55.58
41.37
27.53
14.92
4.19
-4.25
-10.2
-13.67
-14.78
-13.8
-11.15
-7.44
-3.45
-0.06
1.98
2.13
0.27
-3.34
-8.12
-13.39
-18.56
-23.33
-27.85
-32.61
-38.27
-45.2
-53.06
-60.6
-65.77
-66.33
-60.6
-48.11
-29.83
-7.94
14.89
36.11
53.77
66.71
74.41
76.79
74.15
67.12
56.66
43.96
30.28
16.8
4.49
-5.95
-14.05
-19.55
-22.42
-22.86
-21.28
-18.29
-14.65
-11.13
-8.45
-7.13
-7.39
-9.11
-11.88
-15.15
-18.44
-21.6
-24.82
-28.64
-33.68
-40.26
-48.07
-55.97
-62.05
-64.1
-60.27
-49.68
-32.82
-11.47
11.71
33.86
52.53
66.08
73.82
75.8
72.63
65.17
54.42
41.46
27.39
13.33
0.34
-10.66
-19.0
-24.38
-26.85
-26.8
-24.81
-21.63
-18.01
-14.63
-11.99
-10.37
-9.82
-10.27
-11.64
-13.9
-17.12
-21.44
-27.03
-33.95
-41.9
-50.06
-56.91
-60.43
-58.56
-49.89
-34.21
-12.86
11.63
36.15
57.8
74.55
85.42
90.35
89.89
84.86
76.17
64.74
51.57
37.72
24.27
12.21
2.29
-5.11
-9.93
-12.38
-12.87
-11.9
-10.05
-7.99
-6.35
-5.65
-6.22
-8.03
-10.85
-14.33
-18.2
-22.44
-27.26
-33.08
-40.25
-48.72
-57.68
-65.44
-69.65
-67.92
-58.65
-41.71
-18.63
7.75
34.09
57.43
75.73
87.97
93.99
94.14
89.07
79.72
67.29
53.16
38.79
25.43
14.08
5.31
-0.69
-4.04
-5.11
-4.42
-2.51
0.09
2.91
5.47
7.24
7.66
6.2
2.59
-3.0
-9.99
-17.43
-24.36
-30.12
-34.52
-37.87
-40.87
-44.38
-49.17
-55.67
-63.67
-72.09
-78.95
-81.71
-77.97
-66.3
-46.84
-21.47
6.73
34.34
58.38
76.96
89.28
95.38
95.73
91.05
82.17
70.12
56.13
41.56
27.78
15.95
6.87
0.85
-2.29
-3.08
-2.24
-0.46
1.72
3.96
5.99
7.58
8.41
8.16
6.52
3.39
-1.16
-6.87
-13.31
-19.99
-26.38
-32.01
-36.58
-40.07
-42.84
-45.59
-49.16
-54.19
-60.68
-67.71
-73.46
-75.59
-71.92
-61.13
-43.29
-19.86
6.6
33.11
56.83
75.65
88.32
94.51
94.62
89.58
80.6
69.0
56.03
42.79
30.23
19.14
10.11
3.49
-0.63
-2.37
-2.04
-0.03
3.22
7.17
11.17
14.49
16.39
16.35
14.25
10.41
5.46
0.15
-4.95
-9.59
-13.91
-18.21
-22.82
-27.83
-33.05
-38.08
-42.41
-45.71
-47.93
-49.42
-50.87
-53.16
-57.0
-62.59
-69.2
-75.2
-78.22
-75.85
-66.37
-49.41
-26.18
0.78
28.27
53.15
73.08
86.76
93.93
95.11
91.18
83.23
72.34
59.65
46.32
33.44
21.99
12.6
5.54
0.77
-1.93
-2.75
-1.81
0.75
4.6
9.13
13.47
16.63
17.87
16.86
13.82
9.39
4.42
-0.35
-4.52
-8.13
-11.58
-15.42
-20.04
-25.46
-31.29
-36.88
-41.59
-45.06
-47.35
-48.98
-50.78
-53.64
-58.14
-64.21
-70.79
-75.9
-77.01
-71.87
-59.2
-39.34
-14.21
13.19
39.58
62.22
79.31
90.09
94.64
93.63
88.03
78.99
67.66
55.13
42.37
30.16
19.2
9.99
2.91
-1.84
-4.25
-4.46
-2.77
0.42
4.55
8.92
12.71
15.2
15.83
14.49
11.46
7.33
2.75
-1.82
-6.22
-10.59
-15.14
-19.99
-25.05
-30.05
-34.66
-38.64
-41.87
-44.47
-46.76
-49.26
-52.61
-57.3
-63.33
-69.85
-75.09
-76.7
-72.47
-61.14
-42.86
-19.28
6.96
32.94
56.07
74.48
87.16
93.82
94.81
90.9
83.17
72.73
60.66
47.9
35.26
23.49
13.27
5.13
-0.63
-3.98
-5.17
-4.61
-2.77
-0.17
2.66
5.23
7.14
8.14
8.09
6.98
4.84
1.69
-2.38
-7.23
-12.59
-18.17
-23.67
-28.86
-33.6
-37.82
-41.52
-44.88
-48.32
-52.39
-57.6
-63.9
-70.38
-75.23
-76.16
-71.14
-59.16
-40.69
-17.58
7.48
31.7
52.74
69.02
79.78
84.86
84.58
79.6
70.85
59.4
46.39
32.89
19.84
8.08
-1.81
-9.48
-14.88
-18.15
-19.56
-19.37
-17.8
-15.11
-11.71
-8.17
-5.21
-3.5
-3.44
-5.11
-8.22
-12.27
-16.72
-21.1
-25.18
-28.96
-32.65
-36.67
-41.45
-47.3
-54.15
-61.34
-67.55
-70.96
-69.72
-62.45
-48.73
-29.34
-6.07
18.65
42.34
62.93
78.94
89.62
94.75
94.58
89.68
80.9
69.26
55.87
41.86
28.31
16.11
5.91
-1.94
-7.45
-10.89
-12.68
-13.2
-12.71
-11.3
-9.02
-6.06
-2.88
-0.21
1.11
0.45
-2.33
-6.87
-12.37
-17.9
-22.8
-26.84
-30.27
-33.68
-37.8
-43.25
-50.27
-58.45
-66.62
-72.88
-74.97
-70.88
-59.58
-41.34
-17.86
8.22
33.96
56.76
74.8
87.08
93.37
93.99
89.62
81.23
69.94
56.98
43.5
30.54
18.86
9.0
1.2
-4.5
-8.2
-10.07
-10.38
-9.37
-7.39
-4.83
-2.17
0.02
1.12
0.59
-1.84
-6.06
-11.58
-17.65
-23.51
-28.67
-33.1
-37.11
-41.29
-46.21
-52.23
-59.23
-66.41
-72.31
-74.93
-72.24
-62.84
-46.51
-24.47
0.9
26.68
50.13
69.26
82.96
90.91
93.3
90.61
83.56
73.08
60.31
46.51
32.97
20.8
10.83
3.49
-1.26
-3.82
-4.8
-4.72
-3.94
-2.53
-0.54
1.88
4.24
5.83
5.86
3.83
-0.28
-5.99
-12.49
-18.93
-24.66
-29.38
-33.2
-36.52
-39.99
-44.32
-50.03
-57.09
-64.67
-71.1
-74.1
-71.47
-61.79
-45.01
-22.55
3.07
28.87
52.13
70.91
84.11
91.42
93.07
89.58
81.73
70.48
57.01
42.64
28.73
16.49
6.81
0.06
-3.88
-5.54
-5.57
-4.54
-2.76
-0.43
2.32
5.12
7.44
8.62
8.11
5.67
1.44
-4.08
-10.2
-16.21
-21.55
-25.96
-29.54
-32.73
-36.17
-40.59
-46.4
-53.43
-60.66
-66.24
-67.86
-63.44
-51.77
-33.08
-9.14
17.12
42.37
63.66
79.01
87.62
89.69
86.05
77.84
66.27
52.52
37.79
23.27
10.1
-0.74
-8.57
-13.18
-14.83
-14.14
-11.9
-8.81
-5.38
-1.87
1.55
4.64
6.99
8.08
7.39
4.69
0.14
-5.69
-11.98
-17.95
-23.11
-27.34
-30.9
-34.28
-38.06
-42.71
-48.5
-55.29
-62.37
-68.35
-71.34
-69.34
-60.86
-45.54
-24.43
0.16
25.3
48.14
66.57
79.46
86.53
88.05
84.61
76.89
65.78
52.35
37.88
23.71
11.06
0.78
-6.69
-11.35
-13.59
-13.94
-12.92
-10.92
-8.17
-4.9
-1.47
1.53
3.35
3.25
0.88
-3.63
-9.54
-15.8
-21.46
-25.95
-29.28
-31.95
-34.7
-38.29
-43.23
-49.63
-57.02
-64.21
-69.35
-70.26
-65.05
-52.76
-33.84
-10.17
15.45
40.03
61.1
77.1
87.41
92.05
91.41
86.1
76.9
64.79
50.95
36.66
23.18
11.54
2.4
-3.96
-7.66
-9.11
-8.82
-7.33
-5.05
-2.33
0.49
2.99
4.64
4.91
3.37
-0.1
-5.25
-11.5
-18.06
-24.19
-29.41
-33.61
-37.03
-40.21
-43.83
-48.51
-54.6
-61.8
-69.02
-74.36
-75.5
-70.33
-57.79
-38.3
-13.78
12.85
38.48
60.57
77.54
88.74
94.17
94.2
89.39
80.47
68.43
54.5
40.07
26.48
14.83
5.76
-0.54
-4.32
-6.06
-6.28
-5.36
-3.52
-0.92
2.16
5.24
7.58
8.44
7.25
3.85
-1.42
-7.86
-14.58
-20.82
-26.11
-30.33
-33.73
-36.79
-40.14
-44.43
-50.11
-57.13
-64.68
-71.05
-73.95
-71.1
-61.08
-43.92
-21.22
4.3
29.57
51.94
69.6
81.7
88.07
88.98
85.01
76.98
65.94
53.11
39.76
27.05
15.87
6.86
0.27
-3.91
-5.99
-6.36
-5.42
-3.48
-0.74
2.56
6.0
8.91
10.49
10.03
7.17
2.1
-4.49
-11.61
-18.33
-23.97
-28.38
-31.86
-35.07
-38.82
-43.83
-50.43
-58.22
-65.99
-71.78
-73.36
-68.83
-57.29
-39.12
-16.02
9.47
34.53
56.62
73.89
85.28
90.53
90.0
84.49
75.04
62.82
49.02
34.81
21.33
9.5
-0.02
-6.97
-11.5
-13.98
-14.79
-14.21
-12.39
-9.51
-6.0
-2.57
-0.11
0.57
-0.99
-4.73
-10.12
-16.31
-22.44
-27.92
-32.53
-36.52
-40.46
-45.02
-50.75
-57.76
-65.49
-72.6
-77.2
-77.2
-71.0
-58.0
-38.88
-15.49
9.62
33.81
54.83
71.15
81.93
86.98
86.54
81.23
71.96
59.89
46.29
32.45
19.52
8.36
-0.5
-6.87
-10.87
-12.73
-12.75
-11.24
-8.54
-5.18
-1.92
0.36
0.9
-0.68
-4.22
-9.09
-14.42
-19.46
-23.81
-27.51
-30.96
-34.81
-39.73
-46.13
-53.87
-61.95
-68.49
-71.05
-67.38
-56.17
-37.7
-13.82
12.52
38.17
60.44
77.54
88.64
93.58
92.76
86.92
77.12
64.65
50.87
37.04
24.14
12.87
3.65
-3.33
-8.05
-10.6
-11.22
-10.22
-7.95
-4.84
-1.48
1.38
2.92
2.44
-0.36
-5.2
-11.27
-17.55
-23.13
-27.61
-31.16
-34.39
-38.16
-43.23
-50.0
-58.2
-66.73
-73.59
-76.31
-72.6
-61.19
-42.34
-17.99
8.84
34.91
57.54
74.98
86.48
91.94
91.72
86.46
77.13
64.97
51.39
37.76
25.17
14.38
5.73
-0.7
-5.03
-7.46
-8.18
-7.41
-5.42
-2.55
0.66
3.52
5.27
5.25
3.14
-0.95
-6.5
-12.72
-18.83
-24.27
-28.86
-32.79
-36.61
-41.0
-46.64
-53.79
-62.02
-70.02
-75.64
-76.44
-70.42
-56.72
-36.13
-10.84
16.06
41.46
62.92
78.97
89.11
93.42
92.3
86.35
76.4
63.6
49.38
35.24
22.54
12.19
4.58
-0.38
-3.04
-3.86
-3.27
-1.6
0.84
3.69
6.55
8.92
10.24
9.97
7.75
3.57
-2.18
-8.74
-15.26
-21.07
-25.88
-29.84
-33.4
-37.16
-41.68
-47.34
-54.17
-61.69
-68.7
-73.39
-73.65
-67.67
-54.63
-35.08
-10.97
14.9
39.56
60.52
76.16
85.76
89.32
87.34
80.6
70.08
56.92
42.35
27.65
14.05
2.52
-6.34
-12.41
-15.97
-17.52
-17.52
-16.25
-13.87
-10.58
-6.85
-3.46
-1.36
-1.29
-3.49
-7.58
-12.73
-18.0
-22.75
-26.82
-30.54
-34.51
-39.35
-45.51
-53.01
-61.35
-69.38
-75.39
-77.44
-73.81
-63.62
-47.16
-25.95
-2.37
20.92
41.57
57.91
69.05
74.73
75.22
71.15
63.43
53.14
41.4
29.18
17.3
6.41
-2.94
-10.25
-15.12
-17.36
-17.16
-15.03
-11.78
-8.31
-5.45
-3.79
-3.63
-4.96
-7.53
-10.94
-14.79
-18.85
-23.12
-27.92
-33.66
-40.57
-48.29
-55.69
-60.87
-61.69
-56.33
-44.01
-25.32
-2.19
22.62
46.21
66.15
80.87
89.71
92.73
90.49
83.86
73.85
61.56
48.11
34.56
21.82
10.62
1.42
-5.56
-10.33
-13.03
-13.9
-13.25
-11.55
-9.38
-7.48
-6.51
-6.92
-8.78
-11.77
-15.34
-18.95
-22.34
-25.63
-29.28
-33.93
-39.98
-47.24
-54.65
-60.33
-61.94
-57.45
-45.82
-27.58
-4.69
19.92
43.16
62.56
76.59
84.72
87.05
84.12
76.67
65.69
52.36
38.0
23.87
11.05
0.22
-8.32
-14.57
-18.66
-20.75
-20.99
-19.53
-16.69
-12.94
-9.04
-5.83
-4.16
-4.57
-7.15
-11.39
-16.42
-21.24
-25.19
-28.16
-30.72
-33.91
-38.75
-45.74
-54.37
-62.99
-69.05
-69.83
-63.27
-48.71
-27.19
-1.2
25.99
51.13
71.68
86.17
94.15
95.97
92.45
84.67
73.76
60.85
47.04
33.34
20.71
9.96
1.63
-4.05
-7.18
-8.17
-7.54
-5.84
-3.51
-0.95
1.5
3.49
4.61
4.49
2.83
-0.42
-5.07
-10.66
-16.61
-22.3
-27.31
-31.48
-34.94
-38.06
-41.35
-45.35
-50.48
-56.79
-63.72
-69.88
-73.22
-71.49
-63.02
-47.34
-25.57
-0.12
25.94
49.73
69.1
82.9
90.8
92.96
89.86
82.23
71.08
57.74
43.61
30.02
17.87
7.66
-0.54
-6.83
-11.28
-13.86
-14.5
-13.25
-10.42
-6.71
-3.08
-0.5
0.25
-1.15
-4.5
-9.18
-14.35
-19.27
-23.53
-27.13
-30.49
-34.26
-39.1
-45.42
-53.11
-61.37
-68.7
-73.11
-72.59
-65.73
-52.15
-32.74
