0
-96.93
-89.06
-75.91
-59.22
-41.21
-23.9
-8.64
4.0
13.99
21.63
27.28
31.31
34.02
35.71
36.65
37.08
37.19
37.16
37.09
37.02
36.93
36.84
36.79
36.9
37.27
37.82
38.24
38.04
36.74
34.06
30.08
25.21
20.04
15.11
10.75
7.0
3.61
0.2
-3.57
-7.79
-12.3
-16.72
-20.72
-24.17
-27.32
-30.69
-34.94
-40.6
-47.79
-56.16
-64.79
-72.31
-77.11
-77.69
-73.13
-63.42
-49.55
-33.31
-16.74
-1.59
11.12
21.12
28.74
34.5
38.86
42.06
44.24
45.48
45.93
45.85
45.55
45.27
45.19
45.29
45.46
45.57
45.6
45.62
45.72
45.86
45.79
45.07
43.27
40.13
35.74
30.48
24.85
19.32
14.12
9.25
4.51
-0.35
-5.59
-11.33
-17.5
-23.79
-29.8
-35.17
-39.81
-43.96
-48.2
-53.26
-59.69
-67.66
-76.76
-85.9
-93.47
-97.7
-97.07
-90.85
-79.34
-63.88
-46.45
-29.1
-13.43
-0.25
10.34
18.76
25.54
31.09
35.62
39.17
41.76
43.51
44.64
45.44
46.15
46.87
47.55
48.05
48.23
48.08
47.65
47.09
46.48
45.75
44.7
43.1
40.79
37.7
33.93
29.6
24.86
19.93
15.03
10.43
6.27
2.5
-1.14
-5.05
-9.55
-14.72
-20.32
-25.92
-31.11
-35.7
-39.84
-43.96
-48.64
-54.35
-61.4
-69.72
-78.81
-87.64
-94.8
-98.69
-97.91
-91.73
-80.37
-65.04
-47.67
-30.3
-14.61
-1.49
8.98
17.24
23.88
29.33
33.77
37.16
39.5
40.94
41.79
42.4
43.01
43.68
44.32
44.81
45.09
45.22
45.35
45.59
45.93
46.16
45.89
44.65
42.18
38.56
34.31
30.12
26.6
23.89
21.61
19.03
15.4
10.46
4.53
-1.67
-7.34
-11.99
-15.68
-18.9
-22.39
-26.86
-32.79
-40.31
-49.12
-58.48
-67.16
-73.63
-76.34
-74.16
-66.81
-55.0
-40.31
-24.71
-9.99
2.68
12.91
20.9
27.1
31.9
35.47
37.87
39.13
39.47
39.23
38.86
38.69
38.91
39.44
40.06
40.52
40.64
40.41
39.96
39.48
39.06
38.58
37.74
36.14
33.5
29.81
25.36
20.7
16.36
12.58
9.25
5.96
2.23
-2.26
-7.46
-13.06
-18.6
-23.7
-28.15
-32.04
-35.65
-39.4
-43.77
-49.25
-56.14
-64.45
-73.65
-82.65
-89.84
-93.51
-92.37
-85.94
-74.81
-60.42
-44.69
-29.38
-15.74
-4.27
5.13
12.89
19.46
25.1
29.89
33.77
36.66
38.61
39.87
40.76
41.6
42.49
43.36
43.91
43.92
43.33
42.32
41.23
40.34
39.7
39.11
38.16
36.46
33.76
30.1
25.71
20.98
16.31
11.99
8.17
4.75
1.48
-2.0
-5.98
-10.56
-15.64
-20.93
-26.17
-31.11
-35.73
-40.09
-44.44
-49.14
-54.62
-61.24
-69.04
-77.62
-85.93
-92.44
-95.47
-93.73
-86.68
-74.9
-59.85
-43.51
-27.77
-13.94
-2.54
6.68
14.27
20.83
26.64
31.64
35.64
38.45
40.16
41.07
41.59
42.01
42.43
42.76
42.86
42.68
42.34
42.07
42.03
42.16
42.2
41.78
40.57
38.47
35.64
32.3
28.72
25.05
21.36
17.65
13.93
10.19
6.37
2.35
-1.98
-6.66
-11.55
-16.36
-20.79
-24.64
-27.98
-31.18
-34.76
-39.27
-45.14
-52.47
-60.9
-69.58
-77.11
-81.89
-82.36
-77.61
-67.72
-53.78
-37.62
-21.24
-6.19
6.68
17.23
25.77
32.67
38.19
42.42
45.43
47.34
48.36
48.82
49.07
49.4
49.95
50.73
51.58
52.3
52.73
52.86
52.79
52.59
52.19
51.31
49.64
47.04
43.62
39.77
35.9
32.21
28.58
24.65
20.03
14.56
8.39
1.95
-4.24
-9.79
-14.62
-18.99
-23.44
-28.64
-35.13
-43.09
-52.15
-61.45
-69.65
-75.25
-76.88
-73.69
-65.62
-53.5
-38.87
-23.61
-9.38
2.78
12.6
20.38
26.65
31.84
36.1
39.38
41.62
42.9
43.44
43.54
43.41
43.13
42.63
41.83
40.7
39.38
38.06
36.98
36.15
35.4
34.33
32.5
29.63
25.69
21.03
16.12
11.46
7.33
3.77
0.57
-2.58
-5.94
-9.65
-13.61
-17.63
-21.45
-24.9
-28.01
-31.03
-34.37
-38.51
-43.81
-50.34
-57.85
-65.66
-72.7
-77.66
-79.26
-76.57
-69.35
-58.26
-44.67
-30.27
-16.51
-4.28
6.23
15.27
23.19
30.1
35.9
40.37
43.42
45.2
46.05
46.4
46.53
46.54
46.33
45.76
44.79
43.49
42.09
40.83
39.89
39.28
38.82
38.15
36.86
34.68
31.56
27.64
23.29
18.91
14.83
11.18
7.89
4.72
1.31
-2.61
-7.13
-12.06
-17.05
-21.69
-25.7
-29.1
-32.22
-35.57
-39.66
-44.89
-51.41
-59.02
-67.12
-74.73
-80.46
-82.88
-80.9
-74.21
-63.48
-50.2
-36.2
-23.12
-12.0
-3.15
3.66
8.93
13.15
16.64
19.53
21.86
23.64
24.89
25.65
26.0
25.97
25.61
24.96
24.19
23.51
23.2
23.43
24.14
24.98
25.4
24.92
23.27
20.54
17.17
13.69
10.52
7.85
5.59
3.43
1.01
-1.96
-5.53
-9.51
-13.55
-17.27
-20.47
-23.24
-25.92
-29.03
-33.03
-38.16
-44.3
-50.96
-57.23
-62.0
-64.03
-62.34
-56.47
-46.76
-34.3
-20.67
-7.45
4.22
13.73
21.04
26.39
30.04
32.19
33.04
32.89
32.19
31.41
30.92
30.9
31.31
32.01
32.78
33.47
33.98
34.28
34.4
34.28
33.86
32.98
31.47
29.29
26.56
23.49
20.34
17.17
13.86
10.15
5.82
0.87
-4.44
-9.65
-14.37
-18.33
-21.58
-24.46
-27.5
-31.39
-36.64
-43.46
-51.47
-59.61
-66.32
-69.93
-69.16
-63.58
-53.75
-41.08
-27.35
-14.27
-2.96
6.16
13.31
19.01
23.83
28.06
31.7
34.6
36.62
37.74
38.14
38.01
37.5
36.72
35.71
34.61
33.63
32.99
32.85
33.15
33.62
33.83
33.38
32.0
29.67
26.6
23.15
19.73
16.64
13.9
11.3
8.46
4.98
0.67
-4.34
-9.68
-14.82
-19.31
-22.94
-25.84
-28.45
-31.44
-35.46
-40.96
-47.93
-55.74
-63.26
-69.06
-71.7
-70.21
-64.33
-54.59
-42.18
-28.68
-15.54
-3.84
5.96
13.89
20.34
25.7
30.24
34.02
36.97
39.04
40.26
40.79
40.83
40.6
40.26
39.88
39.5
39.12
38.68
38.16
37.54
36.82
35.98
34.9
33.41
31.27
28.32
24.62
20.43
16.13
12.11
8.54
5.42
2.49
-0.56
-3.99
-7.91
-12.23
-16.7
-21.01
-24.91
-28.35
-31.48
-34.66
-38.29
-42.73
-48.16
-54.52
-61.43
-68.15
-73.61
-76.58
-75.97
-71.27
-62.78
-51.6
-39.25
-27.2
-16.47
-7.44
-0.0
6.14
11.25
15.43
18.69
21.05
22.59
23.48
23.96
24.26
24.54
24.85
25.15
25.31
25.26
25.07
24.85
24.7
24.55
24.1
22.99
20.96
18.09
14.78
11.63
9.05
7.16
5.64
3.98
1.68
-1.5
-5.44
-9.68
-13.54
-16.41
-17.93
-18.17
-17.7
-17.39
-18.21
-20.83
-25.47
-31.81
-39.1
-46.32
-52.35
-56.1
-56.65
-53.56
-46.97
-37.69
-26.99
-16.22
-6.51
1.56
7.88
12.69
16.31
19.0
20.93
22.14
22.71
22.79
22.57
22.28
22.09
22.14
22.43
22.9
23.42
23.93
24.39
24.79
25.04
24.94
24.26
22.77
20.45
17.46
14.07
10.59
7.19
3.94
0.77
-2.46
-5.83
-9.37
-13.06
-16.78
-20.41
-23.85
-27.06
-30.15
-33.34
-36.96
-41.37
-46.86
-53.49
-60.97
-68.51
-74.87
-78.66
-78.65
-74.26
-65.76
-54.29
-41.4
-28.61
-17.04
-7.19
0.94
7.61
13.16
17.79
21.52
24.32
26.18
27.22
27.76
28.21
28.92
29.99
31.27
32.47
33.34
33.73
33.75
33.56
33.32
33.07
32.67
31.88
30.45
28.22
25.21
21.66
17.94
14.41
11.18
8.08
4.7
0.65
-4.27
-9.86
-15.62
-21.0
-25.57
-29.31
-32.47
-35.55
-39.12
-43.72
-49.75
-57.35
-66.18
-75.28
-83.04
-87.48
-86.89
-80.45
-68.63
-53.16
-36.42
-20.66
-7.27
3.49
12.24
19.86
26.98
33.62
39.36
43.69
46.33
47.51
47.79
47.84
48.15
48.83
49.72
50.49
50.91
50.94
50.7
50.32
49.86
49.2
48.07
46.22
43.49
39.86
35.54
30.89
26.3
22.1
18.44
15.18
11.95
8.29
3.83
-1.5
-7.45
-13.54
-19.26
-24.28
-28.59
-32.46
-36.4
-41.03
-46.93
-54.48
-63.61
-73.62
-83.03
-89.88
-92.23
-88.78
-79.39
-65.19
-48.2
-30.77
-14.82
-1.5
8.85
16.56
22.19
26.33
29.38
31.61
33.21
34.34
35.22
36.05
37.0
38.12
39.33
40.5
41.51
42.28
42.81
43.08
43.03
42.54
41.46
39.69
37.21
34.04
30.22
25.8
20.91
15.68
10.32
4.98
-0.17
-4.99
-9.42
-13.47
-17.35
-21.55
-26.67
-33.29
-41.61
-51.18
-60.84
-68.9
-73.5
-73.19
-67.3
-56.22
-41.33
-24.75
-8.63
5.31
16.28
24.42
30.45
35.22
39.23
42.58
45.07
46.54
47.07
46.92
46.45
45.89
45.35
44.8
44.29
43.89
43.77
44.01
44.51
44.95
44.88
43.8
41.41
37.71
33.01
27.88
22.81
18.08
13.57
8.92
3.79
-1.91
-7.87
-13.61
-18.66
-22.89
-26.56
-30.21
-34.54
-40.17
-47.46
-56.36
-66.22
-75.73
-83.06
-86.27
-83.88
-75.49
-62.01
-45.44
-28.19
-12.31
1.02
11.67
20.19
27.3
33.46
38.7
42.77
45.46
46.8
47.21
47.28
47.51
48.12
48.97
49.72
50.13
50.12
49.89
49.77
49.91
50.22
50.29
49.6
47.68
44.28
39.54
33.88
27.89
22.11
16.76
11.71
6.57
0.9
-5.47
-12.31
-19.11
-25.28
-30.47
-34.73
-38.47
-42.37
-47.17
-53.51
-61.81
-72.07
-83.62
-95.02
-104.2
-108.96
-107.66
-99.84
-86.45
-69.59
-51.76
-35.08
-20.75
-8.95
0.79
9.12
16.42
22.75
27.94
31.87
34.63
36.52
37.92
39.16
40.36
41.48
42.39
42.97
43.21
43.21
43.12
43.04
42.97
42.7
41.88
40.13
37.28
33.48
29.18
24.98
21.28
18.11
15.04
11.44
6.76
0.88
-5.88
-12.87
-19.44
-25.2
-30.13
-34.52
-38.88
-43.82
-49.91
-57.57
-66.86
-77.17
-87.22
-95.1
-98.75
-96.58
-88.03
-73.85
-55.87
-36.52
-18.02
-1.93
11.18
21.48
29.49
35.66
40.22
43.22
44.76
45.21
45.18
45.34
46.08
47.46
49.19
50.9
52.33
53.41
54.15
54.51
54.31
53.32
51.37
48.5
44.96
41.05
37.04
32.99
28.74
24.05
18.65
12.52
5.85
-0.91
-7.27
-12.89
-17.77
-22.29
-27.2
-33.35
-41.43
-51.6
-63.26
-74.88
-84.23
-88.95
-87.25
-78.63
-64.12
-45.95
-26.82
-9.03
6.15
18.5
28.46
36.67
43.5
48.99
53.08
55.75
57.22
57.9
58.17
58.34
58.44
58.35
57.93
57.15
56.19
55.38
55.01
55.16
55.59
55.75
54.99
52.83
49.09
44.04
38.27
32.49
27.24
22.75
18.83
14.99
10.6
5.23
-1.18
-8.28
-15.36
-21.75
-27.09
-31.51
-35.68
-40.5
-46.89
-55.42
-66.08
-78.09
-89.89
-99.34
-104.22
-102.86
-94.72
-80.68
-62.77
-43.55
-25.24
-9.17
4.3
15.52
25.04
33.21
40.1
45.6
49.63
52.3
53.86
54.64
54.95
54.99
54.85
54.53
54.04
53.39
52.65
51.95
51.36
50.85
50.28
49.39
47.9
45.56
42.27
38.0
32.89
27.19
21.3
15.64
10.53
6.01
1.85
-2.42
-7.16
-12.56
-18.44
-24.42
-30.07
-35.15
-39.72
-44.09
-48.76
-54.27
-61.14
-69.66
-79.75
-90.71
-101.13
-109.03
-112.4
-109.75
-100.73
-86.3
-68.44
-49.53
-31.59
-15.82
-2.44
8.91
18.76
27.34
34.57
40.17
44.05
46.44
47.86
48.93
49.99
51.12
52.1
52.73
52.98
53.11
53.48
54.36
55.7
57.09
57.94
57.67
55.95
52.84
48.7
44.11
39.57
35.35
31.37
27.24
22.48
16.75
10.08
2.86
-4.34
-10.98
-16.78
-21.83
-26.47
-31.22
-36.61
-43.07
-50.82
-59.67
-68.86
-77.1
-82.64
-83.84
-79.68
-70.18
-56.5
-40.59
-24.51
-9.86
2.59
12.86
21.39
28.63
34.75
39.63
43.12
45.22
46.22
46.59
46.74
46.84
46.82
46.45
45.59
44.31
42.86
41.51
40.43
39.51
38.49
37.01
34.76
31.58
27.51
22.83
17.91
13.23
9.14
5.73
2.83
0.01
-3.19
-7.08
-11.68
-16.72
-21.85
-26.72
-31.2
-35.38
-39.46
-43.73
-48.5
-54.02
-60.44
-67.72
-75.44
-82.64
-87.94
-89.85
-87.25
-79.87
-68.44
-54.53
-39.97
-26.32
-14.45
-4.51
3.83
10.99
17.23
22.56
26.89
30.14
32.39
33.88
34.93
35.85
36.79
37.76
38.64
39.26
39.49
39.35
38.92
38.33
37.63
36.75
35.54
33.85
31.64
29.01
26.09
23.02
19.76
16.22
12.31
8.09
3.81
-0.2
-3.7
-6.73
-9.62
-12.8
-16.63
-21.13
-26.05
-30.96
-35.52
-39.6
-43.41
-47.32
-51.75
-57.06
-63.37
-70.47
-77.7
-83.93
-87.77
-87.83
-83.24
-73.92
-60.78
-45.43
-29.77
-15.42
-3.29
6.39
13.92
19.81
24.44
28.02
30.64
32.4
33.49
34.16
34.57
34.76
34.66
34.18
33.4
32.54
31.82
31.38
31.19
31.06
30.74
30.06
28.96
27.42
25.49
23.21
20.62
17.79
14.77
11.64
8.46
5.21
1.91
-1.44
-4.89
-8.48
-12.24
-16.19
-20.3
-24.48
-28.62
-32.64
-36.52
-40.38
-44.4
-48.91
-54.24
-60.64
-68.1
-76.13
-83.75
-89.53
-91.97
-89.94
-83.02
-71.73
-57.37
-41.7
-26.41
-12.8
-1.51
7.43
14.38
19.83
24.13
27.46
29.84
31.34
32.17
32.68
33.26
34.14
35.31
36.59
37.76
38.67
39.32
39.77
39.96
39.71
38.72
36.78
33.86
30.16
26.05
21.89
17.88
14.01
10.09
5.84
1.07
-4.24
-9.84
-15.27
-20.02
-23.8
-26.67
-29.12
-31.94
-35.95
-41.68
-49.1
-57.54
-65.69
-71.93
-74.67
-72.87
-66.33
-55.77
-42.61
-28.53
-15.02
-3.09
6.81
14.68
20.81
25.55
29.21
32.02
34.1
35.5
36.24
36.42
36.17
35.68
35.15
34.67
34.33
34.17
34.19
34.44
34.83
35.21
35.33
34.91
33.76
31.75
28.94
25.47
21.61
17.64
13.82
10.24
6.79
3.17
-0.97
-5.78
-11.14
-16.64
-21.84
-26.45
-30.55
-34.6
-39.19
-44.9
-51.91
-59.95
-68.17
-75.37
-80.08
-81.09
-77.66
-69.86
-58.54
-45.09
-31.06
-17.71
-5.8
4.51
13.43
21.26
28.16
34.06
38.73
41.99
43.89
44.71
44.95
45.03
45.18
45.36
45.42
45.23
44.77
44.18
43.61
43.04
42.29
41.1
39.26
36.74
33.64
30.17
26.56
23.0
19.68
16.71
14.11
11.66
9.02
5.83
1.93
-2.55
-7.2
-11.6
-15.47
-18.81
-21.91
-25.2
-29.14
-34.12
-40.37
-47.86
-56.17
-64.33
-71.03
-74.82
-74.52
-69.57
-60.29
-47.71
-33.39
-18.91
-5.59
5.84
15.29
23.1
29.74
35.49
40.32
43.96
46.22
47.18
47.17
46.68
46.03
45.3
44.43
43.43
42.41
41.63
41.25
41.25
41.32
41.1
40.24
38.56
36.06
32.82
29.02
24.9
20.78
17.02
13.91
11.52
9.68
8.01
6.0
3.28
-0.28
-4.51
-8.91
-12.95
-16.28
-18.89
-21.16
-23.78
-27.4
-32.48
-39.07
-46.75
-54.68
-61.66
-66.34
-67.51
-64.44
-57.14
-46.42
-33.71
-20.59
-8.4
2.06
10.53
17.12
22.14
25.92
28.77
30.9
32.47
33.56
34.17
34.32
34.07
33.53
32.9
32.29
31.8
31.42
31.13
30.86
30.52
29.89
28.73
26.85
24.26
21.28
18.35
15.84
13.79
11.87
9.5
6.16
1.67
-3.75
-9.56
-15.17
-20.19
-24.6
-28.79
-33.31
-38.72
-45.32
-52.92
-60.81
-67.91
-72.93
-74.75
-72.7
-66.72
-57.43
-45.97
-33.74
-22.03
-11.74
-3.16
3.85
9.66
14.57
18.59
21.6
23.51
24.46
24.84
25.13
25.61
26.29
26.93
27.36
27.54
27.65
27.96
28.55
29.26
29.64
29.21
27.63
24.89
21.33
17.46
13.78
10.53
7.69
4.94
1.95
-1.51
-5.5
-9.9
-14.49
-19.01
-23.18
-26.8
-29.78
-32.16
-34.29
-36.68
-39.92
-44.46
-50.3
-56.95
-63.37
-68.18
-70.03
-67.92
-61.59
-51.61
-39.25
-26.14
-13.78
-3.13
5.51
12.4
17.94
22.5
26.21
29.02
30.89
31.85
32.07
31.77
31.18
30.44
29.71
29.1
28.71
28.61
28.81
29.25
29.84
30.38
30.66
30.42
29.44
27.63
25.08
22.0
18.68
15.33
12.05
8.84
5.61
2.31
-1.14
-4.74
-8.52
-12.47
-16.55
-20.66
-24.7
-28.57
-32.25
-35.79
-39.3
-42.99
-47.17
-52.11
-57.93
-64.31
-70.4
-74.86
-76.28
-73.62
-66.66
-56.08
-43.23
-29.69
-16.73
-5.12
4.91
13.38
20.43
26.16
30.62
33.98
36.5
38.51
40.25
41.81
43.07
43.8
43.81
43.12
41.98
40.84
40.08
39.86
40.05
40.28
40.12
39.31
37.69
35.28
32.12
28.32
23.97
19.26
14.44
9.75
5.36
1.32
-2.42
-6.04
-9.76
-13.76
-18.12
-22.79
-27.56
-32.12
-36.22
-39.78
-42.96
-46.06
-49.5
-53.65
-58.71
-64.66
-71.12
-77.35
-82.23
-84.45
-82.91
-77.12
-67.41
-54.93
-41.26
-28.0
-16.31
-6.76
0.64
6.23
10.5
13.86
16.62
18.89
20.71
22.12
23.23
24.2
25.2
26.32
27.47
28.52
29.34
29.94
30.41
30.86
31.25
31.34
30.82
29.43
27.14
24.13
20.77
17.41
14.3
11.46
8.75
5.88
2.54
-1.44
-5.95
-10.62
-14.96
-18.64
-21.72
-24.71
-28.44
-33.65
-40.67
-49.24
-58.48
-67.05
-73.44
-76.33
-74.79
-68.65
-58.52
-45.73
-31.86
-18.4
-6.31
4.08
12.93
20.52
27.04
32.45
36.59
39.38
40.91
41.55
41.79
42.07
42.63
43.48
44.39
45.15
45.64
45.9
46.08
46.28
46.38
46.06
44.97
42.84
39.69
35.76
31.48
27.27
23.38
19.88
16.61
13.27
9.51
5.09
-0.03
-5.63
-11.3
-16.64
-21.35
-25.4
-28.97
-32.49
-36.38
-41.13
-47.08
-54.33
-62.5
-70.64
-77.29
-80.8
-79.86
-73.96
-63.59
-50.13
-35.39
-21.07
-8.29
2.54
11.54
19.19
25.89
31.86
37.09
41.49
45.0
47.72
49.86
51.68
53.32
54.79
56.02
56.94
57.61
58.13
58.61
59.04
59.3
59.14
58.39
56.95
54.86
52.18
48.99
45.29
41.13
36.65
32.04
27.58
23.42
19.56
15.78
11.75
7.19
1.97
-3.79
-9.8
-15.69
-21.16
-26.09
-30.58
-34.9
-39.52
-44.9
-51.44
-59.29
-68.12
-77.05
-84.64
-89.24
-89.42
-84.55
-75.02
-62.17
-47.83
-33.72
-20.97
-10.0
-0.67
7.36
14.33
20.32
25.19
28.8
31.08
32.12
32.15
31.47
30.39
29.18
27.89
26.49
24.93
23.22
21.49
19.91
18.56
17.34
15.97
14.15
11.77
8.97
6.07
3.41
1.21
-0.56
-2.02
-3.31
-4.56
-5.82
-7.11
-8.46
-9.83
-11.06
-11.89
-12.14
-11.85
-11.4
-11.45
-12.71
-15.65
-20.29
-26.11
-32.1
-36.95
-39.37
-38.3
-33.29
-24.6
-13.14
-0.23
12.69
24.5
34.5
42.48
48.56
52.93
55.78
57.2
57.32
56.34
54.61
52.58
50.71
49.3
48.4
47.85
47.4
46.84
46.08
45.19
44.23
43.13
41.74
39.74
36.89
33.11
28.56
23.62
18.74
14.2
10.02
5.98
1.69
-3.17
-8.71
-14.8
-21.03
-26.96
-32.26
-36.84
-40.93
-45.02
-49.72
-55.57
-62.79
-71.05
-79.42
-86.47
-90.56
-90.4
-85.37
-75.83
-62.89
-48.13
-33.12
-19.06
-6.6
4.11
13.23
21.05
27.78
33.5
38.2
41.77
44.23
45.7
46.46
46.84
47.14
47.47
47.8
47.99
47.97
47.77
47.49
47.23
46.89
46.26
45.0
42.81
39.6
35.53
30.97
26.43
22.29
18.7
15.5
12.23
8.41
3.68
-1.96
-8.16
-14.41
-20.24
-25.43
-30.1
-34.61
-39.38
-44.8
-51.09
-58.25
-66.01
-73.79
-80.6
-85.18
-86.27
-82.97
-75.11
-63.44
-49.44
-34.84
-21.1
-9.06
1.14
9.77
17.22
23.65
29.03
33.27
36.46
38.85
40.85
42.67
44.28
45.44
45.89
45.6
44.75
43.75
42.9
42.34
42.0
41.71
41.34
40.78
39.89
38.47
36.31
33.25
29.38
25.01
20.55
16.29
12.27
8.33
4.2
-0.29
-5.16
-10.23
-15.26
-20.04
-24.42
-28.43
-32.2
-36.03
-40.29
-45.29
-51.19
-57.95
-65.21
-72.33
-78.3
-81.92
-82.01
-77.79
-69.17
-56.93
-42.52
-27.61
-13.62
-1.39
8.84
17.25
24.17
29.93
34.77
38.85
42.24
44.89
46.68
47.55
47.61
47.14
46.52
46.0
45.65
45.38
45.12
44.94
44.99
45.31
45.63
45.38
43.96
41.02
36.74
31.8
27.02
22.95
19.66
16.76
13.67
9.87
5.24
-0.01
-5.43
-10.56
-15.09
-18.98
-22.47
-25.92
-29.75
-34.36
-40.03
-46.86
-54.6
-62.59
-69.64
-74.33
-75.31
-71.78
-63.78
-52.28
-38.82
-25.05
-12.3
-1.33
7.64
14.72
20.18
24.23
27.04
28.79
29.71
30.13
30.37
30.66
31.08
31.48
31.67
31.47
30.93
30.16
29.31
28.38
27.19
25.49
23.13
20.11
16.6
12.86
9.07
5.33
1.64
-2.04
-5.75
-9.56
-13.51
-17.62
-21.81
-25.93
-29.85
-33.67
-37.72
-42.49
-48.42
-55.52
-63.24
-70.43
-75.61
-77.42
-75.0
-68.26
-57.94
-45.37
-32.09
-19.41
-8.18
1.33
9.27
15.92
21.48
25.98
29.36
31.6
32.84
33.36
33.48
33.43
33.3
33.06
32.64
32.06
31.38
30.73
30.18
29.68
29.04
28.0
26.36
24.08
21.32
18.38
15.54
12.94
10.38
7.51
3.92
-0.56
-5.72
-11.04
-15.9
-19.89
-22.95
-25.43
-27.83
-30.69
-34.4
-39.22
-45.26
-52.36
-60.0
-67.11
-72.25
-73.87
-70.92
-63.3
-51.97
-38.69
-25.36
-13.47
-3.59
4.47
11.38
17.72
23.68
29.0
33.21
35.99
37.37
37.76
37.64
37.42
37.18
36.84
36.26
35.47
34.67
34.07
33.82
33.81
33.8
33.53
32.83
31.62
29.92
27.77
25.21
22.32
19.24
16.11
13.01
9.9
6.64
3.05
-0.97
-5.38
-10.0
-14.51
-18.66
-22.31
-25.59
-28.86
-32.6
-37.25
-43.03
-49.84
-57.27
-64.57
-70.7
-74.48
-74.76
-70.74
-62.37
-50.5
-36.77
-23.04
-10.82
-0.75
7.39
14.27
20.47
26.14
30.98
34.61
36.84
37.82
37.9
37.46
36.81
36.11
35.53
35.22
35.21
35.39
35.53
35.33
34.64
33.43
31.79
29.87
27.75
25.53
23.22
20.87
18.44
15.89
13.19
10.35
7.51
4.77
2.18
-0.37
-3.04
-5.99
-9.22
-12.6
-15.94
-19.14
-22.29
-25.61
-29.43
-34.0
-39.49
-45.9
-52.99
-60.18
-66.51
-70.76
-71.72
-68.63
-61.41
-50.85
-38.29
-25.29
-13.15
-2.63
6.05
12.99
18.4
22.4
25.01
26.31
26.53
26.13
25.62
25.4
25.63
26.15
26.68
26.99
27.05
27.03
27.12
27.4
27.72
27.79
27.3
26.08
24.14
21.63
18.79
15.82
12.89
10.01
7.09
3.99
0.6
-3.02
-6.69
-10.16
-13.32
-16.25
-19.31
-23.01
-27.75
-33.67
-40.52
-47.64
-53.97
-58.29
-59.47
-56.78
-50.17
-40.4
-28.75
-16.72
-5.56
4.0
11.75
17.8
22.33
25.43
27.15
27.55
26.86
25.49
23.9
22.44
21.36
20.71
20.41
20.36
20.49
20.73
20.99
21.05
20.57
19.2
16.71
13.22
9.13
5.06
1.48
-1.5
-4.18
-7.11
-10.77
-15.41
-20.88
-26.74
-32.47
-37.64
-42.03
-45.66
-48.79
-51.88
-55.49
-60.07
-65.74
-72.13
-78.26
-82.67
-83.86
-80.69
-72.8
-60.82
-46.17
-30.63
-15.82
-2.81
8.04
16.86
24.0
29.71
34.09
37.18
39.08
39.96
40.07
39.6
38.62
37.12
35.11
32.66
30.0
27.38
25.09
23.27
21.96
20.97
19.99
18.61
16.45
13.3
9.23
4.57
-0.21
-4.68
-8.67
-12.26
-15.77
-19.45
-23.42
-27.51
-31.37
-34.63
-37.06
-38.74
-39.98
-41.4
-43.68
-47.36
-52.5
-58.58
-64.43
-68.47
-69.2
-65.56
-57.41
-45.44
-31.02
-15.74
-0.92
12.59
24.46
34.72
43.54
51.0
57.08
61.7
64.82
66.57
67.2
67.05
66.42
65.49
64.3
62.82
61.03
58.99
56.83
54.75
52.87
51.2
49.55
47.59
44.99
41.53
37.28
32.57
27.91
23.75
20.29
17.35
14.49
11.15
6.9
1.68
-4.23
-10.25
-15.76
-20.34
-24.0
-27.14
-30.48
-34.76
-40.5
-47.77
-56.09
-64.44
-71.38
-75.37
-75.05
-69.73
-59.7
-46.23
-31.24
-16.75
-4.2
5.91
13.89
20.5
26.4
31.76
36.35
39.8
41.91
42.83
42.99
42.87
42.72
42.61
42.48
42.32
42.17
42.17
42.33
42.45
42.16
41.04
38.82
35.53
31.5
27.15
22.86
18.8
14.93
11.05
7.05
2.95
-1.11
-4.89
-8.23
-11.09
-13.63
-16.18
-19.18
-23.06
-28.15
-34.45
-41.55
-48.39
-53.58
-55.63
-53.45
-46.81
-36.42
-23.79
-10.66
1.42
11.56
19.52
25.58
30.11
33.48
35.88
37.39
38.14
38.3
38.0
37.36
36.4
35.18
33.8
32.51
31.62
31.35
31.68
32.35
32.92
32.91
31.92
29.8
26.66
22.85
18.81
14.98
11.54
8.43
5.28
1.68
-2.6
-7.49
-12.62
-17.46
-21.64
-25.04
-27.86
-30.48
-33.35
-36.87
-41.27
-46.44
-51.87
-56.59
-59.4
-59.16
-55.22
-47.74
-37.56
-26.07
-14.6
-4.16
4.88
12.6
19.31
25.23
30.31
34.3
36.92
38.12
38.15
37.5
36.71
36.07
35.59
34.99
34.04
32.62
30.88
29.09
27.44
26.0
24.55
22.82
20.54
17.63
14.23
10.64
7.22
4.21
1.58
-0.9
-3.61
-6.82
-10.58
-14.68
-18.69
-22.27
-25.21
-27.58
-29.66
-31.76
-34.26
-37.46
-41.6
-46.74
-52.62
-58.52
-63.3
-65.66
-64.45
-59.2
-50.25
-38.77
-26.39
-14.74
-4.89
2.85
8.86
13.92
18.71
23.5
28.12
32.09
34.98
36.68
37.38
37.48
37.28
36.87
36.13
34.94
33.32
31.58
30.12
29.21
28.89
28.84
28.57
27.64
25.9
23.52
20.88
18.36
16.16
14.21
12.26
10.0
7.26
4.1
0.76
-2.51
-5.57
-8.49
-11.5
-14.77
-18.33
-21.98
-25.45
-28.67
-31.8
-35.3
-39.63
-45.03
-51.21
-57.32
-62.12
-64.35
-63.1
-58.15
-50.04
-39.89
-29.08
-18.84
-9.94
-2.64
3.23
8.1
12.32
16.08
19.34
21.9
23.59
24.33
24.24
23.65
22.94
22.41
22.1
21.89
21.59
21.11
20.57
20.15
19.97
19.92
19.66
18.83
17.18
14.72
11.74
8.59
5.6
2.98
0.73
-1.28
-3.29
-5.51
-8.11
-11.08
-14.27
-17.44
-20.38
-23.08
-25.65
-28.37
-31.49
-35.2
-39.49
-44.09
-48.45
-51.75
-53.05
-51.62
-47.13
-39.91
-30.87
-21.14
-11.84
-3.66
3.18
8.74
13.26
16.86
19.54
21.19
21.83
21.58
20.76
19.86
19.3
19.36
20.04
21.06
22.05
22.67
22.72
22.16
21.01
19.33
17.11
14.44
11.5
8.68
6.33
4.61
3.39
2.22
0.57
-1.9
-5.19
-8.89
-12.39
-15.23
-17.26
-18.78
-20.41
-22.86
-26.64
-31.84
-38.1
-44.58
-50.2
-53.84
-54.64
-52.12
-46.35
-37.89
-27.73
-17.03
-6.93
1.81
8.9
14.52
19.12
23.15
26.81
30.04
32.59
34.28
35.11
35.24
34.88
34.16
33.13
31.8
30.24
28.65
27.22
26.09
25.18
24.25
22.96
21.04
18.38
15.12
11.57
8.08
4.85
1.85
-1.16
-4.42
-8.05
-11.88
-15.58
-18.85
-21.62
-24.13
-26.81
-30.1
-34.24
-39.25
-44.91
-50.74
-56.05
-59.91
-61.31
-59.47
-54.16
-45.83
-35.54
-24.59
-14.15
-4.89
3.02
9.8
15.8
21.24
26.15
30.41
33.8
36.18
37.52
37.97
37.75
37.18
36.46
35.81
35.3
35.05
35.12
35.51
36.04
36.35
35.98
34.54
31.93
28.36
24.32
20.42
17.03
14.32
12.1
10.04
7.7
4.79
1.22
-2.85
-7.09
-11.14
-14.74
-17.84
-20.6
-23.37
-26.57
-30.55
-35.52
-41.31
-47.38
-52.77
-56.22
-56.55
-53.03
-45.67
-35.36
-23.53
-11.77
-1.31
7.22
13.78
18.79
22.7
25.88
28.46
30.38
31.56
31.97
31.75
31.17
30.53
29.99
29.57
29.14
28.59
27.94
27.33
26.94
26.85
26.86
26.62
25.7
23.83
21.0
17.51
13.84
10.46
7.58
5.17
2.94
0.55
-2.22
-5.37
-8.63
-11.7
-14.32
-16.48
-18.36
-20.28
-22.57
-25.54
-29.33
-33.96
-39.19
-44.41
-48.76
-51.2
-50.85
-47.29
-40.7
-31.88
-21.97
-12.13
-3.21
4.37
10.58
15.61
19.68
22.92
25.32
26.8
27.33
26.98
25.95
24.51
22.97
21.59
20.6
20.14
20.24
20.78
21.47
21.88
21.57
20.28
18.01
15.05
11.81
8.6
5.62
2.75
-0.14
-3.19
-6.4
-9.61
-12.63
-15.31
-17.68
-19.85
-22.1
-24.68
-27.83
-31.65
-36.05
-40.75
-45.15
-48.47
-49.76
-48.22
-43.46
-35.69
-25.75
-14.86
-4.31
4.95
12.44
18.19
22.47
25.61
27.84
29.22
29.78
29.6
28.86
27.84
26.8
25.96
25.33
24.82
24.23
23.42
22.34
21.03
19.59
18.01
16.25
14.24
11.96
9.44
6.81
4.08
1.21
-1.96
-5.5
-9.36
-13.3
-17.02
-20.25
-22.96
-25.31
-27.62
-30.26
-33.61
-37.93
-43.28
-49.31
-55.21
-59.72
-61.46
-59.42
-53.41
-44.14
-33.01
-21.62
-11.19
-2.35
4.89
10.85
15.93
20.38
24.32
27.75
30.61
32.84
34.39
35.17
35.17
34.4
32.99
31.2
29.35
27.78
26.73
26.29
26.31
26.48
26.37
25.62
23.97
21.45
18.23
14.61
10.91
7.38
4.14
1.07
-2.0
-5.34
-9.12
-13.3
-17.63
-21.78
-25.48
-28.72
-31.78
-35.18
-39.42
-44.78
-51.1
-57.74
-63.64
-67.57
-68.41
-65.51
-58.9
-49.34
-38.09
-26.52
-15.72
-6.28
1.77
8.71
14.84
20.34
25.2
29.33
32.59
34.92
36.36
37.06
37.27
37.29
37.38
37.63
37.96
38.16
38.02
37.49
36.68
35.74
34.74
33.58
32.06
30.01
27.46
24.65
21.88
19.36
17.09
14.85
12.35
9.41
5.96
2.12
-1.91
-5.99
-9.96
-13.71
-17.15
-20.24
-23.04
-25.78
-28.86
-32.74
-37.78
-43.96
-50.7
-56.92
-61.21
-62.38
-59.74
-53.42
-44.21
-33.37
-22.13
-11.42
-1.79
6.56
13.65
19.59
24.51
28.48
31.49
33.55
34.69
35.02
34.77
34.23
33.72
33.46
33.54
33.92
34.52
35.28
36.13
36.96
37.6
37.77
37.18
35.63
33.08
29.78
26.21
22.91
20.33
18.53
17.17
15.59
13.16
9.5
4.76
-0.56
-5.78
-10.34
-14.03
-17.02
-19.76
-22.79
-26.63
-31.65
-37.93
-45.12
-52.42
-58.66
-62.56
-63.14
-60.0
-53.47
-44.4
-34.0
-23.41
-13.54
-4.9
2.26
7.96
12.32
15.5
17.63
18.84
19.31
19.25
18.93
18.58
18.36
18.34
18.46
18.71
19.03
19.42
19.82
20.11
20.14
19.73
18.75
17.17
14.97
12.23
8.99
5.33
1.32
-2.98
-7.41
-11.79
-15.8
-19.15
-21.71
-23.6
-25.27
-27.31
-30.23
-34.21
-39.04
-44.11
-48.54
-51.41
-51.88
-49.39
-43.85
-35.75
-26.15
-16.38
-7.63
-0.63
4.51
8.18
10.93
13.22
15.25
17.04
18.56
19.79
20.76
21.51
22.03
22.3
22.32
22.14
21.84
21.51
21.15
20.79
20.38
19.87
19.17
18.24
17.0
15.43
13.54
11.29
8.63
5.51
2.0
-1.72
-5.3
-8.41
-10.9
-12.9
-14.8
-17.09
-20.15
-24.18
-29.14
-34.76
-40.56
-45.8
-49.49
-50.63
-48.5
-43.02
-34.83
-25.16
-15.36
-6.46
1.06
7.27
12.47
16.99
21.01
24.54
27.52
29.79
31.27
31.91
31.79
31.08
30.11
29.14
28.35
27.75
27.21
26.6
25.82
24.84
23.66
22.25
20.51
18.33
15.62
12.36
8.6
4.54
0.43
-3.52
-7.15
-10.48
-13.62
-16.73
-19.94
-23.34
-27.0
-31.08
-35.68
-40.69
-45.64
-49.61
-51.55
-50.6
