0
-12.76
-15.96
-19.02
-21.85
-24.49
-27.13
-30.03
-33.46
-37.64
-42.65
-48.35
-54.27
-59.55
-63.02
-63.53
-60.32
-53.41
-43.66
-32.5
-21.53
-11.99
-4.5
0.95
4.79
7.64
10.02
12.27
14.52
16.71
18.74
20.52
22.06
23.5
24.98
26.58
28.27
29.9
31.36
32.61
33.7
34.68
35.45
35.8
35.44
34.23
32.22
29.66
26.91
24.31
22.06
20.25
18.82
17.62
16.41
14.98
13.22
11.23
9.23
7.48
6.06
4.83
3.48
1.69
-0.65
-3.38
-6.18
-8.75
-10.94
-12.88
-14.81
-17.05
-19.91
-23.59
-28.15
-33.49
-39.22
-44.65
-48.88
-50.92
-50.04
-45.95
-39.0
-30.06
-20.35
-11.06
-3.09
3.12
7.59
10.57
12.37
13.28
13.47
13.16
12.65
12.31
12.46
13.29
14.72
16.54
18.48
20.31
21.95
23.36
24.47
25.17
25.29
24.72
23.46
21.62
19.38
16.93
14.43
11.95
9.53
7.16
4.84
2.57
0.37
-1.74
-3.78
-5.82
-7.97
-10.37
-13.12
-16.19
-19.46
-22.76
-25.95
-29.02
-32.05
-35.27
-38.97
-43.4
-48.72
-54.75
-60.9
-66.12
-69.16
-68.94
-64.96
-57.6
-48.01
-37.75
-28.28
-20.54
-14.83
-10.9
-8.29
-6.52
-5.28
-4.32
-3.44
-2.4
-0.92
1.22
4.2
8.09
12.86
18.36
24.36
30.58
36.71
42.52
47.75
52.2
55.62
57.78
58.48
57.66
55.51
52.4
48.83
45.22
41.83
38.69
35.68
32.59
29.29
25.78
22.19
18.68
15.42
12.4
9.5
6.47
3.11
-0.71
-4.88
-9.15
-13.26
-17.02
-20.45
-23.75
-27.3
-31.5
-36.7
-42.97
-49.93
-56.65
-61.77
-63.89
-62.02
-56.05
-46.76
-35.64
-24.31
-14.08
-5.66
0.88
5.84
9.68
12.81
15.53
17.96
20.1
21.85
23.2
24.22
25.12
26.18
27.58
29.32
31.26
33.18
34.92
36.44
37.74
38.8
39.48
39.56
38.82
37.18
34.75
31.81
28.79
26.04
23.77
21.99
20.44
18.77
16.67
14.04
11.06
8.12
5.58
3.67
2.29
1.08
-0.42
-2.59
-5.57
-9.24
-13.29
-17.34
-21.08
-24.36
-27.16
-29.68
-32.19
-35.06
-38.68
-43.32
-48.97
-55.18
-60.99
-65.07
-66.05
-63.04
-55.96
-45.68
-33.8
-22.08
-11.92
-3.95
1.88
6.08
9.21
11.67
13.66
15.27
16.62
17.9
19.27
20.81
22.49
24.18
25.82
27.38
28.92
30.48
32.02
33.43
34.54
35.18
35.22
34.61
33.35
31.5
29.2
26.64
24.06
21.64
19.48
17.54
15.65
13.61
11.34
8.9
6.5
4.35
2.54
0.99
-0.56
-2.37
-4.59
-7.2
-10.01
-12.78
-15.41
-17.89
-20.34
-22.91
-25.8
-29.16
-33.13
-37.69
-42.63
-47.35
-50.96
-52.4
-50.81
-45.85
-37.9
-28.01
-17.55
-7.82
0.3
6.48
10.84
13.75
15.54
16.46
16.61
16.12
15.22
14.27
13.7
13.86
14.92
16.8
19.24
21.89
24.41
26.5
27.99
28.76
28.8
28.1
26.78
24.97
22.85
20.54
18.14
15.64
13.05
10.33
7.54
4.77
2.15
-0.22
-2.35
-4.35
-6.44
-8.8
-11.51
-14.48
-17.51
-20.42
-23.16
-25.85
-28.75
-32.16
-36.27
-41.13
-46.6
-52.25
-57.38
-61.04
-62.17
-60.0
-54.27
-45.48
-34.75
-23.54
-13.16
-4.47
2.28
7.28
10.97
13.76
15.88
17.47
18.62
19.43
20.11
20.89
21.96
23.36
25.04
26.8
28.48
30.0
31.36
32.64
33.83
34.81
35.26
34.86
33.45
31.1
28.2
25.27
22.75
20.84
19.41
18.11
16.54
14.43
11.78
8.8
5.86
3.26
1.12
-0.68
-2.48
-4.67
-7.55
-11.14
-15.22
-19.35
-23.1
-26.26
-28.88
-31.29
-34.0
-37.54
-42.26
-48.19
-54.86
-61.29
-66.09
-67.86
-65.63
-59.21
-49.36
-37.53
-25.43
-14.46
-5.47
1.42
6.51
10.34
13.38
15.94
18.18
20.13
21.81
23.24
24.53
25.8
27.18
28.76
30.55
32.47
34.37
36.12
37.6
38.69
39.28
39.26
38.53
37.04
34.9
32.29
29.53
26.94
24.72
22.98
21.62
20.46
19.26
17.83
16.06
13.93
11.52
9.01
6.64
4.61
3.0
1.64
0.19
-1.77
-4.52
-8.1
-12.26
-16.58
-20.64
-24.17
-27.1
-29.57
-31.94
-34.63
-38.13
-42.76
-48.51
-54.86
-60.81
-64.99
-66.1
-63.3
-56.53
-46.57
-34.81
-22.91
-12.25
-3.69
2.57
6.86
9.78
11.9
13.63
15.14
16.52
17.83
19.17
20.69
22.49
24.52
26.65
28.67
30.43
31.87
33.05
34.02
34.81
35.35
35.5
35.1
34.04
32.31
29.97
27.24
24.4
21.73
19.45
17.61
16.08
14.64
13.06
11.25
9.31
7.44
5.84
4.53
3.33
1.95
0.05
-2.48
-5.56
-8.89
-12.12
-15.0
-17.45
-19.64
-21.85
-24.48
-27.86
-32.17
-37.37
-43.02
-48.35
-52.24
-53.54
-51.38
-45.53
-36.58
-25.79
-14.75
-4.9
2.92
8.5
12.21
14.57
16.0
16.71
16.71
16.08
15.09
14.19
13.89
14.51
16.08
18.33
20.85
23.24
25.27
26.82
27.87
28.4
28.31
27.51
25.95
23.72
21.0
18.05
15.08
12.24
9.58
7.08
4.74
2.54
0.51
-1.39
-3.23
-5.16
-7.37
-9.95
-12.85
-15.9
-18.86
-21.6
-24.14
-26.7
-29.58
-33.12
-37.58
-43.04
-49.29
-55.75
-61.42
-65.06
-65.51
-62.1
-54.95
-44.99
-33.67
-22.52
-12.71
-4.82
1.12
5.45
8.63
11.04
12.94
14.49
15.8
16.99
18.19
19.48
20.92
22.48
24.08
25.72
27.41
29.22
31.09
32.83
34.13
34.69
34.32
33.08
31.18
28.91
26.5
24.08
21.71
19.42
17.25
15.23
13.33
11.48
9.63
7.71
5.75
3.75
1.68
-0.53
-2.98
-5.7
-8.63
-11.63
-14.54
-17.29
-19.94
-22.76
-26.09
-30.27
-35.49
-41.65
-48.2
-54.2
-58.43
-59.69
-57.21
-50.96
-41.73
-30.94
-20.17
-10.71
-3.23
2.27
6.22
9.18
11.53
13.39
14.75
15.57
15.94
16.13
16.46
17.16
18.29
19.73
21.25
22.68
23.99
25.24
26.49
27.66
28.53
28.73
27.94
26.0
23.04
19.41
15.63
12.21
9.48
7.5
6.02
4.6
2.77
0.27
-2.86
-6.33
-9.7
-12.62
-14.98
-16.97
-18.99
-21.54
-25.09
-29.87
-35.8
-42.29
-48.32
-52.59
-53.88
-51.5
-45.51
-36.74
-26.55
-16.34
-7.17
0.4
6.33
10.84
14.2
16.62
18.21
19.03
19.24
19.11
19.02
19.35
20.38
22.13
24.36
26.63
28.54
29.82
30.46
30.61
30.47
30.09
29.36
28.08
26.08
23.36
20.12
16.75
13.6
10.95
8.78
6.9
4.94
2.59
-0.31
-3.69
-7.3
-10.88
-14.21
-17.25
-20.13
-23.03
-26.25
-30.05
-34.68
-40.21
-46.36
-52.4
-57.17
-59.38
-58.0
-52.73
-44.14
-33.47
-22.3
-11.96
-3.26
3.62
8.97
13.21
16.69
19.59
21.9
23.61
24.74
25.47
26.06
26.8
27.88
29.36
31.06
32.75
34.16
35.14
35.65
35.72
35.42
34.77
33.7
32.12
29.99
27.34
24.32
21.13
18.01
15.14
12.56
10.21
7.91
5.41
2.55
-0.67
-4.09
-7.4
-10.32
-12.73
-14.81
-16.92
-19.53
-23.08
-27.82
-33.73
-40.51
-47.48
-53.58
-57.59
-58.39
-55.34
-48.56
-38.93
-27.85
-16.78
-6.87
1.24
7.43
11.97
15.31
17.92
20.14
22.14
23.92
25.36
26.42
27.19
27.9
28.78
29.97
31.39
32.81
33.99
34.81
35.28
35.45
35.29
34.68
33.4
31.31
28.45
25.01
21.35
17.82
14.69
12.07
9.91
7.99
6.0
3.65
0.74
-2.73
-6.55
-10.34
-13.75
-16.55
-18.8
-20.79
-22.98
-25.85
-29.78
-34.99
-41.33
-48.29
-54.87
-59.73
-61.51
-59.2
-52.57
-42.35
-30.03
-17.41
-6.03
3.18
10.04
14.93
18.45
21.08
23.09
24.54
25.45
25.9
26.16
26.53
27.29
28.52
30.11
31.78
33.22
34.21
34.69
34.76
34.54
34.12
33.46
32.4
30.77
28.47
25.55
22.24
18.85
15.71
12.97
10.61
8.44
6.17
3.6
0.65
-2.56
-5.78
-8.78
-11.39
-13.63
-15.71
-18.0
-20.89
-24.71
-29.59
-35.32
-41.26
-46.37
-49.39
-49.18
-45.11
-37.29
-26.67
-14.7
-2.96
7.28
15.38
21.25
25.15
27.43
28.32
27.96
26.48
24.23
21.77
19.77
18.82
19.2
20.73
22.9
25.15
27.02
28.35
29.18
29.56
29.43
28.62
26.93
24.33
21.05
17.49
14.05
10.99
8.33
5.85
3.25
0.24
-3.32
-7.37
-11.7
-15.97
-19.89
-23.31
-26.34
-29.3
-32.65
-36.84
-42.11
-48.38
-55.15
-61.57
-66.47
-68.56
-66.82
-60.75
-50.74
-37.99
-24.28
-11.39
-0.62
7.49
13.19
17.1
19.81
21.67
22.71
22.91
22.34
21.34
20.41
20.0
20.34
21.41
22.97
24.72
26.41
27.91
29.09
29.8
29.85
29.06
27.37
24.86
21.79
18.45
15.09
11.85
8.75
5.81
3.09
0.65
-1.49
-3.46
-5.55
-8.05
-11.16
-14.88
-18.95
-23.0
-26.66
-29.74
-32.31
-34.71
-37.48
-41.17
-46.2
-52.61
-59.97
-67.31
-73.29
-76.41
-75.44
-69.78
-59.69
-46.33
-31.45
-16.98
-4.47
5.26
12.18
16.85
20.05
22.43
24.35
25.94
27.22
28.28
29.29
30.47
31.93
33.64
35.48
37.25
38.82
40.14
41.19
41.97
42.34
42.14
41.14
39.25
36.56
33.35
30.01
26.87
24.11
21.63
19.21
16.66
13.92
11.08
8.33
5.76
3.3
0.73
-2.22
-5.65
-9.52
-13.56
-17.46
-20.96
-23.99
-26.71
-29.5
-32.81
-37.11
-42.65
-49.35
-56.63
-63.44
-68.35
-69.91
-67.03
-59.41
-47.7
-33.45
-18.62
-5.09
5.87
13.84
19.1
22.3
24.09
24.93
25.09
24.81
24.39
24.23
24.69
25.92
27.78
29.94
31.98
33.64
34.86
35.74
36.47
37.1
37.54
37.51
36.73
35.03
32.43
29.2
25.77
22.56
19.83
17.55
15.52
13.41
11.0
8.27
5.43
2.71
0.31
-1.8
-3.83
-6.06
-8.73
-11.89
-15.4
-19.0
-22.41
-25.47
-28.25
-31.02
-34.2
-38.19
-43.22
-49.19
-55.52
-61.22
-64.97
-65.52
-62.05
-54.46
-43.45
-30.43
-17.06
-4.85
5.2
12.69
17.76
20.81
22.28
22.53
21.83
20.48
18.83
17.33
16.4
16.38
17.36
19.17
21.47
23.84
25.93
27.55
28.64
29.21
29.27
28.78
27.65
25.77
23.07
19.66
15.77
11.79
8.07
4.89
2.28
0.03
-2.23
-4.85
-8.05
-11.82
-15.91
-19.98
-23.68
-26.84
-29.51
-31.97
-34.65
-37.99
-42.33
-47.79
-54.13
-60.68
-66.34
-69.77
-69.63
-65.08
-56.09
-43.56
-29.19
-14.88
-2.27
7.74
14.99
19.85
22.87
24.47
24.94
24.46
23.36
22.04
21.03
20.74
21.39
22.94
25.14
27.63
30.08
32.21
33.85
34.89
35.28
35.0
34.05
32.46
30.31
27.66
24.64
21.35
17.89
14.36
10.85
7.46
4.31
1.46
-1.12
-3.57
-6.12
-9.04
-12.45
-16.26
-20.21
-23.94
-27.21
-30.07
-32.83
-36.05
-40.29
-45.88
-52.74
-60.25
-67.25
-72.25
-73.73
-70.63
-62.65
-50.51
-35.75
-20.38
-6.28
5.21
13.56
18.99
22.19
23.97
24.99
25.61
26.0
26.24
26.51
27.07
28.18
29.95
32.21
34.61
36.74
38.34
39.37
39.99
40.35
40.46
40.19
39.32
37.67
35.24
32.17
28.7
25.06
21.44
17.95
14.68
11.69
9.02
6.66
4.48
2.25
-0.3
-3.36
-6.96
-10.91
-14.91
-18.64
-21.91
-24.79
-27.54
-30.57
-34.3
-39.1
-45.06
-51.92
-58.89
-64.68
-67.72
-66.61
-60.65
-50.24
-36.76
-22.23
-8.63
2.67
11.15
17.04
20.91
23.35
24.72
25.21
24.98
24.31
23.65
23.53
24.34
26.19
28.85
31.84
34.62
36.82
38.32
39.19
39.59
39.58
39.09
37.92
35.97
33.3
30.16
26.87
23.69
20.74
17.98
15.32
12.7
10.16
7.76
5.55
3.47
1.38
-0.88
-3.46
-6.41
-9.69
-13.15
-16.57
-19.75
-22.52
-24.93
-27.24
-29.9
-33.45
-38.28
-44.38
-51.18
-57.52
-61.88
-62.81
-59.36
-51.5
-40.14
-26.92
-13.66
-1.88
7.55
14.46
19.12
21.95
23.29
23.33
22.25
20.35
18.12
16.21
15.24
15.59
17.27
19.94
22.99
25.8
27.94
29.29
29.98
30.2
30.08
29.56
28.4
26.41
23.5
19.87
15.9
12.02
8.6
5.79
3.55
1.69
-0.04
-1.85
-3.85
-6.09
-8.56
-11.16
-13.81
-16.45
-19.07
-21.78
-24.74
-28.18
-32.35
-37.42
-43.35
-49.73
-55.65
-59.9
-61.14
-58.42
-51.5
-41.04
-28.42
-15.33
-3.37
6.43
13.65
18.43
21.19
22.45
22.65
22.14
21.25
20.28
19.56
19.4
19.97
21.34
23.39
25.92
28.65
31.28
33.47
34.93
35.42
34.88
33.43
31.34
28.92
26.34
23.67
20.87
17.88
14.72
11.49
8.33
5.38
2.7
0.31
-1.82
-3.84
-5.94
-8.31
-11.11
-14.31
-17.77
-21.29
-24.7
-28.0
-31.31
-34.85
-38.87
-43.63
-49.28
-55.81
-62.74
-69.06
-73.27
-73.81
-69.63
-60.68
-48.08
-33.75
-19.77
-7.76
1.57
8.31
13.05
16.49
19.15
21.29
23.04
24.47
25.67
26.84
28.16
29.8
31.8
34.03
36.25
38.21
39.72
40.78
41.47
41.87
41.96
41.58
40.51
38.64
36.03
32.97
29.86
27.07
24.82
23.1
21.69
20.28
18.56
16.39
13.78
10.91
8.05
5.45
3.23
1.33
-0.48
-2.52
-5.1
-8.42
-12.5
-17.12
-21.93
-26.54
-30.61
-34.03
-36.93
-39.7
-42.88
-47.0
-52.4
-58.96
-66.0
-72.21
-76.0
-75.88
-71.01
-61.53
-48.59
-34.07
-19.95
-7.8
1.58
8.22
12.72
15.83
18.22
20.29
22.22
24.07
25.87
27.68
29.54
31.48
33.48
35.49
37.43
39.26
40.92
42.38
43.6
44.49
44.93
44.77
43.92
42.34
40.14
37.55
34.87
32.34
30.05
27.98
26.05
24.17
22.33
20.55
18.81
17.05
15.15
13.01
10.62
8.06
5.49
3.03
0.7
-1.61
-4.09
-6.95
-10.33
-14.21
-18.43
-22.65
-26.55
-29.91
-32.74
-35.34
-38.18
-41.82
-46.67
-52.78
-59.63
-66.16
-70.85
-72.14
-68.96
-61.11
-49.45
-35.67
-21.75
-9.42
0.32
7.25
11.82
14.75
16.73
18.21
19.4
20.39
21.26
22.16
23.3
24.85
26.85
29.12
31.42
33.48
35.14
36.4
37.27
37.75
37.73
37.1
35.77
33.85
31.53
29.08
26.7
24.46
22.35
20.34
18.38
16.51
14.78
13.21
11.75
10.3
8.75
7.02
5.12
3.12
1.14
-0.72
-2.47
-4.24
-6.22
-8.65
-11.6
-14.99
-18.54
-21.94
-25.02
-27.77
-30.41
-33.25
-36.6
-40.65
-45.48
-50.94
-56.64
-61.8
-65.35
-66.1
-63.08
-56.04
-45.56
-33.02
-20.17
-8.62
0.63
7.26
11.56
14.1
15.44
15.97
15.89
15.37
14.7
14.26
14.5
15.75
18.02
21.0
24.19
27.08
29.4
31.15
32.47
33.45
33.98
33.79
32.65
30.5
27.58
24.33
21.19
18.47
16.21
14.31
12.58
10.86
9.03
7.07
5.05
3.09
1.32
-0.17
-1.47
-2.82
-4.55
-6.92
-9.99
-13.55
-17.2
-20.56
-23.4
-25.74
-27.82
-30.03
-32.75
-36.35
-41.01
-46.62
-52.65
-58.13
-61.73
-62.19
-58.65
-51.07
-40.29
-27.81
-15.33
-4.3
4.42
10.65
14.71
17.15
18.46
18.96
18.81
18.19
17.39
16.83
16.91
17.86
19.62
21.9
24.3
26.52
28.45
30.07
31.41
32.38
32.8
32.47
31.24
29.11
26.23
22.93
19.58
16.54
14.06
12.14
10.61
9.15
7.45
5.32
2.81
0.12
-2.45
-4.7
-6.6
-8.35
-10.28
-12.72
-15.85
-19.58
-23.62
-27.56
-31.16
-34.43
-37.64
-41.2
-45.5
-50.72
-56.77
-63.23
-69.33
-73.99
-75.97
-74.23
-68.26
-58.43
-45.96
-32.57
-20.0
-9.42
-1.2
4.91
9.51
13.15
16.19
18.75
20.82
22.44
23.69
24.77
25.88
27.24
28.99
31.15
33.59
36.06
38.28
40.03
41.16
41.62
41.4
40.47
38.84
36.57
33.87
31.02
28.31
25.94
23.97
22.3
20.78
19.26
17.64
15.86
13.89
11.71
9.35
6.9
4.49
2.28
0.29
-1.6
-3.7
-6.36
-9.83
-14.06
-18.74
-23.35
-27.42
-30.73
-33.44
-35.99
-39.01
-43.05
-48.46
-55.18
-62.66
-69.77
-74.98
-76.7
-73.83
-66.14
-54.5
-40.61
-26.49
-13.85
-3.67
3.9
9.27
13.11
16.02
18.45
20.59
22.55
24.37
26.06
27.71
29.44
31.38
33.57
35.93
38.25
40.32
42.01
43.32
44.29
44.91
45.05
44.51
43.12
40.94
38.25
35.46
32.95
30.87
29.15
27.54
25.84
23.98
21.99
19.99
18.07
16.23
14.4
12.48
10.41
8.18
5.83
3.46
1.1
-1.25
-3.67
-6.36
-9.49
-13.18
-17.4
-21.9
-26.28
-30.17
-33.39
-36.1
-38.78
-42.07
-46.53
-52.33
-59.09
-65.8
-71.01
-73.21
-71.24
-64.75
-54.34
-41.43
-27.87
-15.36
-5.03
2.7
8.12
11.78
14.32
16.19
17.67
18.9
20.01
21.17
22.55
24.3
26.49
29.01
31.66
34.16
36.26
37.84
38.93
39.63
40.03
40.08
39.57
38.24
36.0
32.97
29.57
26.3
23.55
21.46
19.89
18.5
17.0
15.19
13.09
10.84
8.64
6.68
5.03
3.69
2.5
1.19
-0.53
-2.86
-5.84
-9.28
-12.86
-16.25
-19.23
-21.81
-24.22
-26.85
-30.12
-34.34
-39.56
-45.43
-51.14
-55.5
-57.23
-55.34
-49.46
-40.11
-28.54
-16.4
-5.28
3.78
10.41
14.84
17.61
19.17
19.79
19.57
18.61
17.23
15.93
15.3
15.74
17.38
19.97
23.05
26.09
28.65
30.45
31.36
31.37
30.59
29.19
27.32
25.13
22.67
19.93
16.94
13.75
10.53
7.47
4.78
2.56
0.82
-0.56
-1.84
-3.32
-5.28
-7.85
-10.99
-14.42
-17.82
-20.97
-23.83
-26.64
-29.77
-33.66
-38.64
-44.81
-51.83
-58.88
-64.67
-67.67
-66.65
-61.07
-51.39
-38.99
-25.7
-13.25
-2.84
5.07
10.61
14.28
16.64
18.21
19.34
20.25
21.07
21.9
22.83
23.98
25.45
27.28
29.39
31.6
33.68
35.46
36.79
37.61
37.85
37.42
36.25
34.35
31.82
28.86
25.78
22.85
20.28
18.1
16.18
14.28
12.17
9.72
7.02
4.29
1.75
-0.5
-2.58
-4.8
-7.51
-10.85
-14.72
-18.76
-22.56
-25.88
-28.79
-31.61
-34.87
-39.04
-44.39
-50.9
-58.14
-65.26
-71.04
-74.06
-73.14
-67.66
-57.92
-45.12
-31.08
-17.72
-6.52
1.87
7.6
11.41
14.23
16.77
19.38
22.02
24.48
26.57
28.3
29.85
31.42
33.18
35.09
37.0
38.77
40.31
41.63
42.76
43.61
44.03
43.77
42.61
40.48
37.5
33.99
30.35
27.03
24.31
22.31
20.95
19.94
18.96
17.66
15.84
13.48
10.72
7.85
5.17
2.85
0.84
-1.12
-3.41
-6.36
-10.03
-14.26
-18.67
-22.89
-26.67
-29.97
-32.92
-35.74
-38.75
-42.31
-46.77
-52.32
-58.74
-65.23
-70.43
-72.78
-70.99
-64.59
-54.16
-41.18
-27.54
-14.96
-4.52
3.47
9.31
13.52
16.62
18.89
20.55
21.75
22.77
23.91
25.46
27.54
30.03
32.66
35.11
37.13
38.62
39.61
40.24
40.64
40.86
40.87
40.56
39.76
38.37
36.37
33.87
31.08
28.25
25.59
23.24
21.22
19.46
17.84
16.22
14.46
12.52
10.43
8.32
6.29
4.39
2.5
0.39
-2.21
-5.38
-8.98
-12.69
-16.11
-19.01
-21.38
-23.42
-25.52
-28.03
-31.26
-35.4
-40.52
-46.45
-52.73
-58.5
-62.57
-63.69
-60.94
-54.15
-44.02
-32.0
-19.83
-8.98
-0.28
6.12
10.6
13.61
15.48
16.36
16.37
15.75
14.97
14.53
14.85
16.04
17.97
20.34
22.87
25.37
27.74
29.91
31.74
33.03
33.56
33.15
31.76
29.49
26.59
23.39
20.23
17.36
14.85
12.64
10.54
8.4
6.15
3.84
1.66
-0.23
-1.8
-3.21
-4.78
-6.86
-9.69
-13.24
-17.24
-21.31
-25.09
-28.47
-31.61
-34.93
-38.92
-43.9
-49.91
-56.51
-62.77
-67.39
-68.97
-66.46
-59.54
-48.88
-35.92
-22.55
-10.42
-0.57
6.74
11.89
15.5
18.14
20.11
21.51
22.38
22.85
23.19
23.77
24.87
26.64
28.94
31.47
33.88
35.93
37.52
38.71
39.59
40.13
40.11
39.22
37.24
34.2
30.47
26.7
23.47
21.12
19.58
18.45
17.16
15.28
12.64
9.43
6.06
2.96
0.41
-1.56
-3.25
-5.08
-7.5
-10.73
-14.72
-19.13
-23.56
-27.64
-31.26
-34.52
-37.72
-41.26
-45.54
-50.85
-57.25
-64.32
-71.13
-76.27
-78.17
-75.63
-68.31
-56.91
-43.02
-28.67
-15.68
-5.19
2.48
7.78
11.48
14.37
16.93
19.32
21.49
23.39
25.06
26.69
28.47
30.51
32.71
34.84
36.7
38.18
39.33
40.31
41.2
41.96
42.38
42.18
41.1
39.07
36.18
32.78
29.3
26.16
23.6
21.61
20.0
18.45
16.7
14.65
12.36
9.98
7.7
5.62
3.74
1.92
-0.04
-2.37
-5.27
-8.83
-12.93
-17.29
-21.54
-25.37
-28.69
-31.61
-34.42
-37.53
-41.3
-46.02
-51.78
-58.39
-65.2
-71.08
-74.56
-74.23
-69.29
-59.87
-47.2
-33.14
-19.66
-8.23
0.55
6.86
11.32
14.61
17.23
19.39
21.19
22.66
23.94
25.21
26.7
28.54
30.77
33.25
35.76
38.07
40.01
41.54
42.67
43.43
43.78
43.61
42.79
41.19
38.84
35.91
32.68
29.51
26.67
24.31
22.4
20.72
18.97
16.95
14.62
12.15
9.81
7.79
6.11
4.55
2.8
0.55
-2.36
-5.9
-9.84
-13.86
-17.66
-21.01
-23.87
-26.41
-29.02
-32.14
-36.2
-41.36
-47.42
-53.68
-59.05
-62.25
-62.13
-58.1
-50.3
-39.69
-27.73
-15.99
-5.7
2.51
8.58
12.79
15.49
16.96
17.33
16.77
15.53
14.09
13.05
12.96
14.19
16.74
20.22
24.02
27.48
30.12
31.72
32.37
32.26
31.59
30.45
28.8
26.63
23.96
20.92
17.7
14.44
11.29
8.31
5.56
3.07
0.87
-1.12
-3.07
-5.22
-7.79
-10.85
-14.31
-17.89
-21.28
-24.29
-26.94
-29.52
-32.52
-36.45
-41.65
-47.98
-54.77
-60.85
-64.78
-65.27
-61.64
-53.98
-43.21
-30.8
-18.33
-7.13
1.98
8.76
13.41
16.36
18.11
19.03
19.39
19.42
19.33
19.4
19.89
21.01
22.77
25.03
27.48
29.81
31.8
33.33
34.37
34.9
34.86
34.15
32.72
30.59
27.89
24.84
21.72
18.73
15.99
13.44
10.9
8.22
5.35
2.37
-0.49
-3.06
-5.34
-7.53
-9.97
-12.96
-16.57
-20.61
-24.74
-28.63
-32.16
-35.48
-38.98
-43.16
-48.47
-55.02
-62.48
-69.91
-75.92
-78.92
-77.7
-71.78
-61.71
-48.88
-35.08
-21.99
-10.75
-1.83
4.89
9.86
13.64
16.69
19.31
21.65
23.75
25.65
27.45
29.26
31.21
33.36
35.63
37.86
39.9
41.67
43.13
44.26
44.93
44.93
43.98
41.95
38.96
35.37
31.69
28.39
25.73
23.62
21.74
19.64
17.01
13.79
10.23
6.76
3.77
1.44
-0.38
-2.08
-4.16
-6.93
-10.49
-14.6
-18.88
-22.92
-26.45
-29.45
-32.15
-35.01
-38.55
-43.25
-49.25
-56.26
-63.4
-69.29
-72.37
-71.36
-65.68
-55.72
-42.82
-28.81
-15.54
-4.33
4.28
10.49
14.92
18.27
21.05
23.49
25.6
27.34
28.73
29.95
31.24
32.81
34.74
36.91
39.05
40.92
42.4
43.53
44.43
45.12
45.45
45.08
43.66
41.09
37.6
33.76
30.22
27.44
25.49
24.05
22.62
20.79
18.45
15.77
13.11
10.76
8.79
7.02
5.14
2.81
-0.17
-3.77
-7.78
-11.86
-15.65
-18.96
-21.76
-24.28
-26.93
-30.14
-34.29
-39.61
-46.0
-52.98
-59.62
-64.62
-66.55
-64.36
-57.74
-47.34
-34.63
-21.43
-9.38
0.54
8.05
13.39
17.01
19.32
20.57
20.96
20.68
20.02
19.4
19.21
19.77
21.19
23.38
26.04
28.81
31.35
33.41
34.86
35.61
35.58
34.71
33.03
30.68
27.91
25.03
22.24
19.59
17.02
14.41
11.69
8.93
6.25
3.8
1.58
-0.48
-2.61
-4.99
-7.76
-10.88
-14.2
-17.49
-20.58
-23.39
-25.99
-28.65
-31.75
-35.68
-40.74
-46.95
-53.89
-60.61
-65.77
-67.93
-66.01
-59.66
-49.49
-36.86
-23.55
-11.2
-0.9
6.94
12.53
16.43
19.19
21.11
22.34
22.87
22.84
22.56
22.5
23.12
24.61
26.87
29.52
32.1
34.28
35.98
37.24
38.11
38.5
38.18
36.88
34.54
31.34
27.74
24.25
21.21
18.72
16.6
14.51
12.17
9.5
6.62
3.8
1.26
-0.9
-2.83
-4.8
-7.15
-10.09
-13.68
-17.77
-22.02
-26.09
-29.76
-33.01
-36.08
-39.4
-43.5
-48.82
-55.49
-63.09
-70.54
-76.25
-78.51
-76.04
-68.54
-56.86
-42.78
-28.41
-15.51
-5.06
2.85
8.75
13.3
17.04
20.22
22.88
25.05
26.77
28.21
29.56
31.01
32.67
34.57
36.67
38.83
40.87
42.59
43.87
44.62
44.83
44.52
43.65
42.19
40.11
37.47
34.45
31.33
28.37
25.74
23.48
21.43
19.41
17.22
14.76
12.06
9.22
6.4
3.75
1.35
-0.83
-2.95
-5.26
-8.06
-11.49
-15.53
-19.9
-24.19
-28.06
-31.41
-34.4
-37.41
-40.93
-45.35
-50.86
-57.38
-64.43
-71.06
-75.93
-77.52
-74.68
-67.03
-55.33
-41.25
-26.86
-13.98
-3.62
4.07
9.63
13.76
17.07
19.85
22.21
24.16
25.79
27.27
28.82
30.62
32.75
35.14
37.63
40.01
42.05
43.65
44.78
45.45
45.67
45.37
44.43
42.78
40.45
37.64
34.6
31.57
28.71
26.04
23.58
21.36
19.41
17.69
16.08
14.35
12.34
9.98
7.37
4.74
2.22
-0.19
-2.65
-5.41
-8.61
-12.25
-16.15
-20.06
-23.73
-27.08
-30.12
-33.08
-36.25
-39.97
-44.55
-50.15
-56.68
-63.67
-70.23
-75.03
-76.67
-74.07
-66.91
-55.87
-42.43
-28.48
-15.65
-4.94
3.43
9.76
14.51
18.03
20.47
21.91
22.52
22.64
22.71
23.16
24.23
25.98
28.24
30.76
33.24
35.45
37.26
38.62
39.52
39.92
39.73
38.8
37.06
34.57
31.6
28.5
25.65
23.26
21.34
19.75
18.21
16.47
14.39
11.94
9.24
6.52
4.05
1.97
0.26
-1.33
-3.15
-5.5
-8.46
-11.86
-15.39
-18.72
-21.72
-24.44
-27.1
-30.02
-33.5
-37.8
-42.98
-48.83
-54.73
-59.68
-62.46
-61.93
-57.47
-49.23
-38.17
-25.8
-13.74
-3.26
4.97
10.91
14.89
17.31
18.44
18.41
17.29
15.37
13.18
11.44
10.81
11.64
13.83
16.89
20.14
22.99
25.05
26.23
26.61
26.32
25.48
24.11
22.2
19.7
16.68
13.26
9.68
6.19
3.01
0.26
-2.05
-4.04
-5.86
-7.72
-9.76
-12.07
-14.65
-17.44
-20.32
-23.15
-25.85
-28.41
-30.99
-33.82
-37.26
-41.62
-47.07
-53.42
-59.99
-65.57
-68.68
-68.0
-62.83
-53.44
-41.04
-27.41
-14.33
-3.1
5.71
12.14
16.59
19.56
21.4
22.39
22.77
22.79
22.8
23.14
24.13
25.96
28.58
31.74
35.02
38.02
40.44
42.18
43.24
43.62
43.26
42.05
39.94
37.06
33.75
30.39
27.25
24.39
21.64
18.8
15.77
12.63
9.63
6.98
4.78
2.91
1.08
-1.07
-3.81
-7.25
-11.22
-15.38
-19.35
-22.88
-25.96
-28.95
-32.4
-36.91
-42.86
-50.17
-58.18
-65.67
-71.06
-72.86
-70.04
-62.5
-51.11
-37.5
-23.53
-10.82
-0.35
7.66
13.5
17.72
20.86
23.27
25.17
26.72
28.02
29.27
30.65
32.35
34.46
36.91
39.45
41.74
43.49
44.58
45.12
45.29
45.24
44.92
44.12
42.59
40.23
37.18
33.81
30.55
27.71
25.35
23.32
21.3
19.06
16.53
13.81
11.16
8.79
6.76
4.91
2.93
0.46
-2.71
-6.6
-10.97
-15.44
-19.63
-23.28
-26.39
-29.22
-32.2
-35.88
-40.69
-46.8
-53.92
-61.18
-67.27
-70.69
-70.16
-65.09
-55.79
-43.49
-29.94
-16.96
-5.9
2.61
8.7
12.92
15.93
18.22
20.04
21.45
22.54
23.39
24.24
25.29
26.71
28.57
30.77
33.14
35.42
37.39
38.89
39.85
40.27
40.13
39.4
37.97
35.76
32.83
29.44
26.01
22.93
20.41
18.38
16.54
14.53
12.18
9.52
6.8
4.36
2.38
0.82
-0.6
-2.29
-4.59
-7.6
-11.14
-14.85
-18.36
-21.46
-24.25
-27.1
-30.46
-34.74
-40.09
-46.37
-53.03
-59.13
-63.45
-64.7
-61.95
-54.97
-44.48
-31.96
-19.25
-7.96
0.98
7.38
11.68
14.46
16.22
17.13
17.23
16.58
15.46
14.37
13.89
14.54
16.48
19.53
23.16
26.73
29.68
31.7
32.76
32.99
32.59
31.65
30.13
27.95
25.12
21.75
18.11
14.56
11.37
8.72
6.61
4.85
3.14
1.15
-1.36
-4.44
-7.94
-11.53
-14.87
-17.8
-20.35
-22.84
-25.69
-29.29
-33.92
-39.68
-46.39
-53.52
-60.13
-64.96
-66.61
-64.07
-57.04
-46.21
-33.08
-19.53
-7.24
2.71
10.04
15.05
18.34
20.45
21.75
22.46
22.74
22.79
22.93
23.48
24.63
26.36
28.48
30.64
32.58
34.13
35.27
36.05
36.47
36.42
35.74
34.27
31.98
29.01
25.65
22.26
19.08
16.18
13.48
10.8
8.01
5.12
2.22
-0.5
-2.94
-5.17
-7.37
-9.88
-12.94
-16.62
-20.79
-25.11
-29.23
-32.92
-36.22
-39.46
-43.2
-48.01
-54.22
-61.66
-69.54
-76.49
-80.89
-81.3
-76.95
-68.01
-55.61
-41.47
-27.42
-14.9
-4.68
3.15
8.95
13.3
16.75
19.63
22.13
24.31
26.23
28.01
29.84
31.88
34.21
36.72
39.22
41.42
43.15
44.36
45.08
45.38
45.23
44.54
43.16
41.04
38.28
35.1
31.82
28.73
25.97
23.56
21.36
19.22
16.97
14.55
11.98
9.38
6.9
4.67
2.71
0.88
-1.07
-3.46
-6.52
-10.3
-14.59
-19.05
-23.29
-27.05
-30.32
-33.33
-36.47
-40.22
-45.01
-51.04
-58.09
-65.4
-71.69
-75.4
-75.14
-70.19
-60.78
-48.13
-34.05
-20.4
-8.62
0.65
7.5
12.53
16.45
19.79
22.76
25.25
27.11
28.31
29.07
29.8
30.92
32.66
34.91
37.36
39.61
41.35
42.49
43.08
43.22
42.92
42.09
40.56
38.25
35.24
31.86
28.56
25.75
23.68
22.28
21.23
20.06
18.35
15.93
12.87
9.51
6.29
3.56
1.46
-0.11
-1.5
-3.17
-5.51
-8.73
-12.72
-17.13
-21.45
-25.27
-28.39
-30.95
-33.4
-36.37
-40.45
-45.9
-52.47
-59.33
-65.16
-68.43
-67.93
-63.1
-54.25
-42.53
-29.56
-16.96
-6.01
2.66
8.95
13.16
15.76
17.17
17.7
17.62
17.16
16.6
16.34
16.73
18.01
20.2
23.05
26.15
29.05
31.45
33.25
34.47
35.11
35.12
34.31
32.57
29.92
26.61
23.09
19.79
16.99
14.71
12.74
10.81
8.72
6.48
4.21
2.12
0.34
-1.18
-2.65
-4.37
-6.59
-9.41
-12.71
-16.19
-19.56
-22.62
-25.45
-28.3
-31.57
-35.61
-40.61
-46.4
-52.44
-57.75
-61.13
-61.35
-57.62
-49.87
-38.88
-26.14
-13.38
-2.08
6.85
13.21
17.28
19.57
20.56
20.6
19.96
18.97
18.0
17.5
17.87
19.27
21.61
24.54
27.61
30.44
32.78
34.54
35.72
36.28
36.12
35.13
33.26
30.64
27.52
24.2
20.92
17.81
14.83
11.93
9.05
6.23
3.58
1.2
-0.9
-2.83
-4.85
-7.24
-10.24
-13.9
-18.07
-22.45
-26.65
-30.4
-33.65
-36.64
-39.83
-43.79
-49.05
-55.78
-63.67
-71.75
-78.5
-82.2
-81.44
-75.66
-65.34
-52.0
-37.66
-24.22
-12.99
-4.44
1.69
6.06
9.32
11.92
14.08
15.92
17.56
19.21
21.1
23.4
26.09
28.99
31.83
34.38
36.56
38.43
40.1
41.58
42.75
43.29
42.87
41.3
38.66
35.26
31.6
28.2
25.39
23.25
21.58
20.01
18.2
15.92
13.2
10.25
7.33
4.66
2.26
-0.03
-2.47
-5.35
-8.8
-12.74
-16.94
-21.08
