0
1.15
-2.65
-6.48
-10.09
-13.42
-16.61
-20.03
-24.04
-28.87
-34.37
-39.96
-44.64
-47.23
-46.67
-42.47
-34.88
-24.89
-13.91
-3.33
5.84
13.13
18.52
22.23
24.52
25.63
25.76
25.2
24.33
23.5
22.96
22.77
22.78
22.71
22.35
21.57
20.45
19.21
18.06
17.09
16.16
14.93
13.05
10.29
6.69
2.57
-1.61
-5.42
-8.66
-11.37
-13.82
-16.42
-19.59
-23.65
-28.67
-34.28
-39.59
-43.33
-44.26
-41.56
-35.26
-26.25
-15.98
-5.91
2.9
9.99
15.4
19.32
21.92
23.22
23.26
22.21
20.55
18.87
17.76
17.53
18.15
19.26
20.41
21.19
21.46
21.3
20.89
20.38
19.71
18.61
16.76
13.9
9.98
5.26
0.17
-4.8
-9.27
-13.13
-16.51
-19.77
-23.32
-27.53
-32.49
-37.93
-43.14
-47.03
-48.41
-46.4
-40.73
-31.95
-21.26
-10.19
-0.04
8.34
14.73
19.28
22.24
23.83
24.15
23.41
21.98
20.42
19.26
18.81
19.0
19.49
19.82
19.69
19.07
18.13
17.07
15.92
14.49
12.46
9.57
5.79
1.4
-3.14
-7.34
-10.92
-13.87
-16.49
-19.29
-22.75
-27.22
-32.62
-38.4
-43.53
-46.77
-46.98
-43.58
-36.75
-27.36
-16.71
-6.02
3.75
12.08
18.74
23.64
26.75
28.16
28.17
27.27
26.07
25.04
24.37
23.92
23.41
22.57
21.36
19.94
18.55
17.32
16.2
14.91
13.17
10.74
7.61
3.94
0.05
-3.77
-7.29
-10.4
-13.2
-15.94
-18.98
-22.74
-27.45
-32.98
-38.69
-43.53
-46.26
-45.8
-41.67
-34.15
-24.2
-13.21
-2.54
6.79
14.27
19.86
23.77
26.27
27.57
27.82
27.19
25.96
24.45
23.02
21.86
21.0
20.31
19.57
18.66
17.6
16.52
15.57
14.76
13.91
12.78
11.06
8.67
5.69
2.4
-0.91
-4.03
-6.96
-9.96
-13.38
-17.63
-22.92
-29.11
-35.57
-41.27
-44.94
-45.48
-42.3
-35.56
-26.18
-15.54
-5.06
4.11
11.4
16.67
20.12
22.0
22.56
22.0
20.58
18.65
16.64
14.93
13.74
13.08
12.83
12.84
12.99
13.17
13.27
13.09
12.33
10.76
8.31
5.17
1.71
-1.68
-4.77
-7.57
-10.35
-13.47
-17.26
-21.9
-27.34
-33.15
-38.55
-42.4
-43.53
-41.09
-34.93
-25.77
-15.04
-4.39
4.78
11.77
16.52
19.48
21.18
21.97
21.98
21.2
19.73
17.85
16.01
14.65
14.05
14.17
14.68
15.12
15.05
14.2
12.53
10.2
7.42
4.4
1.31
-1.77
-4.83
-7.88
-11.04
-14.45
-18.3
-22.77
-27.88
-33.35
-38.48
-42.21
-43.36
-41.05
-35.08
-26.03
-15.21
-4.22
5.56
13.32
18.88
22.52
24.67
25.68
25.69
24.77
23.07
20.92
18.77
17.08
16.13
15.93
16.18
16.47
16.42
15.8
14.57
12.77
10.49
7.79
4.75
1.43
-2.07
-5.66
-9.32
-13.19
-17.56
-22.77
-28.98
-35.97
-42.94
-48.6
-51.49
-50.47
-45.12
-35.97
-24.34
-11.9
-0.24
9.6
17.17
22.51
25.95
27.84
28.47
28.13
27.11
25.74
24.36
23.24
22.45
21.92
21.5
21.06
20.58
20.11
19.68
19.17
18.33
16.79
14.31
10.83
6.59
1.97
-2.65
-7.04
-11.21
-15.43
-20.12
-25.65
-32.16
-39.23
-45.9
-50.72
-52.21
-49.37
-42.11
-31.3
-18.57
-5.7
5.85
15.25
22.27
27.05
29.87
30.98
30.63
29.13
26.89
24.39
22.03
20.09
18.64
17.6
16.81
16.15
15.49
14.73
13.74
12.41
10.62
8.3
5.45
2.19
-1.35
-4.97
-8.53
-11.96
-15.34
-18.91
-22.99
-27.85
-33.46
-39.3
-44.3
-47.13
-46.55
-41.94
-33.58
-22.57
-10.52
1.0
10.84
18.46
23.84
27.26
29.02
29.37
28.51
26.7
24.3
21.76
19.54
17.99
17.24
17.2
17.55
17.88
17.75
16.87
15.1
12.47
9.19
5.58
1.94
-1.51
-4.7
-7.72
-10.76
-14.09
-18.0
-22.72
-28.26
-34.26
-39.81
-43.67
-44.52
-41.48
-34.49
-24.45
-12.9
-1.57
8.2
15.73
20.99
24.35
26.26
27.05
26.92
26.04
24.59
22.85
21.11
19.57
18.31
17.34
16.64
16.17
15.88
15.64
15.25
14.43
12.97
10.81
8.02
4.81
1.38
-2.14
-5.74
-9.48
-13.5
-18.04
-23.37
-29.67
-36.82
-44.21
-50.58
-54.4
-54.27
-49.46
-40.33
-28.18
-14.84
-2.04
9.01
17.84
24.51
29.32
32.54
34.3
34.75
34.14
32.92
31.61
30.6
30.05
29.76
29.37
28.52
27.03
25.02
22.81
20.73
18.95
17.33
15.53
13.12
9.83
5.68
0.99
-3.72
-7.99
-11.57
-14.57
-17.47
-20.88
-25.38
-31.17
-37.98
-44.98
-50.91
-54.41
-54.35
-50.2
-42.17
-31.26
-18.91
-6.68
4.2
13.03
19.65
24.29
27.24
28.74
28.93
27.99
26.28
24.34
22.71
21.79
21.64
22.0
22.49
22.74
22.65
22.25
21.67
20.9
19.79
18.04
15.38
11.74
7.35
2.66
-1.81
-5.69
-8.87
-11.55
-14.13
-17.1
-20.82
-25.53
-31.14
-37.21
-42.82
-46.7
-47.51
-44.33
-37.06
-26.59
-14.54
-2.71
7.47
15.36
20.98
24.74
27.05
28.12
28.05
27.01
25.31
23.41
21.77
20.64
20.0
19.66
19.4
19.01
18.39
17.45
16.05
14.05
11.34
7.95
4.09
0.02
-4.02
-7.9
-11.59
-15.18
-18.78
-22.6
-26.89
-31.86
-37.46
-43.14
-47.83
-50.1
-48.74
-43.25
-34.16
-22.85
-11.08
-0.37
8.43
15.21
20.28
23.99
26.55
27.98
28.28
27.63
26.39
24.98
23.73
22.82
22.22
21.86
21.57
21.2
20.57
19.46
17.71
15.23
12.04
8.29
4.19
-0.04
-4.25
-8.31
-12.21
-16.07
-20.16
-24.87
-30.47
-36.86
-43.33
-48.63
-51.31
-50.17
-44.79
-35.73
-24.34
-12.33
-1.21
8.07
15.2
20.37
23.93
26.2
27.41
27.72
27.37
26.63
25.79
25.06
24.49
23.99
23.43
22.71
21.83
20.83
19.74
18.55
17.11
15.21
12.66
9.36
5.38
1.0
-3.4
-7.5
-11.18
-14.6
-18.21
-22.5
-27.83
-34.17
-40.96
-47.17
-51.47
-52.58
-49.7
-42.79
-32.64
-20.67
-8.51
2.45
11.35
17.97
22.57
25.57
27.37
28.25
28.38
27.96
27.21
26.39
25.67
25.15
24.78
24.45
24.01
23.39
22.59
21.61
20.43
18.9
16.82
14.01
10.41
6.15
1.51
-3.18
-7.61
-11.62
-15.17
-18.42
-21.7
-25.43
-30.02
-35.61
-41.8
-47.55
-51.39
-51.84
-48.04
-40.15
-29.31
-17.24
-5.67
4.14
11.66
16.9
20.17
21.8
22.14
21.55
20.38
19.03
17.82
16.94
16.45
16.3
16.45
16.84
17.34
17.79
17.94
17.55
16.44
14.55
11.88
8.58
4.79
0.73
-3.4
-7.44
-11.33
-15.14
-19.16
-23.76
-29.2
-35.41
-41.75
-47.05
-49.96
-49.33
-44.71
-36.52
-25.87
-14.25
-3.04
6.75
14.57
20.32
24.16
26.36
27.27
27.16
26.3
24.89
23.13
21.24
19.47
18.05
17.07
16.49
16.11
15.67
14.95
13.74
11.94
9.45
6.27
2.53
-1.54
-5.56
-9.27
-12.55
-15.59
-18.81
-22.77
-27.86
-34.14
-41.11
-47.69
-52.42
-53.85
-50.99
-43.69
-32.75
-19.69
-6.31
5.81
15.65
22.84
27.53
30.12
31.11
30.97
30.15
29.1
28.25
27.89
28.14
28.8
29.51
29.83
29.51
28.56
27.2
25.72
24.22
22.56
20.41
17.43
13.45
8.61
3.25
-2.17
-7.28
-11.9
-16.05
-19.95
-23.97
-28.5
-33.94
-40.33
-47.26
-53.7
-58.16
-59.13
-55.63
-47.59
-35.95
-22.41
-8.8
3.41
13.37
20.88
26.1
29.32
30.81
30.87
29.86
28.26
26.58
25.25
24.49
24.28
24.37
24.44
24.22
23.58
22.59
21.41
20.14
18.76
17.04
14.66
11.34
7.07
2.16
-2.87
-7.41
-11.11
-13.96
-16.38
-19.08
-22.75
-27.79
-34.17
-41.28
-48.1
-53.36
-55.78
-54.37
-48.73
-39.23
-26.96
-13.56
-0.78
9.98
17.92
22.98
25.63
26.51
26.23
25.23
23.85
22.36
21.01
19.96
19.3
18.98
18.9
19.0
19.26
19.67
20.11
20.28
19.77
18.18
15.31
11.27
6.47
1.46
-3.26
-7.44
-11.11
-14.55
-18.2
-22.54
-27.87
-34.15
-40.81
-46.72
-50.4
-50.45
-46.04
-37.35
-25.6
-12.62
-0.31
9.94
17.58
22.72
25.81
27.33
27.62
26.88
25.36
23.42
21.46
19.8
18.61
17.86
17.4
17.07
16.72
16.24
15.48
14.27
12.42
9.85
6.59
2.83
-1.19
-5.2
-9.07
-12.74
-16.3
-19.98
-24.13
-29.1
-35.02
-41.52
-47.6
-51.76
-52.47
-48.73
-40.48
-28.72
-15.1
-1.45
10.8
20.82
28.37
33.52
36.5
37.56
36.96
35.11
32.5
29.69
27.15
25.16
23.77
22.83
22.08
21.34
20.51
19.64
18.8
17.93
16.81
15.1
12.48
8.84
4.39
-0.4
-4.97
-8.92
-12.18
-15.07
-18.18
-22.2
-27.59
-34.41
-42.1
-49.53
-55.17
-57.5
-55.43
-48.72
-38.04
-24.84
-10.89
2.13
13.07
21.41
27.12
30.52
32.03
32.07
31.07
29.44
27.63
25.98
24.72
23.85
23.21
22.55
21.71
20.67
19.52
18.36
17.13
15.65
13.62
10.82
7.21
2.99
-1.48
-5.83
-9.79
-13.3
-16.5
-19.72
-23.39
-27.98
-33.72
-40.37
-47.06
-52.28
-54.39
-52.09
-45.04
-34.04
-20.79
-7.32
4.65
14.15
20.99
25.51
28.17
29.36
29.26
28.04
25.92
23.32
20.71
18.54
17.08
16.39
16.32
16.59
16.87
16.84
16.22
14.86
12.67
9.7
6.13
2.15
-1.98
-6.03
-9.86
-13.48
-17.12
-21.16
-26.05
-32.0
-38.72
-45.31
-50.37
-52.38
-50.27
-43.76
-33.54
-21.07
-8.1
3.8
13.56
20.77
25.53
28.27
29.51
29.67
29.03
27.81
26.2
24.45
22.82
21.53
20.68
20.23
20.0
19.72
19.07
17.8
15.74
12.89
9.36
5.41
1.29
-2.77
-6.68
-10.46
-14.24
-18.19
-22.55
-27.57
-33.41
-39.95
-46.52
-51.92
-54.64
-53.36
-47.52
-37.58
-24.97
-11.57
0.86
11.23
19.21
25.02
29.09
31.78
33.33
33.87
33.61
32.8
31.72
30.55
29.31
27.96
26.46
24.9
23.44
22.24
21.33
20.55
19.56
17.99
15.55
12.14
7.87
3.04
-1.93
-6.62
-10.74
-14.26
-17.49
-21.09
-25.75
-31.83
-38.93
-45.88
-50.92
-52.32
-49.07
-41.24
-30.01
-17.14
-4.47
6.67
15.54
22.01
26.26
28.59
29.36
28.92
27.73
26.26
24.99
24.21
24.01
24.23
24.52
24.55
24.1
23.2
22.04
20.86
19.72
18.47
16.78
14.27
10.77
6.4
1.59
-3.18
-7.48
-11.21
-14.51
-17.79
-21.5
-25.96
-31.28
-37.17
-42.96
-47.6
-49.92
-48.89
-44.04
-35.65
-24.79
-13.0
-1.86
7.44
14.4
19.11
21.99
23.49
23.9
23.41
22.15
20.4
18.55
17.0
16.01
15.62
15.65
15.85
16.03
16.09
16.02
15.74
15.04
13.68
11.44
8.3
4.51
0.45
-3.48
-7.11
-10.56
-14.22
-18.61
-24.07
-30.51
-37.26
-43.1
-46.59
-46.54
-42.36
-34.41
-23.82
-12.18
-1.06
8.44
15.82
21.11
24.64
26.78
27.77
27.71
26.67
24.87
22.65
20.45
18.62
17.36
16.61
16.13
15.63
14.82
13.58
11.86
9.74
7.32
4.69
1.91
-0.98
-4.02
-7.28
-10.85
-14.89
-19.56
-24.97
-31.05
-37.42
-43.26
-47.44
-48.7
-46.22
-39.83
-30.28
-18.99
-7.62
2.42
10.41
16.28
20.46
23.43
25.46
26.55
26.6
25.63
23.9
21.86
19.98
18.55
17.61
17.07
16.77
16.54
16.26
15.73
14.74
13.04
10.52
7.28
3.63
-0.08
-3.63
-6.97
-10.3
-13.9
-18.11
-23.09
-28.78
-34.83
-40.47
-44.62
-46.15
-44.18
-38.48
-29.62
-18.83
-7.63
2.6
11.05
17.49
22.11
25.27
27.25
28.24
28.34
27.7
26.57
25.25
23.99
22.89
21.91
20.97
19.97
18.88
17.72
16.47
15.01
13.18
10.84
7.97
4.7
1.27
-2.1
-5.29
-8.41
-11.69
-15.45
-20.02
-25.56
-31.94
-38.6
-44.55
-48.47
-49.14
-45.8
-38.54
-28.35
-16.81
-5.57
4.16
11.84
17.58
21.73
24.64
26.52
27.44
27.52
27.07
26.47
26.06
25.91
25.86
25.58
24.81
23.56
22.1
20.79
19.85
19.16
18.3
16.69
13.96
10.03
5.26
0.22
-4.49
-8.47
-11.64
-14.24
-16.74
-19.69
-23.55
-28.48
-34.18
-39.89
-44.44
-46.67
-45.7
-41.33
-34.02
-24.81
-14.93
-5.53
2.59
9.04
13.77
16.89
18.63
19.19
18.83
17.84
16.59
15.49
14.85
14.87
15.47
16.4
17.29
17.86
17.96
17.61
16.9
15.83
14.28
12.11
9.23
5.73
1.93
-1.79
-5.16
-8.15
-11.04
-14.31
-18.43
-23.62
-29.67
-35.91
-41.37
-44.98
-45.82
-43.39
-37.71
-29.35
-19.29
-8.71
1.3
9.95
16.86
21.98
25.45
27.44
28.08
27.56
26.18
24.39
22.68
21.47
20.84
20.61
20.42
19.94
19.07
17.88
16.55
15.19
13.71
11.89
9.49
6.39
2.71
-1.23
-5.05
-8.47
-11.41
-14.06
-16.8
-20.17
-24.6
-30.22
-36.68
-43.06
-48.09
-50.45
-49.24
-44.28
-36.19
-26.17
-15.57
-5.47
3.44
10.91
16.89
21.4
24.52
26.35
27.16
27.24
26.94
26.49
26.03
25.65
25.36
25.17
25.0
24.73
24.23
23.42
22.34
21.17
20.07
19.06
17.99
16.55
14.45
11.52
7.81
3.57
-0.85
-5.1
-8.96
-12.33
-15.34
-18.24
-21.42
-25.3
-30.15
-36.03
-42.53
-48.84
-53.8
-56.17
-55.01
-50.01
-41.58
-30.76
-18.96
-7.54
2.53
10.73
16.97
21.44
24.44
26.28
27.27
27.7
27.84
27.9
28.09
28.53
29.29
30.34
31.53
32.65
33.51
33.94
33.93
33.47
32.61
31.37
29.76
27.8
25.53
23.03
20.37
17.59
14.68
11.63
8.46
5.3
2.31
-0.39
-2.79
-5.04
-7.37
-9.95
-12.83
-15.89
-18.92
-21.73
-24.26
-26.56
-28.83
-31.34
-34.38
-38.18
-42.8
-48.01
-53.16
-57.22
-59.02
-57.59
-52.54
-44.24
-33.75
-22.45
-11.7
-2.48
4.7
9.78
12.98
14.6
15.01
14.57
13.7
12.8
12.21
12.15
12.63
13.49
14.46
15.34
16.0
16.49
16.96
17.54
18.26
18.96
19.31
19.0
17.84
15.9
13.52
11.11
8.98
7.17
5.41
3.31
0.54
-2.96
-7.0
-11.21
-15.27
-18.99
-22.42
-25.72
-29.08
-32.74
-36.92
-41.7
-46.91
-51.98
-55.94
-57.64
-56.13
-51.06
-42.86
-32.57
-21.48
-10.75
-1.1
7.13
13.86
19.04
22.65
24.75
25.58
25.56
25.21
24.95
24.98
25.27
25.68
26.09
26.51
27.02
27.67
28.45
29.18
29.6
29.49
28.68
27.16
25.03
22.41
19.44
16.24
12.87
9.36
5.7
1.87
-2.18
-6.4
-10.65
-14.68
-18.24
-21.26
-23.86
-26.47
-29.68
-33.96
-39.42
-45.52
-51.19
-55.07
-55.97
-53.29
-47.22
-38.6
-28.62
-18.43
-8.88
-0.48
6.54
12.09
16.13
18.66
19.78
19.75
18.95
17.86
16.93
16.48
16.63
17.22
17.94
18.42
18.4
17.86
17.0
16.09
15.28
14.48
13.42
11.77
9.31
6.08
2.33
-1.55
-5.17
-8.29
-10.88
-13.1
-15.28
-17.77
-20.91
-24.85
-29.54
-34.6
-39.37
-42.96
-44.44
-43.07
-38.56
-31.18
-21.76
-11.49
-1.6
6.97
13.73
18.6
21.75
23.41
23.75
22.92
21.19
18.96
16.76
15.03
14.01
13.67
13.74
13.93
13.98
13.77
13.26
12.42
11.16
9.34
6.81
3.55
-0.35
-4.61
-8.88
-12.84
-16.32
-19.42
-22.55
-26.25
-30.97
-36.69
-42.75
-47.9
-50.64
-49.74
-44.72
-36.04
-24.99
-13.2
-2.22
6.94
13.9
18.81
22.05
24.04
25.03
25.18
24.62
23.57
22.34
21.27
20.59
20.37
20.46
20.59
20.49
20.02
19.14
17.93
16.41
14.56
12.3
9.55
6.28
2.56
-1.54
-5.97
-10.84
-16.33
-22.48
-29.01
-35.15
-39.73
-41.53
-39.65
-33.96
-25.14
-14.51
-3.59
6.29
14.32
20.28
24.37
26.96
28.44
29.02
28.85
28.02
26.73
25.33
24.19
23.61
23.63
24.04
24.44
24.43
23.75
22.33
20.29
17.76
14.84
11.6
8.09
4.39
0.57
-3.41
-7.68
-12.57
-18.39
-25.27
-32.88
-40.31
-46.14
-48.87
-47.39
-41.42
-31.6
-19.39
-6.5
5.53
15.69
23.62
29.42
33.44
36.05
37.5
37.94
37.44
36.17
34.37
32.42
30.68
29.4
28.54
27.89
27.07
25.77
23.86
21.37
18.41
15.1
11.53
7.78
3.99
0.36
-2.98
-6.08
-9.23
-12.92
-17.63
-23.5
-30.1
-36.41
-41.05
-42.62
-40.28
-34.01
-24.65
-13.71
-2.82
6.74
14.34
20.01
24.18
27.24
29.42
30.67
30.93
30.28
29.02
27.56
26.26
25.26
24.48
23.74
22.9
21.91
20.77
19.44
17.8
15.66
12.93
9.65
6.02
2.3
-1.33
-4.82
-8.33
-12.1
-16.42
-21.5
-27.32
-33.47
-39.15
-43.24
-44.57
-42.35
-36.48
-27.75
-17.53
-7.39
1.44
8.35
13.35
16.8
19.03
20.16
20.15
18.98
16.88
14.34
12.01
10.42
9.79
10.02
10.78
11.62
12.15
12.12
11.41
10.0
8.04
5.68
3.11
0.42
-2.44
-5.6
-9.19
-13.35
-18.09
-23.33
-28.8
-34.0
-38.14
-40.26
-39.51
-35.48
-28.46
-19.39
-9.62
-0.45
7.26
13.27
17.78
21.18
23.72
25.41
26.1
25.66
24.26
22.31
20.36
18.89
18.04
17.67
17.32
16.59
15.22
13.2
10.75
8.09
5.37
2.62
-0.18
-3.08
-6.15
-9.54
-13.5
-18.29
-24.01
-30.37
-36.54
-41.27
-43.24
-41.58
-36.21
-27.95
-18.16
-8.32
0.49
7.76
13.47
17.86
21.14
23.45
24.83
25.37
25.2
24.56
23.64
22.62
21.62
20.74
20.07
19.63
19.36
19.04
18.42
17.23
15.27
12.5
9.01
5.01
0.76
-3.48
-7.53
-11.41
-15.34
-19.72
-24.87
-30.87
-37.23
-42.99
-46.87
-47.74
-44.99
-38.75
-29.9
-19.7
-9.46
-0.16
7.66
13.86
18.54
21.87
23.99
25.03
25.18
24.67
23.77
22.75
21.76
20.84
19.93
18.98
18.01
17.1
16.35
15.73
15.06
14.01
12.23
9.51
5.91
1.74
-2.5
-6.38
-9.68
-12.51
-15.27
-18.52
-22.78
-28.26
-34.7
-41.27
-46.74
-49.76
-49.28
-44.87
-36.91
-26.52
-15.18
-4.36
4.93
12.26
17.78
21.9
25.05
27.44
29.07
29.86
29.87
29.34
28.62
28.05
27.67
27.24
26.41
24.9
22.78
20.42
18.36
16.94
16.11
15.41
14.17
11.86
8.33
3.86
-0.98
-5.65
-9.81
-13.42
-16.67
-19.84
-23.25
-27.2
-31.89
-37.29
-42.9
-47.76
-50.61
-50.29
-46.18
-38.52
-28.35
-17.16
-6.46
2.69
9.81
14.93
18.35
20.43
21.45
21.62
21.18
20.38
19.5
18.81
18.43
18.31
18.26
18.05
17.51
16.62
15.52
14.39
13.37
12.45
11.39
9.84
7.48
4.14
0.03
-4.41
-8.61
-12.12
-14.83
-17.04
-19.3
-22.26
-26.36
-31.68
-37.82
-43.91
-48.81
-51.29
-50.47
-46.02
-38.33
-28.39
-17.5
-6.91
2.51
10.33
16.47
21.02
24.07
25.67
25.92
25.09
23.65
22.12
20.97
20.37
20.2
20.17
20.02
19.68
19.28
18.99
18.87
18.74
18.23
16.95
14.65
11.31
7.16
2.54
-2.17
-6.67
-10.79
-14.53
-18.03
-21.62
-25.69
-30.62
-36.55
-43.17
-49.67
-54.72
-56.92
-55.22
-49.33
-39.86
-28.17
-15.88
-4.38
5.46
13.43
19.73
24.67
28.45
31.03
32.31
32.27
31.14
29.41
27.67
26.39
25.71
25.42
25.11
24.41
23.21
21.75
20.36
19.27
18.37
17.27
15.39
12.32
8.01
2.8
-2.75
-8.02
-12.64
-16.52
-19.86
-23.06
-26.55
-30.77
-36.07
-42.48
-49.66
-56.71
-62.26
-64.78
-63.07
-56.66
-46.07
-32.65
-18.18
-4.3
7.85
17.78
25.42
30.95
34.56
36.42
36.76
35.97
34.62
33.3
32.47
32.31
32.68
33.24
33.56
33.36
32.55
31.22
29.6
27.86
26.02
23.9
21.17
17.47
12.61
6.72
0.25
-6.18
-11.95
-16.77
-20.72
-24.22
-27.83
-32.1
-37.44
-43.99
-51.51
-59.24
-65.92
-69.95
-69.89
-64.91
-55.15
-41.75
-26.5
-11.24
2.59
14.15
23.15
29.6
33.65
35.48
35.42
33.96
31.79
29.63
28.05
27.37
27.51
28.14
28.79
29.05
28.77
28.01
27.0
25.94
24.85
23.54
21.59
18.62
14.4
9.08
3.15
-2.73
-7.95
-12.22
-15.65
-18.75
-22.16
-26.47
-31.99
-38.67
-45.96
-52.83
-57.9
-59.72
-57.2
-49.99
-38.75
-24.99
-10.61
2.64
13.66
22.06
28.0
31.88
34.04
34.63
33.79
31.79
29.09
26.29
23.94
22.34
21.41
20.84
20.25
19.39
18.25
16.88
15.32
13.44
11.01
7.88
4.11
-0.02
-4.11
-7.86
-11.19
-14.25
-17.35
-20.86
-25.19
-30.61
-37.09
-44.01
-50.13
-53.75
-53.29
-47.86
-37.77
-24.41
-9.81
4.02
15.71
24.64
30.78
34.36
35.62
34.76
32.13
28.24
23.86
19.75
16.51
14.48
13.59
13.56
13.92
14.23
14.08
13.23
11.59
9.19
6.19
2.79
-0.84
-4.59
-8.48
-12.6
-17.04
-21.97
-27.54
-33.82
-40.57
-47.09
-52.16
-54.31
-52.23
-45.37
-34.22
-20.26
-5.48
8.18
19.44
27.77
33.28
36.33
37.35
36.7
34.72
31.86
28.58
25.34
22.48
20.17
18.42
17.09
15.99
14.89
13.57
11.86
9.69
7.08
4.14
0.98
-2.41
-6.08
-10.13
-14.63
-19.64
-25.2
-31.42
-38.29
-45.51
-52.29
-57.28
-58.92
-55.96
-48.01
-35.83
-21.15
-6.15
7.24
17.79
25.18
29.72
32.05
32.79
32.39
31.15
29.25
26.92
24.39
21.92
19.73
17.96
16.64
15.69
14.94
14.21
13.37
12.34
11.14
9.77
8.21
6.37
4.11
1.29
-2.22
-6.47
-11.57
-17.64
-24.68
-32.43
-40.12
-46.47
-49.89
-49.06
-43.36
-33.25
-20.16
-6.06
7.16
18.19
26.45
32.07
35.5
37.21
37.52
36.63
34.71
32.05
29.06
26.22
23.92
22.37
21.51
21.1
20.79
20.24
19.25
17.71
15.59
12.85
9.49
5.53
1.11
-3.57
-8.25
-12.76
-17.13
-21.66
-26.81
-32.98
-40.15
-47.58
-53.82
-57.07
-55.75
-49.17
-37.84
-23.4
-8.07
6.02
17.47
25.75
31.08
34.0
35.05
34.56
32.78
30.0
26.65
23.34
20.63
18.86
18.04
17.88
17.93
17.8
17.27
16.3
14.92
13.16
10.98
8.3
5.1
1.47
-2.41
-6.31
-10.1
-13.8
-17.67
-22.07
-27.36
-33.55
-40.14
-45.98
-49.47
-49.07
-43.9
-34.19
-21.25
-7.13
6.11
17.01
24.97
30.14
33.03
34.13
33.69
31.83
28.73
24.82
20.72
17.06
14.32
12.72
12.09
12.09
12.27
12.22
11.64
10.37
8.38
5.78
2.73
-0.53
-3.83
-7.09
-10.36
-13.85
-17.86
-22.73
-28.61
-35.36
-42.29
-48.24
-51.72
-51.41
-46.58
-37.53
-25.51
-12.36
0.08
10.53
18.48
24.02
27.47
29.06
28.81
26.75
23.2
18.88
14.75
11.77
10.42
10.55
11.49
12.36
12.44
11.44
9.52
7.08
4.57
2.26
0.15
-1.95
-4.36
-7.38
-11.29
-16.21
-22.08
-28.49
-34.58
-39.19
-41.02
-39.09
-33.08
-23.5
-11.56
1.15
13.11
23.2
30.78
35.68
38.0
37.95
35.86
32.12
27.28
22.05
17.18
13.32
10.77
9.37
8.6
7.77
6.38
4.34
1.97
-0.24
-1.92
-3.04
-4.0
-5.38
-7.68
-11.19
-15.93
-21.67
-27.9
-33.82
-38.31
-40.12
-38.26
-32.37
-22.98
-11.41
0.64
11.62
20.59
27.23
31.68
34.19
34.87
33.75
30.96
26.92
22.4
18.29
15.33
13.79
13.42
13.6
13.6
12.94
11.48
9.37
6.92
4.43
2.02
-0.32
-2.74
-5.45
-8.76
-12.89
-17.95
-23.73
-29.62
-34.56
-37.32
-36.8
-32.4
-24.26
-13.28
-0.88
11.39
22.2
30.72
36.6
39.87
40.76
39.55
36.6
32.3
27.25
22.16
17.8
14.75
13.27
13.15
13.81
14.53
14.69
14.0
12.48
10.38
8.02
5.59
3.12
0.48
-2.46
-5.84
-9.78
-14.39
-19.72
-25.63
-31.6
-36.63
-39.45
-38.81
-33.99
-25.15
-13.38
-0.44
11.84
21.99
29.26
33.63
35.57
35.7
34.59
32.64
30.17
27.44
24.78
22.5
20.89
20.08
20.0
20.42
21.02
21.43
21.38
20.63
19.06
16.63
13.39
9.51
5.22
0.83
-3.4
-7.33
-11.02
-14.75
-18.93
-23.92
-29.68
-35.67
-40.76
-43.52
-42.69
-37.67
-28.76
-17.19
-4.69
7.01
16.67
23.74
28.25
30.54
31.04
30.1
28.04
25.27
22.26
19.52
17.41
16.06
15.35
15.02
14.75
14.29
13.5
12.35
10.83
9.0
6.91
4.63
2.24
-0.21
-2.68
-5.16
-7.74
-10.55
-13.77
-17.62
-22.23
-27.48
-32.94
-37.81
-41.03
-41.6
-38.86
-32.78
-24.06
-13.93
-3.86
4.94
11.72
16.34
19.04
20.26
20.41
19.75
18.49
16.84
15.02
13.29
11.81
10.65
9.78
9.16
8.73
8.46
8.31
8.15
7.82
7.11
5.92
4.2
2.07
-0.29
-2.72
-5.15
-7.59
-10.17
-13.09
-16.58
-20.8
-25.73
-31.12
-36.31
-40.38
-42.27
-41.16
-36.75
-29.43
-20.22
-10.42
-1.24
6.49
12.39
16.43
18.72
19.48
18.93
17.42
15.39
13.29
11.49
10.12
9.14
8.37
7.65
6.88
6.03
5.17
4.39
3.76
3.28
2.83
2.23
1.24
-0.28
-2.33
-4.74
-7.26
-9.67
-11.87
-13.91
-16.0
-18.39
-21.33
-25.01
-29.37
-34.11
-38.55
-41.71
-42.65
-40.68
-35.71
-28.28
-19.46
-10.49
-2.44
4.0
8.65
11.64
13.24
13.72
13.19
11.77
9.64
7.18
4.87
3.18
2.33
2.22
2.52
2.88
3.09
3.2
3.35
3.65
3.96
3.97
3.31
1.77
-0.57
-3.4
-6.27
-8.88
-11.14
-13.14
-15.12
-17.31
-19.92
-23.08
-26.87
-31.19
-35.76
-40.01
-43.12
-44.2
-42.62
-38.19
-31.35
-23.04
-14.37
-6.34
0.4
5.59
9.19
11.32
12.05
11.54
10.02
7.84
5.44
3.24
1.51
0.38
-0.18
-0.27
0.01
0.54
1.2
1.84
2.22
2.12
1.32
-0.3
-2.7
-5.69
-8.95
-12.13
-15.04
-17.68
-20.25
-23.15
-26.72
-31.17
-36.35
-41.7
-46.35
-49.2
-49.26
-45.93
-39.22
-29.87
-19.11
-8.34
1.19
8.79
14.23
17.71
19.58
20.15
19.69
18.43
16.64
14.63
12.74
11.22
10.19
9.59
9.24
8.98
8.65
8.08
7.12
5.61
3.43
0.58
-2.79
-6.43
-10.05
-13.46
-16.68
-19.93
-23.56
-27.99
-33.4
-39.61
-45.92
-51.2
-54.05
-53.24
-48.1
-38.79
-26.33
-12.36
1.28
13.13
22.31
28.65
32.44
34.16
34.27
33.09
30.95
28.2
25.32
22.75
20.83
19.64
19.05
18.84
18.78
18.67
18.3
17.44
15.8
13.16
9.53
5.12
0.34
-4.39
-8.78
-12.75
-16.41
-20.05
-24.1
-29.0
-35.03
-42.02
-49.18
-55.09
-58.05
-56.59
-50.05
-38.86
-24.43
-8.78
6.17
18.93
28.78
35.56
39.56
41.21
40.97
39.34
36.85
34.07
31.5
29.53
28.25
27.54
27.13
26.74
26.23
25.57
24.84
24.07
23.11
21.68
19.42
16.05
11.52
6.13
0.43
-4.92
-9.41
-12.91
-15.76
-18.64
-22.38
-27.62
-34.48
-42.46
-50.33
-56.4
-58.85
-56.32
-48.32
-35.48
-19.45
-2.48
13.29
26.31
35.99
42.48
46.4
48.34
48.68
47.6
45.3
42.16
38.88
36.21
34.72
34.57
35.47
36.89
38.2
38.98
38.99
38.16
36.57
34.34
31.69
28.79
25.7
22.34
18.48
13.9
8.59
2.86
-2.79
-7.84
-12.09
-15.66
-18.96
-22.53
-26.8
-32.05
-38.34
-45.47
-52.79
-59.14
-62.88
-62.33
-56.36
-44.87
-29.08
-11.12
6.53
21.87
33.72
41.86
46.68
48.83
48.95
47.53
45.01
41.84
38.53
35.54
33.29
32.01
31.7
32.16
33.07
34.02
34.75
35.12
35.15
34.93
34.46
33.64
32.28
30.17
27.29
23.81
20.08
16.48
13.28
10.58
8.23
5.98
3.56
0.78
-2.45
-6.14
-10.16
-14.32
-18.38
-22.1
-25.36
-28.15
-30.67
-33.24
-36.25
-40.05
-44.87
-50.68
-57.04
-63.0
-67.11
-67.78
-63.74
-54.52
-40.81
-24.29
-7.25
8.15
20.38
28.85
33.7
35.53
35.04
32.87
29.57
25.76
22.07
19.16
17.54
17.43
18.69
20.82
23.25
25.36
26.79
27.36
27.08
26.11
24.61
22.7
20.46
17.85
14.77
11.14
6.94
2.29
-2.55
-7.26
-11.57
-15.35
-18.64
-21.58
-24.4
-27.35
-30.7
-34.8
-39.82
-45.58
-51.31
-55.65
-56.96
-53.9
-46.03
-34.07
-19.72
-5.13
7.83
18.05
25.25
29.74
32.07
32.63
31.64
29.3
25.95
22.16
18.66
16.14
14.99
15.23
16.46
18.08
19.46
20.14
19.94
18.94
17.36
15.45
13.31
10.89
8.06
4.68
0.78
-3.49
-7.84
-12.01
-15.86
-19.38
-22.7
-25.94
-29.24
-32.8
-36.9
-41.8
-47.57
-53.79
-59.41
-62.93
-62.85
-58.18
-48.91
-36.05
-21.32
-6.58
6.59
17.27
25.06
30.02
32.43
32.67
31.24
28.65
25.51
22.38
19.79
18.06
17.3
17.38
17.94
18.54
18.84
18.7
18.21
17.56
16.83
15.89
14.39
11.92
8.24
3.43
-2.09
-7.74
-12.96
-17.39
-20.96
-23.91
-26.67
-29.81
-33.92
-39.39
-46.17
-53.57
-60.18
-64.23
-64.02
-58.56
-48.0
-33.61
-17.43
-1.64
12.04
22.66
30.09
34.73
37.21
38.05
37.64
36.19
33.93
31.21
28.53
26.39
25.18
24.95
25.44
26.13
26.52
26.28
25.42
24.13
22.68
21.22
19.66
17.75
15.18
11.78
7.52
2.62
-2.58
-7.66
-12.26
-16.2
-19.51
-22.47
-25.53
-29.2
-33.88
-39.78
-46.74
-54.13
-60.8
-65.25
-65.9
-61.58
-52.01
-38.03
-21.49
-4.75
10.07
21.56
29.37
33.95
36.16
36.78
36.31
34.97
32.93
30.52
28.25
26.68
26.1
26.41
27.21
27.95
28.35
28.45
28.52
28.83
29.34
29.65
29.18
27.44
24.3
20.09
15.39
10.87
7.0
3.91
1.39
-0.98
-3.67
-6.97
-10.89
-15.2
-19.49
-23.36
-26.6
-29.27
-31.71
-34.48
-38.17
-43.26
-49.79
-57.27
-64.49
-69.7
-71.03
-67.06
-57.4
-42.87
-25.43
-7.56
8.51
21.3
30.39
36.15
39.38
40.82
40.99
40.22
38.81
37.14
35.68
34.83
34.75
35.3
36.11
36.81
37.14
37.04
36.52
35.58
34.15
32.13
29.51
26.37
22.92
19.31
15.57
11.59
7.24
2.47
-2.56
-7.58
-12.29
-16.45
-19.98
-22.98
-25.7
-28.54
-31.99
-36.52
-42.29
-48.9
-55.28
-59.84
-60.9
-57.28
-48.75
-36.13
-21.08
-5.56
8.67
20.47
29.28
35.07
38.08
38.64
37.18
34.16
30.18
25.92
22.11
19.37
18.02
18.03
18.96
20.12
20.86
20.81
19.96
18.63
17.19
15.78
14.21
12.05
8.93
4.73
-0.29
-5.6
-10.6
-14.92
-18.43
-21.25
-23.67
-25.99
-28.62
-31.93
-36.25
-41.64
-47.63
-53.16
-56.69
-56.69
-52.15
-43.01
-30.22
-15.49
-0.78
12.21
22.43
29.46
33.46
34.89
34.33
32.39
29.61
26.5
23.47
20.89
18.95
17.79
17.34
17.41
17.67
17.78
17.45
16.49
14.82
12.45
9.42
5.79
1.62
-2.95
-7.71
-12.42
-16.87
-21.1
-25.41
-30.33
-36.29
-43.26
-50.44
-56.26
-58.83
-56.6
-48.94
-36.53
-21.15
-5.15
9.3
20.75
28.68
33.35
35.43
35.62
34.45
32.23
29.2
25.68
22.12
19.04
16.89
15.87
15.85
16.46
17.15
17.42
16.96
15.65
13.56
10.79
7.48
3.73
-0.4
-4.84
-9.58
-14.7
-20.38
-26.91
-34.43
-42.67
-50.82
-57.38
-60.62
-59.01
-51.93
-39.89
-24.51
-8.05
7.32
20.0
29.32
35.36
38.69
39.99
39.78
38.42
36.14
33.22
29.97
26.8
