0
0.56
-6.03
-13.16
-21.08
-29.86
-39.02
-47.38
-53.29
-55.13
-51.94
-43.78
-31.85
-18.03
-4.37
7.51
16.74
23.16
27.04
28.84
28.93
27.59
25.1
21.87
18.43
15.39
13.32
12.54
13.01
14.34
15.83
16.79
16.63
15.13
12.43
8.88
4.86
0.64
-3.72
-8.31
-13.25
-18.71
-24.83
-31.74
-39.48
-47.68
-55.45
-61.33
-63.65
-61.08
-53.2
-40.76
-25.45
-9.39
5.52
18.05
27.69
34.48
38.69
40.65
40.65
39.08
36.41
33.21
30.04
27.38
25.49
24.43
24.05
23.96
23.68
22.75
20.85
17.89
14.07
9.78
5.37
1.12
-2.94
-6.92
-11.09
-15.72
-21.12
-27.53
-35.03
-43.35
-51.59
-58.33
-61.83
-60.6
-53.96
-42.4
-27.42
-11.15
4.29
17.33
27.19
33.77
37.42
38.7
38.21
36.47
33.98
31.13
28.32
25.84
23.94
22.73
22.2
22.12
22.14
21.86
20.98
19.36
17.07
14.26
11.13
7.72
4.04
0.03
-4.33
-8.98
-13.86
-19.04
-24.77
-31.35
-38.79
-46.48
-53.1
-56.86
-56.16
-50.18
-39.37
-25.32
-10.19
3.95
15.79
24.82
31.14
35.04
36.72
36.33
34.1
30.53
26.39
22.56
19.74
18.26
18.06
18.81
19.97
21.02
21.43
20.82
19.0
16.03
12.26
8.12
3.99
0.03
-3.79
-7.62
-11.64
-16.05
-21.05
-26.83
-33.37
-40.19
-46.23
-49.92
-49.73
-44.74
-35.09
-22.03
-7.56
6.29
18.03
26.93
32.92
36.21
37.04
35.6
32.12
27.13
21.48
16.22
12.27
10.12
9.67
10.3
11.1
11.3
10.46
8.53
5.78
2.57
-0.79
-4.18
-7.59
-11.07
-14.66
-18.46
-22.72
-27.8
-34.0
-41.29
-48.9
-55.4
-58.88
-57.67
-51.0
-39.36
-24.4
-8.41
6.43
18.64
27.55
33.24
36.11
36.62
35.15
32.15
28.12
23.73
19.64
16.48
14.59
14.01
14.43
15.24
15.75
15.39
13.89
11.35
8.12
4.63
1.12
-2.39
-6.08
-10.19
-14.91
-20.4
-26.8
-34.18
-42.35
-50.56
-57.45
-61.29
-60.52
-54.4
-43.39
-29.05
-13.53
1.14
13.55
23.16
30.06
34.61
37.18
37.99
37.27
35.3
32.55
29.6
27.05
25.3
24.47
24.45
24.92
25.47
25.65
25.11
23.6
21.06
17.63
13.61
9.29
4.84
0.27
-4.62
-10.04
-16.16
-23.1
-30.88
-39.34
-47.92
-55.56
-60.73
-61.8
-57.64
-48.14
-34.38
-18.33
-2.21
12.22
23.89
32.57
38.46
41.9
43.21
42.68
40.69
37.76
34.51
31.51
29.15
27.56
26.6
26.05
25.58
24.99
24.12
22.82
20.94
18.33
14.88
10.62
5.73
0.51
-4.74
-9.77
-14.52
-19.09
-23.74
-28.87
-34.9
-42.1
-50.29
-58.62
-65.58
-69.31
-68.18
-61.44
-49.58
-34.2
-17.54
-1.74
11.71
22.16
29.64
34.54
37.23
38.01
37.16
35.09
32.41
29.8
27.81
26.65
26.18
26.04
25.83
25.35
24.65
23.86
22.98
21.79
19.86
16.77
12.4
6.97
1.07
-4.65
-9.71
-13.95
-17.62
-21.21
-25.36
-30.6
-37.24
-45.06
-53.14
-59.93
-63.53
-62.35
-55.65
-43.95
-28.9
-12.78
2.24
14.64
23.79
29.81
33.17
34.34
33.72
31.64
28.5
24.88
21.43
18.68
16.95
16.25
16.33
16.85
17.45
17.82
17.7
16.86
15.13
12.49
9.04
5.03
0.76
-3.56
-7.83
-12.08
-16.44
-21.1
-26.36
-32.54
-39.84
-47.96
-55.9
-61.94
-64.13
-60.97
-52.13
-38.63
-22.56
-6.35
8.03
19.47
27.7
32.99
35.78
36.43
35.35
33.03
30.14
27.33
25.12
23.71
23.07
22.94
23.04
23.09
22.84
22.04
20.45
17.89
14.32
9.86
4.82
-0.44
-5.59
-10.42
-14.85
-18.97
-23.04
-27.48
-32.81
-39.37
-47.04
-54.95
-61.52
-64.83
-63.27
-56.17
-44.11
-28.72
-12.15
3.58
17.06
27.61
35.14
39.82
41.93
41.83
39.99
37.07
33.85
31.06
29.16
28.2
27.9
27.77
27.45
26.8
25.95
25.06
24.12
22.86
20.81
17.55
12.96
7.34
1.28
-4.61
-9.95
-14.71
-19.21
-23.96
-29.48
-36.14
-43.94
-52.37
-60.24
-65.89
-67.54
-63.92
-54.71
-40.84
-24.16
-6.92
8.92
22.08
32.05
38.89
42.89
44.33
43.55
41.0
37.37
33.52
30.26
28.11
27.16
27.08
27.28
27.24
26.68
25.66
24.42
23.23
22.11
20.8
18.84
15.79
11.45
6.01
0.01
-5.83
-10.9
-14.96
-18.21
-21.22
-24.79
-29.64
-36.19
-44.38
-53.43
-61.95
-68.04
-69.86
-66.13
-56.69
-42.57
-25.72
-8.42
7.34
20.32
30.01
36.48
40.05
41.1
40.02
37.37
33.87
30.36
27.64
26.21
26.09
26.85
27.8
28.32
28.08
27.19
25.99
24.82
23.72
22.32
20.08
16.49
11.46
5.39
-1.0
-6.93
-11.91
-15.86
-19.11
-22.25
-25.93
-30.77
-37.12
-44.95
-53.56
-61.65
-67.4
-68.99
-65.21
-55.94
-42.23
-25.98
-9.34
5.93
18.68
28.42
34.96
38.3
38.56
36.16
31.9
26.95
22.55
19.58
18.35
18.56
19.53
20.59
21.3
21.59
21.51
21.14
20.33
18.81
16.21
12.34
7.3
1.45
-4.64
-10.41
-15.5
-19.88
-23.82
-27.85
-32.59
-38.58
-46.03
-54.55
-63.04
-69.76
-72.77
-70.51
-62.45
-49.36
-33.06
-15.92
-0.01
13.29
23.41
30.34
34.34
35.64
34.61
31.81
28.1
24.47
21.73
20.28
20.03
20.5
21.16
21.67
21.94
22.06
22.11
21.98
21.34
19.76
16.87
12.58
7.11
0.98
-5.16
-10.71
-15.34
-19.14
-22.66
-26.79
-32.44
-40.15
-49.61
-59.55
-67.87
-72.26
-70.98
-63.42
-50.43
-33.92
-16.27
0.42
14.75
26.06
34.27
39.47
41.86
41.7
39.46
35.93
32.1
28.94
27.13
26.85
27.82
29.41
30.98
32.12
32.7
32.84
32.69
32.23
31.18
29.05
25.4
20.01
13.1
5.27
-2.71
-10.08
-16.43
-21.79
-26.64
-31.7
-37.75
-45.35
-54.49
-64.43
-73.59
-79.87
-81.17
-76.13
-64.67
-48.05
-28.54
-8.67
9.48
24.62
36.17
44.12
48.57
49.77
48.16
44.53
39.98
35.68
32.55
30.97
30.71
31.17
31.64
31.6
30.9
29.73
28.36
27.03
25.68
23.98
21.46
17.72
12.66
6.58
0.11
-6.05
-11.41
-15.84
-19.69
-23.62
-28.38
-34.53
-42.23
-50.97
-59.52
-66.09
-68.67
-65.73
-56.79
-42.68
-25.38
-7.42
8.89
22.02
31.39
37.09
39.6
39.4
36.95
32.87
27.9
23.01
19.07
16.68
16.0
16.81
18.6
20.79
22.79
24.11
24.38
23.35
21.05
17.69
13.6
9.12
4.44
-0.4
-5.41
-10.64
-16.15
-22.1
-28.78
-36.43
-44.9
-53.3
-59.97
-62.86
-60.3
-51.72
-37.99
-21.17
-3.82
11.87
24.52
33.65
39.31
41.73
41.1
37.68
31.99
24.95
17.89
12.06
8.39
7.16
7.95
9.82
11.68
12.61
12.14
10.32
7.54
4.33
1.02
-2.29
-5.84
-9.98
-15.07
-21.42
-29.19
-38.32
-48.25
-57.78
-65.17
-68.41
-65.95
-57.27
-43.24
-25.85
-7.57
9.42
23.69
34.65
42.2
46.42
47.33
45.06
40.05
33.24
25.94
19.52
15.0
12.71
12.27
12.82
13.36
13.12
11.8
9.57
6.86
4.13
1.57
-0.95
-3.89
-7.78
-13.11
-20.18
-28.92
-38.88
-49.12
-58.15
-64.15
-65.33
-60.54
-49.78
-34.36
-16.53
1.13
16.61
28.81
37.65
43.52
46.82
47.77
46.41
42.95
37.98
32.49
27.58
24.12
22.43
22.23
22.76
23.08
22.45
20.52
17.47
13.75
9.9
6.18
2.47
-1.66
-6.69
-12.97
-20.59
-29.42
-39.13
-49.16
-58.51
-65.72
-69.02
-66.86
-58.54
-44.57
-26.75
-7.6
10.39
25.37
36.48
43.74
47.66
48.94
48.14
45.82
42.45
38.61
34.88
31.82
29.81
28.98
29.15
29.91
30.72
31.03
30.4
28.56
25.41
21.02
15.59
9.42
2.86
-3.76
-10.22
-16.47
-22.71
-29.37
-36.93
-45.64
-55.14
-64.19
-70.9
-73.15
-69.36
-59.16
-43.56
-24.68
-5.09
12.97
28.06
39.62
47.75
52.81
55.2
55.3
53.54
50.52
47.01
43.77
41.37
39.96
39.29
38.79
37.93
36.43
34.42
32.25
30.2
28.24
25.9
22.51
17.54
10.94
3.21
-4.76
-12.05
-18.09
-22.87
-26.84
-30.79
-35.55
-41.82
-49.82
-59.09
-68.4
-75.8
-79.11
-76.58
-67.61
-52.97
-34.7
-15.36
2.65
17.76
29.37
37.6
42.9
45.72
46.4
45.24
42.69
39.43
36.29
34.0
33.02
33.31
34.38
35.46
35.86
35.26
33.77
31.83
29.86
27.93
25.65
22.43
17.78
11.69
4.72
-2.27
-8.45
-13.4
-17.25
-20.53
-23.98
-28.29
-33.93
-41.05
-49.35
-57.92
-65.23
-69.46
-68.95
-62.83
-51.41
-36.18
-19.26
-2.81
11.54
22.92
31.11
36.2
38.37
37.89
35.22
31.18
26.84
23.32
21.37
21.13
22.18
23.8
25.27
26.18
26.45
26.23
25.67
24.72
23.15
20.63
16.94
12.09
6.38
0.33
-5.54
-10.87
-15.65
-20.22
-25.14
-30.97
-38.04
-46.22
-54.8
-62.51
-67.68
-68.69
-64.38
-54.55
-40.11
-22.93
-5.33
10.56
23.25
32.17
37.43
39.57
39.23
37.01
33.53
29.52
25.74
22.85
21.24
20.87
21.32
21.96
22.25
21.95
21.08
19.88
18.52
16.95
14.91
12.02
8.04
3.02
-2.65
-8.37
-13.58
-18.04
-21.88
-25.66
-30.1
-35.9
-43.39
-52.31
-61.64
-69.65
-74.33
-73.92
-67.52
-55.53
-39.55
-21.91
-4.91
9.79
21.47
30.17
36.27
40.11
41.85
41.61
39.71
36.74
33.57
31.04
29.67
29.52
30.18
30.99
31.28
30.64
29.04
26.75
24.16
21.63
19.21
16.65
13.5
9.42
4.32
-1.49
-7.42
-12.93
-17.67
-21.72
-25.43
-29.29
-33.74
-39.08
-45.42
-52.57
-59.98
-66.57
-70.82
-71.11
-66.3
-56.16
-41.66
-24.64
-7.27
8.54
21.59
31.44
38.11
41.89
43.15
42.33
40.06
37.1
34.26
32.14
31.02
30.86
31.34
32.11
32.87
33.45
33.73
33.67
33.17
32.15
30.53
28.28
25.48
22.21
18.6
14.75
10.67
6.33
1.63
-3.51
-9.08
-14.9
-20.65
-25.92
-30.43
-34.15
-37.34
-40.59
-44.61
-50.0
-56.91
-64.8
-72.34
-77.67
-78.88
-74.63
-64.64
-49.81
-32.07
-13.7
3.15
17.0
27.21
33.83
37.36
38.47
37.78
35.84
33.14
30.2
27.52
25.54
24.48
24.27
24.6
25.06
25.37
25.46
25.4
25.26
24.95
24.19
22.69
20.28
17.06
13.29
9.27
5.19
1.06
-3.16
-7.51
-11.91
-16.16
-20.07
-23.56
-26.65
-29.52
-32.47
-35.92
-40.31
-45.99
-52.88
-60.2
-66.46
-69.77
-68.42
-61.63
-49.86
-34.72
-18.38
-2.91
10.31
20.62
27.93
32.37
34.09
33.28
30.36
26.11
21.55
17.72
15.31
14.53
15.02
16.14
17.22
17.82
17.85
17.47
16.97
16.47
15.85
14.73
12.63
9.19
4.36
-1.53
-7.79
-13.68
-18.65
-22.58
-25.82
-29.01
-32.92
-38.21
-45.19
-53.72
-63.02
-71.7
-77.91
-79.75
-75.95
-66.27
-51.76
-34.39
-16.49
-0.05
13.7
24.33
31.93
36.71
38.85
38.52
36.1
32.36
28.37
25.19
23.57
23.6
24.76
26.22
27.18
27.26
26.57
25.55
24.58
23.75
22.8
21.14
18.26
13.82
7.93
1.11
-5.93
-12.5
-18.15
-22.86
-27.04
-31.38
-36.66
-43.48
-51.96
-61.53
-70.88
-78.14
-81.25
-78.67
-69.85
-55.59
-37.78
-18.89
-1.16
13.91
25.7
34.25
39.84
42.74
43.18
41.52
38.43
34.92
32.1
30.77
31.21
33.03
35.45
37.54
38.65
38.59
37.58
36.05
34.3
32.38
30.03
26.81
22.37
16.66
10.0
2.95
-3.87
-10.02
-15.36
-20.07
-24.56
-29.35
-35.0
-41.94
-50.35
-59.82
-69.2
-76.6
-79.87
-77.21
-67.88
-52.57
-33.25
-12.53
7.02
23.61
36.33
45.13
50.44
52.86
52.95
51.21
48.17
44.47
40.84
38.07
36.74
37.0
38.52
40.54
42.17
42.81
42.3
40.86
38.91
36.7
34.28
31.44
27.92
23.57
18.39
12.57
6.37
0.04
-6.16
-12.02
-17.38
-22.21
-26.67
-31.13
-36.1
-42.18
-49.71
-58.54
-67.75
-75.65
-80.15
-79.31
-72.08
-58.75
-40.85
-20.82
-1.14
16.18
30.0
39.97
46.21
49.03
48.83
46.13
41.71
36.58
31.87
28.51
26.96
27.09
28.31
29.79
30.87
31.23
30.93
30.3
29.63
28.93
27.89
25.99
22.76
18.05
12.13
5.64
-0.66
-6.24
-10.93
-14.99
-18.93
-23.3
-28.57
-35.0
-42.55
-50.79
-58.71
-64.81
-67.29
-64.69
-56.4
-43.06
-26.38
-8.68
7.83
21.57
31.76
38.29
41.4
41.49
39.08
34.88
29.78
24.78
20.8
18.43
17.87
18.9
21.05
23.7
26.25
28.21
29.22
29.01
27.42
24.4
19.96
14.31
7.81
0.99
-5.63
-11.67
-17.05
-22.04
-27.22
-33.27
-40.68
-49.45
-58.82
-67.29
-72.8
-73.34
-67.6
-55.54
-38.52
-18.96
0.35
17.09
29.9
38.48
43.28
45.1
44.67
42.56
39.24
35.18
30.95
27.16
24.26
22.49
21.79
21.9
22.38
22.75
22.56
21.42
19.02
15.33
10.53
5.0
-0.81
-6.51
-11.97
-17.23
-22.5
-28.12
-34.42
-41.71
-50.08
-59.11
-67.65
-73.87
-75.66
-71.37
-60.51
-44.07
-24.27
-3.91
14.49
29.31
39.97
46.67
50.02
50.71
49.32
46.38
42.43
38.1
34.01
30.63
28.26
26.89
26.32
26.2
26.17
25.91
25.13
23.57
21.03
17.41
12.75
7.25
1.28
-4.75
-10.47
-15.71
-20.61
-25.59
-31.32
-38.44
-47.17
-56.91
-66.08
-72.4
-73.55
-68.1
-56.06
-39.01
-19.58
-0.55
15.95
28.91
38.25
44.41
47.89
49.02
48.09
45.53
42.06
38.57
35.86
34.32
33.85
33.92
33.91
33.35
32.17
30.57
28.87
27.29
25.71
23.77
20.94
16.81
11.25
4.6
-2.49
-9.24
-15.02
-19.59
-23.21
-26.52
-30.4
-35.68
-42.87
-51.89
-61.89
-71.28
-77.96
-79.85
-75.56
-64.9
-49.01
-30.07
-10.63
7.09
21.67
32.63
40.14
44.72
46.91
47.24
46.22
44.42
42.46
40.83
39.8
39.36
39.31
39.4
39.47
39.45
39.29
38.86
37.96
36.35
33.89
30.61
26.73
22.51
18.15
13.68
9.03
4.07
-1.25
-6.85
-12.48
-17.89
-22.88
-27.41
-31.59
-35.71
-40.12
-45.29
-51.62
-59.3
-67.99
-76.59
-83.29
-85.98
-82.88
-73.31
-58.03
-39.08
-19.12
-0.66
14.63
26.16
34.17
39.32
42.33
43.75
43.97
43.35
42.31
41.28
40.65
40.69
41.45
42.73
44.18
45.4
46.1
46.18
45.73
44.91
43.83
42.47
40.66
38.25
35.12
31.28
26.9
22.18
17.33
12.52
7.88
3.52
-0.47
-4.08
-7.41
-10.69
-14.2
-18.15
-22.62
-27.46
-32.32
-36.83
-40.75
-44.15
-47.4
-51.13
-56.02
-62.59
-70.81
-79.95
-88.48
-94.29
-95.26
-89.92
-78.04
-60.81
-40.56
-20.08
-1.76
12.96
23.71
30.92
35.34
37.63
38.24
37.52
35.86
33.87
32.23
31.54
32.03
33.47
35.34
37.05
38.28
39.06
39.69
40.41
41.21
41.68
41.22
39.25
35.56
30.42
24.49
18.58
13.33
9.05
5.57
2.42
-1.01
-5.13
-10.01
-15.38
-20.69
-25.39
-29.19
-32.2
-34.84
-37.8
-41.75
-47.17
-54.17
-62.32
-70.55
-77.19
-80.35
-78.43
-70.71
-57.76
-41.29
-23.61
-6.94
7.29
18.54
26.99
33.06
37.03
39.01
39.11
37.68
35.44
33.28
31.96
31.85
32.82
34.39
35.94
37.01
37.38
37.11
36.39
35.41
34.2
32.66
30.57
27.72
24.04
19.67
15.0
10.53
6.63
3.38
0.49
-2.62
-6.43
-11.14
-16.53
-21.98
-26.9
-30.9
-34.07
-36.89
-40.01
-44.05
-49.38
-56.03
-63.69
-71.5
-78.08
-81.7
-80.71
-74.1
-62.05
-45.95
-28.0
-10.53
4.68
16.72
25.46
31.23
34.39
35.25
34.08
31.37
27.9
24.57
22.25
21.46
22.3
24.39
27.14
29.88
32.1
33.43
33.71
32.91
31.11
28.46
25.16
21.42
17.35
13.01
8.33
3.28
-2.11
-7.65
-13.01
-17.86
-21.95
-25.22
-27.88
-30.32
-33.08
-36.67
-41.51
-47.69
-54.78
-61.73
-66.99
-68.9
-66.16
-58.39
-46.25
-31.29
-15.48
-0.65
11.91
21.5
27.95
31.35
31.98
30.26
26.79
22.38
17.97
14.39
12.21
11.61
12.35
13.93
15.75
17.34
18.44
18.99
18.96
18.26
16.7
14.08
10.32
5.63
0.47
-4.58
-9.07
-12.83
-16.06
-19.21
-22.85
-27.51
-33.46
-40.54
-48.01
-54.55
-58.46
-58.22
-52.99
-43.02
-29.67
-15.01
-1.08
10.65
19.58
25.77
29.58
31.24
30.84
28.39
24.18
18.92
13.68
9.59
7.39
7.25
8.73
11.0
13.13
14.38
14.33
12.92
10.34
6.98
3.25
-0.5
-4.16
-7.86
-11.97
-17.0
-23.41
-31.38
-40.64
-50.24
-58.66
-64.05
-64.72
-59.71
-49.18
-34.5
-17.84
-1.56
12.5
23.34
30.82
35.35
37.4
37.3
35.23
31.45
26.54
21.43
17.17
14.62
14.05
15.02
16.57
17.67
17.58
16.16
13.79
11.07
8.41
5.88
3.12
-0.43
-5.23
-11.57
-19.44
-28.62
-38.59
-48.43
-56.76
-61.89
-62.18
-56.69
-45.64
-30.43
-13.31
3.34
17.67
28.75
36.49
41.27
43.53
43.6
41.7
38.15
33.53
28.68
24.6
22.03
21.29
22.06
23.54
24.71
24.78
23.4
20.74
17.3
13.56
9.76
5.84
1.51
-3.54
-9.5
-16.48
-24.49
-33.43
-42.96
-52.2
-59.68
-63.54
-62.1
-54.47
-41.07
-23.7
-4.95
12.51
26.77
37.0
43.46
46.97
48.45
48.52
47.45
45.35
42.4
38.99
35.67
32.99
31.28
30.57
30.55
30.7
30.44
29.27
26.92
23.4
18.93
13.82
8.37
2.75
-3.01
-8.96
-15.17
-21.81
-29.15
-37.44
-46.64
-56.13
-64.49
-69.69
-69.7
-63.27
-50.5
-32.98
-13.31
5.74
21.97
34.25
42.48
47.29
49.55
50.03
49.28
47.64
45.37
42.71
39.9
37.22
34.92
33.19
32.07
31.48
31.19
30.84
29.97
28.17
25.1
20.66
14.97
8.36
1.31
-5.72
-12.37
-18.49
-24.25
-30.12
-36.77
-44.74
-54.07
-63.92
-72.55
-77.66
-77.18
-70.0
-56.47
-38.4
-18.44
0.73
17.16
29.94
39.1
45.22
48.93
50.7
50.73
49.26
46.67
43.58
40.75
38.78
37.91
37.92
38.2
38.12
37.3
35.78
33.96
32.27
30.86
29.39
27.21
23.59
18.13
11.01
2.93
-5.12
-12.28
-18.1
-22.71
-26.71
-30.93
-36.2
-43.1
-51.79
-61.83
-72.0
-80.48
-85.12
-84.09
-76.49
-62.75
-44.52
-24.23
-4.31
13.35
27.82
38.93
47.04
52.64
56.07
57.53
57.2
55.39
52.74
50.08
48.22
47.64
48.25
49.49
50.63
51.12
50.86
50.11
49.24
48.32
47.07
45.0
41.73
37.29
32.13
26.92
22.23
18.27
14.83
11.48
7.79
3.61
-0.86
-5.2
-9.01
-12.15
-14.88
-17.71
-21.21
-25.72
-31.16
-37.08
-42.87
-48.0
-52.27
-55.88
-59.36
-63.48
-69.01
-76.51
-85.95
-96.46
-106.21
-112.69
-113.42
-106.79
-92.73
-72.85
-49.95
-27.06
-6.62
10.08
22.9
32.36
39.2
43.94
46.93
48.45
48.88
48.75
48.58
48.77
49.41
50.31
51.12
51.48
51.22
50.41
49.24
47.95
46.65
45.31
43.71
41.68
39.02
35.66
31.62
27.02
22.13
17.31
12.9
9.08
5.79
2.68
-0.76
-4.94
-10.04
-15.84
-21.89
-27.64
-32.74
-37.02
-40.63
-43.89
-47.27
-51.32
-56.61
-63.57
-72.16
-81.56
-90.09
-95.46
-95.46
-88.75
-75.42
-57.1
-36.38
-16.02
1.89
16.31
27.15
34.91
40.2
43.47
45.05
45.27
44.54
43.4
42.34
41.76
41.79
42.35
43.16
43.93
44.41
44.5
44.23
43.7
43.02
42.19
41.04
39.3
36.73
33.2
28.85
23.97
19.0
14.29
10.05
6.28
2.82
-0.58
-4.18
-8.24
-12.84
-17.93
-23.23
-28.36
-32.99
-36.94
-40.32
-43.56
-47.31
-52.21
-58.73
-66.86
-75.9
-84.46
-90.57
-92.27
-88.14
-77.86
-62.38
-43.69
-24.21
-6.06
9.34
21.47
30.44
36.65
40.51
42.32
42.36
41.07
39.04
37.01
35.71
35.56
36.65
38.6
40.83
42.73
43.94
44.43
44.38
44.02
43.39
42.36
40.66
38.06
34.52
30.2
25.45
20.64
16.12
12.08
8.52
5.21
1.83
-1.94
-6.29
-11.22
-16.47
-21.69
-26.53
-30.79
-34.48
-37.83
-41.25
-45.29
-50.47
-57.2
-65.44
-74.46
-82.74
-88.23
-88.9
-83.44
-71.85
-55.46
-36.5
-17.4
-0.06
14.43
25.76
33.97
39.23
41.72
41.7
39.67
36.42
32.84
29.76
27.73
26.93
27.26
28.46
30.16
32.01
33.72
35.06
35.84
35.96
35.27
33.67
31.09
27.63
23.54
19.24
15.14
11.5
8.25
4.99
1.23
-3.35
-8.71
-14.38
-19.71
-24.19
-27.67
-30.46
-33.17
-36.56
-41.24
-47.54
-55.25
-63.5
-70.74
-75.03
-74.55
-68.32
-56.61
-40.93
-23.61
-6.96
7.37
18.61
26.74
32.01
34.69
34.93
32.95
29.22
24.58
20.03
16.48
14.43
13.89
14.44
15.5
16.58
17.46
18.14
18.75
19.31
19.71
19.61
18.6
16.36
12.76
8.02
2.59
-2.91
-7.97
-12.3
-16.0
-19.51
-23.37
-28.03
-33.66
-40.18
-47.13
-53.78
-59.13
-61.96
-61.09
-55.79
-46.1
-32.95
-18.0
-3.12
10.1
20.71
28.4
33.27
35.52
35.3
32.81
28.34
22.55
16.38
10.85
6.82
4.71
4.39
5.3
6.67
7.77
8.13
7.6
6.28
4.37
2.12
-0.31
-2.81
-5.39
-8.2
-11.5
-15.67
-21.06
-27.81
-35.63
-43.61
-50.29
-53.94
-53.11
-47.13
-36.47
-22.62
-7.64
6.47
18.3
27.26
33.31
36.72
37.67
36.23
32.52
26.99
20.49
14.14
9.0
5.74
4.4
4.47
5.17
5.79
5.89
5.42
4.49
3.28
1.81
-0.05
-2.48
-5.73
-9.98
-15.45
-22.34
-30.71
-40.15
-49.63
-57.43
-61.63
-60.65
-53.95
-42.27
-27.38
-11.47
3.5
16.27
26.33
33.61
38.17
40.02
39.23
36.1
31.24
25.65
20.43
16.5
14.4
14.09
15.0
16.25
16.95
16.54
14.93
12.42
9.53
6.64
3.78
0.64
-3.2
-8.18
-14.52
-22.28
-31.32
-41.17
-50.83
-58.73
-62.92
-61.68
-54.24
-41.21
-24.47
-6.63
9.92
23.62
33.92
41.04
45.38
47.27
46.81
44.13
39.64
34.1
28.44
23.59
20.18
18.4
17.99
18.38
18.85
18.69
17.44
15.0
11.57
7.61
3.57
-0.36
-4.27
-8.52
-13.51
-19.57
-26.86
-35.29
-44.49
-53.67
-61.52
-66.28
-66.22
-60.16
-48.06
-31.24
-12.03
6.9
23.33
36.02
44.75
50.0
52.46
52.76
51.26
48.28
44.23
39.66
35.22
31.53
28.95
27.52
26.94
26.75
26.43
25.59
23.97
21.5
18.19
14.15
9.53
4.51
-0.73
-6.1
-11.63
-17.56
-24.37
-32.56
-42.38
-53.48
-64.56
-73.51
-77.92
-75.88
-66.75
-51.47
-32.35
-12.3
6.02
20.96
31.92
39.21
43.51
45.47
45.57
44.24
42.0
39.52
37.44
36.22
35.89
36.1
36.35
36.25
35.75
35.09
34.54
34.18
33.61
32.13
29.04
23.95
17.04
8.96
0.62
-7.19
-14.0
-19.83
-25.19
-30.92
-37.96
-46.95
-57.75
-69.14
-78.91
-84.34
-83.13
-74.36
-58.92
-39.21
-18.38
0.83
16.74
28.94
37.85
44.1
48.15
50.14
50.17
48.52
45.8
42.81
40.31
38.8
38.4
38.88
39.83
40.83
41.51
41.68
41.27
40.29
38.73
36.51
33.5
29.52
24.53
18.56
11.82
4.67
-2.5
-9.34
-15.65
-21.34
-26.54
-31.42
-36.32
-41.7
-48.12
-56.02
-65.47
-75.71
-85.05
-91.14
-91.68
-85.29
-72.13
-53.87
-33.16
-12.72
5.44
20.29
31.7
40.01
45.67
49.06
50.53
50.5
49.52
48.25
47.28
47.01
47.52
48.52
49.5
49.94
49.56
48.45
46.99
45.63
44.53
43.45
41.81
39.02
34.75
29.19
22.95
16.8
11.37
6.87
3.08
-0.57
-4.69
-9.7
-15.68
-22.31
-29.06
-35.38
-40.92
-45.6
-49.74
-53.89
-58.79
-65.13
-73.3
-83.02
-93.18
-101.8
-106.48
-105.14
-96.7
-81.57
-61.48
-39.02
-16.79
3.23
19.98
33.15
42.9
49.56
53.45
54.93
54.5
52.83
50.67
48.75
47.54
47.18
47.5
48.15
48.81
49.3
49.7
50.15
50.73
51.31
51.53
50.94
49.23
46.35
42.61
38.52
34.56
31.03
27.89
24.85
21.53
17.65
13.18
8.33
3.47
-1.07
-5.14
-8.89
-12.68
-16.99
-22.1
-27.99
-34.31
-40.48
-45.91
-50.36
-53.93
-57.17
-60.84
-65.76
-72.57
-81.36
-91.47
-101.28
-108.41
-110.37
-105.36
-92.97
-74.49
-52.46
-29.84
-9.14
8.24
21.96
32.31
39.75
44.51
46.69
46.44
44.26
41.03
37.89
35.81
35.41
36.64
38.97
41.66
44.13
46.13
47.71
49.0
50.01
50.48
49.99
48.15
44.82
40.15
34.55
28.56
22.68
17.24
12.38
7.98
3.68
-0.92
-6.15
-12.05
-18.34
-24.52
-30.06
-34.67
-38.42
-41.73
-45.21
-49.5
-55.1
-62.27
-70.89
-80.25
-88.89
-94.76
-95.65
-89.97
-77.43
-59.25
-37.88
-16.15
3.54
19.85
32.43
41.56
47.65
50.99
51.79
50.36
47.36
43.74
40.56
38.66
38.42
39.66
41.78
44.02
45.78
46.77
47.08
46.97
46.67
46.17
45.17
43.25
40.04
35.48
29.92
23.98
18.36
13.52
9.49
5.91
2.2
-2.14
-7.31
-13.12
-19.15
-24.89
-30.06
-34.62
-38.79
-42.94
-47.48
-52.83
-59.43
-67.51
-76.89
-86.64
-95.0
-99.67
-98.51
-90.35
-75.52
-55.79
-33.85
-12.37
6.61
22.05
33.7
41.67
46.19
47.51
46.03
42.38
37.54
32.56
28.4
25.65
24.5
24.74
25.99
27.81
29.81
31.69
33.21
34.19
34.43
33.78
32.18
29.66
26.33
22.37
17.9
13.03
7.82
2.37
-3.24
-8.86
-14.33
-19.5
-24.32
-28.85
-33.28
-37.95
-43.29
-49.7
-57.23
-65.44
-73.17
-78.68
-80.07
-75.89
-65.71
-50.35
-31.72
-12.24
5.82
20.84
32.04
39.33
42.97
43.37
40.97
36.41
30.53
24.37
18.95
15.01
12.85
12.27
12.82
13.97
15.33
16.66
17.77
18.41
18.23
16.88
14.19
10.26
5.44
0.18
-5.07
-10.09
-14.85
-19.55
-24.58
-30.49
-37.67
-46.1
-54.99
-62.69
-67.11
-66.41
-59.7
-47.52
-31.64
-14.42
1.94
15.97
27.03
34.93
39.65
41.09
39.18
34.18
26.83
18.36
10.21
3.64
-0.54
-2.16
-1.65
0.09
2.07
3.41
3.69
2.92
1.45
-0.32
-2.18
-4.29
-7.09
-11.09
-16.69
-24.07
-33.06
-43.03
-52.86
-60.92
-65.39
-64.7
-58.16
-46.26
-30.61
-13.48
2.98
17.23
28.57
36.88
42.15
44.28
43.11
38.76
31.93
23.97
16.55
11.09
8.27
7.78
8.62
9.53
9.58
8.5
6.58
4.4
2.38
0.57
-1.42
-4.16
-8.3
-14.35
-22.52
-32.66
-44.04
-55.23
-64.15
-68.55
-66.63
-57.76
-42.84
-24.06
-4.24
14.07
29.3
40.87
48.98
53.95
55.91
54.78
50.63
44.0
36.03
28.28
22.19
18.61
17.53
18.09
19.12
19.52
18.71
16.77
14.17
11.44
8.82
6.11
2.78
-1.89
-8.43
-17.14
-27.94
-40.24
-52.81
-63.71
-70.6
-71.31
-64.58
-50.65
-31.4
-9.73
11.31
29.32
43.09
52.45
57.84
59.84
58.94
55.6
50.35
43.99
37.5
31.85
27.82
25.73
25.42
26.23
27.25
27.54
26.5
23.96
20.26
15.9
11.31
6.58
1.5
-4.4
-11.53
-20.23
-30.61
-42.45
-54.98
-66.74
-75.58
-79.13
-75.55
-64.32
-46.59
-24.99
-2.74
17.32
33.49
45.34
53.33
58.15
60.29
59.99
57.41
52.96
47.45
41.95
37.46
34.56
33.28
33.09
33.2
32.85
31.59
29.29
26.11
22.27
18.0
13.41
8.51
3.19
-2.69
-9.36
-17.11
-26.26
-36.92
-48.77
-60.77
-71.13
-77.54
-77.9
-71.05
-57.31
-38.54
-17.55
2.72
20.02
33.24
42.27
47.66
50.15
50.41
49.02
46.55
43.57
40.61
38.06
36.04
34.49
33.24
32.13
31.06
29.98
28.76
27.15
24.82
21.39
16.65
10.62
3.65
-3.71
-10.85
-17.36
-23.21
-28.81
-34.98
-42.6
-52.15
-63.18
-74.07
-82.28
-85.08
-80.49
-68.11
-49.36
-27.04
-4.41
15.78
31.91
43.59
51.3
55.81
57.8
57.68
55.79
52.54
48.61
44.8
41.88
40.3
40.01
40.5
40.97
40.7
39.33
36.92
33.96
30.94
28.16
25.46
22.31
18.06
12.26
4.91
-3.48
-12.08
-20.07
-26.9
-32.48
-37.16
-41.57
-46.44
-52.48
-60.18
-69.6
-80.1
-90.14
-97.45
-99.52
-94.46
-81.73
-62.49
-39.31
-15.37
6.48
24.41
37.83
47.06
52.89
56.11
57.35
57.09
55.78
53.86
51.8
49.95
48.55
47.63
47.11
46.81
46.53
46.1
45.39
44.23
42.47
39.9
36.36
31.8
26.4
20.5
14.46
8.55
2.79
-2.98
-8.91
-15.01
-21.01
-26.58
-31.51
-35.87
-40.11
-44.89
-50.86
-58.48
-67.84
-78.48
-89.2
-98.1
-102.84
-101.31
-92.38
-76.44
-55.45
-32.33
-10.02
9.33
24.77
36.39
44.86
50.8
54.58
56.46
56.68
55.75
54.33
53.08
52.43
52.48
53.02
53.77
54.46
54.98
55.34
55.53
55.49
54.96
53.62
51.19
47.57
42.92
37.67
32.39
27.54
23.41
19.88
16.59
13.07
8.94
4.14
-1.07
-6.19
-10.84
-14.9
-18.61
-22.45
-26.9
-32.12
-37.95
-43.94
-49.59
-54.63
-59.11
-63.35
-67.93
-73.46
-80.53
-89.37
-99.6
-109.88
-118.0
-121.32
-117.64
-106.05
-87.37
-63.93
-38.81
-14.89
5.87
22.62
35.4
44.64
50.83
54.39
55.72
55.28
53.69
51.63
49.77
48.63
48.48
49.22
50.51
51.82
52.69
52.89
52.42
51.48
50.25
48.77
46.9
44.36
40.97
36.71
31.8
26.6
21.49
16.71
12.35
8.31
4.43
0.45
-3.88
-8.76
-14.3
-20.41
-26.81
-33.08
-38.82
-43.82
-48.14
-52.13
-56.3
-61.21
-67.34
-74.89
-83.61
-92.52
-99.91
-103.63
-101.62
-92.72
-77.21
-56.79
-34.14
-12.02
7.46
23.27
35.33
44.02
49.75
52.84
53.48
52.09
49.34
46.11
43.32
41.62
41.26
42.1
43.66
45.37
46.76
47.56
47.76
47.47
46.82
45.79
44.22
41.84
38.44
33.99
28.69
22.96
17.25
11.94
7.14
2.74
-1.58
-6.18
-11.32
-17.03
-23.06
-28.98
-34.28
-38.6
-41.86
-44.36
-46.7
-49.64
-53.97
-60.26
-68.69
-78.63
-88.62
-96.47
-99.79
-96.73
-86.66
-70.47
-50.25
-28.68
-8.21
9.45
23.5
33.82
40.7
44.57
45.88
45.18
43.1
40.4
37.81
35.97
35.26
35.71
37.02
38.64
40.07
40.98
41.34
41.33
41.1
40.57
39.39
37.07
33.29
28.15
22.19
16.19
10.84
6.4
2.59
-1.16
-5.43
-10.5
-16.23
-22.17
-27.81
-32.8
-37.05
-40.75
-44.27
-48.09
-52.8
-58.88
-66.49
-75.13
-83.39
-89.2
-90.36
-85.33
-73.84
-57.02
-37.04
-16.37
2.87
19.32
32.28
41.58
47.24
49.48
48.72
45.67
41.34
36.78
32.89
30.27
29.04
29.0
29.7
30.71
31.72
32.62
33.41
34.06
34.39
34.01
32.48
29.53
25.18
19.9
14.33
9.1
4.51
0.44
-3.57
-8.06
-13.37
-19.44
-25.9
-32.23
-38.06
-43.27
-48.01
-52.65
-57.58
-63.24
-70.0
-77.89
-86.43
-94.39
-99.86
-100.76
-95.52
-83.73
-66.4
-45.6
-23.8
-3.21
14.69
29.18
40.04
47.29
51.06
51.68
49.75
46.18
42.04
38.31
35.7
34.42
34.3
34.92
35.84
36.78
37.69
38.65
39.66
40.55
40.86
40.05
37.71
33.84
28.86
23.51
18.47
14.07
10.14
6.14
1.47
-4.21
-10.75
-17.65
-24.26
-30.14
-35.2
-39.76
-44.38
-49.72
