0
14.24
15.0
15.53
15.69
15.38
14.6
13.47
12.14
10.73
9.33
7.91
6.33
4.46
2.23
-0.36
-3.18
-6.05
-8.81
-11.31
-13.48
-15.32
-16.92
-18.46
-20.18
-22.36
-25.12
-28.38
-31.73
-34.44
-35.69
-34.81
-31.49
-25.96
-18.86
-11.1
-3.64
2.82
7.9
11.62
14.24
16.1
17.44
18.34
18.77
18.73
18.4
18.07
18.05
18.42
19.06
19.7
20.1
20.2
20.17
20.12
20.03
19.69
18.82
17.22
14.94
12.23
9.43
6.83
4.54
2.53
0.67
-1.26
-3.44
-5.95
-8.69
-11.42
-13.78
-15.51
-16.57
-17.24
-17.97
-19.21
-21.21
-23.97
-27.21
-30.41
-32.94
-34.1
-33.3
-30.25
-25.06
-18.3
-10.83
-3.56
2.84
7.96
11.73
14.27
15.75
16.36
16.33
15.88
15.21
14.52
13.91
13.46
13.2
13.11
13.13
13.19
13.24
13.32
13.48
13.78
14.17
14.38
14.1
13.04
11.17
8.71
6.08
3.71
1.81
0.38
-0.76
-1.89
-3.21
-4.81
-6.66
-8.63
-10.56
-12.32
-13.86
-15.2
-16.5
-17.93
-19.66
-21.79
-24.3
-27.02
-29.65
-31.68
-32.51
-31.56
-28.49
-23.39
-16.86
-9.8
-3.18
2.33
6.5
9.51
11.69
13.32
14.49
15.2
15.48
15.51
15.57
15.91
16.63
17.63
18.62
19.35
19.68
19.63
19.35
19.01
18.7
18.4
18.05
17.55
16.86
16.03
15.18
14.44
13.88
13.38
12.71
11.59
9.83
7.48
4.78
2.1
-0.24
-2.12
-3.56
-4.74
-5.85
-7.12
-8.68
-10.67
-13.03
-15.52
-17.59
-18.57
-17.88
-15.29
-11.08
-5.93
-0.64
4.09
7.94
10.87
13.02
14.5
15.38
15.65
15.35
14.66
13.92
13.46
13.51
14.09
14.98
15.88
16.51
16.76
16.71
16.52
16.36
16.28
16.18
15.85
15.1
13.82
12.0
9.74
7.2
4.55
1.96
-0.47
-2.63
-4.49
-6.06
-7.36
-8.42
-9.3
-10.07
-10.8
-11.57
-12.48
-13.58
-14.87
-16.32
-17.94
-19.68
-21.42
-22.89
-23.64
-23.2
-21.3
-17.98
-13.67
-9.02
-4.63
-0.88
2.13
4.55
6.57
8.28
9.66
10.64
11.13
11.11
10.69
10.06
9.47
9.15
9.24
9.7
10.36
11.02
11.51
11.76
11.72
11.36
10.66
9.63
8.36
7.01
5.73
4.58
3.46
2.24
0.81
-0.79
-2.43
-4.0
-5.47
-6.9
-8.36
-9.81
-11.13
-12.23
-13.07
-13.79
-14.57
-15.58
-16.95
-18.75
-21.06
-23.82
-26.87
-29.73
-31.77
-32.28
-30.82
-27.35
-22.22
-16.11
-9.79
-3.96
0.88
4.49
6.91
8.39
9.31
9.97
10.58
11.13
11.56
11.86
12.04
12.13
12.15
12.06
11.8
11.45
11.12
10.98
11.09
11.37
11.63
11.68
11.35
10.62
9.5
8.01
6.2
4.24
2.34
0.78
-0.32
-0.96
-1.38
-1.84
-2.61
-3.82
-5.5
-7.55
-9.82
-12.14
-14.32
-16.2
-17.69
-18.82
-19.7
-20.54
-21.62
-23.13
-25.14
-27.47
-29.69
-31.17
-31.24
-29.42
-25.69
-20.51
-14.65
-8.96
-4.04
-0.13
2.88
5.21
7.06
8.5
9.49
9.98
10.01
9.71
9.28
8.88
8.6
8.5
8.56
8.73
8.98
9.24
9.44
9.56
9.56
9.44
9.17
8.68
7.89
6.7
5.14
3.37
1.63
0.22
-0.69
-1.09
-1.15
-1.13
-1.28
-1.77
-2.64
-3.85
-5.26
-6.71
-8.03
-9.06
-9.72
-10.04
-10.11
-10.13
-10.34
-10.95
-12.13
-13.84
-15.83
-17.61
-18.55
-18.1
-15.97
-12.31
-7.56
-2.36
2.76
7.43
11.45
14.7
17.01
18.3
18.55
17.97
16.88
15.65
14.58
13.82
13.46
13.44
13.66
13.96
14.2
14.3
14.26
14.2
14.21
14.32
14.38
14.21
13.61
12.51
10.95
9.0
6.8
4.46
2.17
0.12
-1.52
-2.76
-3.71
-4.63
-5.68
-6.92
-8.25
-9.51
-10.6
-11.52
-12.4
-13.36
-14.56
-16.07
-17.89
-19.96
-22.06
-23.81
-24.73
-24.39
-22.58
-19.31
-14.89
-9.71
-4.25
1.04
5.73
9.45
11.99
13.34
13.71
13.47
13.04
12.76
12.81
13.21
13.88
14.67
15.42
15.97
16.23
16.17
15.87
15.44
14.97
14.47
13.94
13.35
12.73
12.13
11.57
10.93
10.02
8.66
6.77
4.51
2.13
-0.09
-2.03
-3.73
-5.37
-7.08
-8.9
-10.73
-12.44
-13.98
-15.34
-16.55
-17.55
-18.3
-18.81
-19.23
-19.85
-20.94
-22.54
-24.36
-25.78
-26.15
-25.0
-22.22
-18.1
-13.13
-7.88
-2.81
1.74
5.57
8.6
10.83
12.33
13.22
13.56
13.46
12.97
12.2
11.35
10.67
10.41
10.71
11.58
12.84
14.2
15.37
16.06
16.17
15.75
15.0
14.17
13.44
12.82
12.14
11.21
9.89
8.19
6.23
4.16
2.1
0.11
-1.76
-3.41
-4.74
-5.66
-6.23
-6.64
-7.1
-7.8
-8.78
-9.96
-11.27
-12.68
-14.23
-15.97
-17.94
-20.12
-22.48
-24.95
-27.34
-29.32
-30.36
-29.94
-27.71
-23.62
-18.08
-11.76
-5.4
0.37
5.14
8.79
11.35
12.99
13.9
14.27
14.26
13.98
13.51
12.99
12.63
12.6
12.99
13.73
14.61
15.4
15.89
16.03
15.84
15.37
14.58
13.42
11.87
10.02
8.1
6.37
4.95
3.79
2.64
1.26
-0.5
-2.58
-4.75
-6.76
-8.43
-9.73
-10.79
-11.83
-13.04
-14.52
-16.18
-17.88
-19.42
-20.76
-22.0
-23.39
-25.23
-27.61
-30.4
-33.13
-35.19
-35.96
-35.0
-32.19
-27.72
-21.99
-15.56
-8.98
-2.77
2.69
7.07
10.27
12.26
13.23
13.47
13.31
13.08
12.98
13.13
13.53
14.14
14.89
15.78
16.78
17.87
19.01
20.07
20.93
21.43
21.47
20.99
19.96
18.4
16.35
13.96
11.4
8.88
6.54
4.38
2.32
0.21
-2.03
-4.32
-6.43
-8.11
-9.17
-9.66
-9.76
-9.77
-9.95
-10.43
-11.3
-12.53
-14.01
-15.51
-16.67
-17.04
-16.18
-13.85
-10.06
-5.09
0.57
6.31
11.61
16.07
19.49
21.85
23.19
23.62
23.22
22.11
20.48
18.64
16.91
15.54
14.61
13.99
13.45
12.88
12.33
11.98
11.94
12.18
12.38
12.19
11.38
10.01
8.37
6.79
5.45
4.31
3.15
1.75
-0.02
-2.1
-4.37
-6.63
-8.76
-10.62
-12.22
-13.57
-14.83
-16.18
-17.82
-19.84
-22.2
-24.66
-26.84
-28.23
-28.32
-26.76
-23.47
-18.69
-13.0
-7.06
-1.48
3.38
7.43
10.67
13.13
14.76
15.48
15.35
14.57
13.51
12.58
12.05
11.97
12.3
12.88
13.61
14.42
15.25
16.0
16.54
16.71
16.36
15.4
13.8
11.65
9.16
6.62
4.29
2.33
0.71
-0.77
-2.38
-4.29
-6.51
-8.85
-11.07
-12.95
-14.45
-15.66
-16.77
-17.99
-19.54
-21.6
-24.23
-27.34
-30.53
-33.2
-34.58
-34.05
-31.35
-26.63
-20.46
-13.61
-6.83
-0.66
4.58
8.76
11.91
14.19
15.79
16.9
17.69
18.23
18.52
18.53
18.3
17.92
17.56
17.32
17.25
17.31
17.42
17.52
17.57
17.56
17.42
17.08
16.41
15.24
13.5
11.17
8.39
5.39
2.51
0.03
-1.9
-3.34
-4.51
-5.67
-6.96
-8.41
-9.91
-11.35
-12.72
-14.03
-15.42
-16.98
-18.8
-20.98
-23.56
-26.5
-29.54
-32.16
-33.63
-33.27
-30.68
-25.98
-19.76
-12.89
-6.17
-0.13
4.99
9.2
12.58
15.16
16.93
17.88
18.12
17.89
17.51
17.27
17.35
17.75
18.32
18.89
19.29
19.42
19.23
18.72
17.95
16.96
15.83
14.66
13.53
12.4
11.17
9.7
7.92
5.91
3.83
1.84
-0.02
-1.87
-3.88
-6.13
-8.51
-10.82
-12.82
-14.51
-16.0
-17.49
-19.12
-20.87
-22.65
-24.4
-26.23
-28.39
-31.08
-34.24
-37.46
-40.01
-41.08
-40.07
-36.72
-31.28
-24.41
-17.0
-9.93
-3.81
1.12
4.95
7.97
10.38
12.3
13.72
14.67
15.21
15.53
15.78
16.06
16.36
16.67
16.99
17.39
17.91
18.51
19.08
19.47
19.61
19.48
19.1
18.45
17.47
16.14
14.57
12.99
11.61
10.5
9.51
8.44
7.12
5.55
3.86
2.22
0.69
-0.75
-2.2
-3.66
-5.08
-6.4
-7.59
-8.79
-10.19
-11.96
-14.12
-16.5
-18.69
-20.13
-20.24
-18.6
-15.1
-10.07
-4.22
1.61
6.7
10.67
13.51
15.44
16.72
17.47
17.68
17.36
16.58
15.61
14.78
14.37
14.45
14.9
15.45
15.83
15.88
15.63
15.24
14.9
14.72
14.66
14.55
14.11
13.15
11.6
9.61
7.48
5.5
3.86
2.56
1.43
0.18
-1.46
-3.63
-6.23
-9.02
-11.67
-13.93
-15.71
-17.13
-18.42
-19.81
-21.42
-23.26
-25.21
-27.09
-28.66
-29.59
-29.51
-28.02
-24.84
-20.02
-13.94
-7.28
-0.78
4.89
9.42
12.72
14.95
16.27
16.83
16.7
16.01
14.98
13.97
13.33
13.29
13.85
14.75
15.61
16.11
16.13
15.76
15.21
14.69
14.23
13.76
13.11
12.11
10.68
8.83
6.64
4.29
1.92
-0.31
-2.33
-4.03
-5.42
-6.51
-7.4
-8.2
-9.03
-9.96
-11.01
-12.13
-13.25
-14.39
-15.63
-17.12
-18.98
-21.27
-23.89
-26.63
-29.16
-31.01
-31.7
-30.72
-27.78
-22.94
-16.68
-9.79
-3.11
2.7
7.36
10.92
13.55
15.41
16.55
16.98
16.75
16.05
15.13
14.23
13.53
13.11
13.02
13.24
13.72
14.32
14.84
15.08
14.9
14.28
13.3
12.09
10.75
9.39
8.07
6.8
5.53
4.18
2.64
0.91
-0.97
-2.83
-4.55
-6.04
-7.32
-8.44
-9.39
-10.15
-10.67
-10.97
-11.21
-11.64
-12.56
-14.19
-16.66
-20.03
-24.13
-28.62
-32.87
-36.11
-37.62
-36.89
-33.89
-28.99
-22.91
-16.47
-10.34
-4.96
-0.51
3.1
6.05
8.5
10.52
12.09
13.15
13.75
14.05
14.31
14.74
15.38
16.05
16.48
16.46
15.97
15.23
14.47
13.87
13.39
12.88
12.1
10.97
9.51
7.89
6.34
4.98
3.87
2.92
2.0
1.02
-0.04
-1.08
-2.03
-2.78
-3.4
-4.0
-4.69
-5.5
-6.32
-7.06
-7.73
-8.52
-9.77
-11.78
-14.59
-17.83
-20.84
-22.8
-23.03
-21.2
-17.36
-11.85
-5.22
1.91
8.88
15.0
19.59
22.2
22.72
21.45
19.12
16.59
14.58
13.38
12.89
12.74
12.57
12.27
11.95
11.82
11.97
12.35
12.78
13.11
13.22
13.11
12.77
12.14
11.18
9.85
8.21
6.4
4.56
2.8
1.2
-0.25
-1.57
-2.82
-4.07
-5.37
-6.8
-8.36
-10.02
-11.75
-13.57
-15.6
-17.9
-20.42
-22.85
-24.63
-25.14
-23.95
-21.0
-16.62
-11.45
-6.17
-1.28
3.0
6.64
9.72
12.24
14.11
15.25
15.64
15.42
14.84
14.23
13.84
13.79
13.98
14.24
14.38
14.27
13.9
13.38
12.84
12.39
12.0
11.55
10.9
9.96
8.74
7.33
5.83
4.36
2.91
1.42
-0.21
-2.06
-4.18
-6.55
-9.06
-11.55
-13.87
-15.83
-17.35
-18.48
-19.39
-20.41
-21.85
-23.89
-26.45
-29.12
-31.17
-31.84
-30.51
-26.96
-21.5
-14.81
-7.79
-1.2
4.45
9.01
12.53
15.15
16.94
17.89
18.04
17.54
16.69
15.81
15.1
14.63
14.29
13.96
13.58
13.18
12.84
12.62
12.53
12.53
12.58
12.59
12.45
11.98
11.06
9.62
7.76
5.68
3.66
1.85
0.35
-0.9
-1.98
-3.07
-4.28
-5.75
-7.53
-9.55
-11.65
-13.62
-15.29
-16.63
-17.81
-19.02
-20.5
-22.33
-24.54
-26.96
-29.32
-31.16
-31.91
-31.07
-28.36
-23.89
-18.13
-11.8
-5.56
0.14
5.09
9.23
12.53
14.95
16.47
17.15
17.2
16.91
16.54
16.28
16.18
16.28
16.55
16.92
17.33
17.63
17.7
17.42
16.81
15.92
14.86
13.7
12.45
11.12
9.71
8.21
6.58
4.8
2.85
0.77
-1.29
-3.13
-4.6
-5.68
-6.51
-7.33
-8.35
-9.69
-11.25
-12.85
-14.29
-15.48
-16.49
-17.54
-18.87
-20.66
-23.0
-25.77
-28.71
-31.39
-33.28
-33.84
-32.63
-29.5
-24.65
-18.62
-12.14
-5.97
-0.68
3.47
6.55
8.75
10.31
11.38
12.03
12.28
12.22
12.0
11.82
11.83
12.13
12.6
13.02
13.14
12.8
11.99
10.87
9.61
8.36
7.15
5.96
4.77
3.64
2.63
1.78
1.06
0.37
-0.36
-1.11
-1.84
-2.47
-3.08
-3.82
-4.83
-6.14
-7.63
-9.08
-10.31
-11.28
-12.04
-12.66
-13.22
-13.78
-14.46
-15.5
-17.1
-19.28
-21.79
-24.09
-25.54
-25.59
-23.93
-20.56
-15.76
-9.95
-3.68
2.48
8.02
12.58
15.98
18.27
19.61
20.23
20.32
20.05
19.56
19.01
18.53
18.23
18.21
18.49
19.06
19.84
20.68
21.37
21.75
21.74
21.38
20.72
19.82
18.67
17.26
15.58
13.7
11.71
9.69
7.68
5.65
3.56
1.4
-0.77
-2.93
-5.04
-7.06
-8.93
-10.53
-11.8
-12.81
-13.82
-15.2
-17.22
-19.85
-22.69
-25.09
-26.33
-25.9
-23.65
-19.75
-14.68
-9.02
-3.35
1.82
6.2
9.64
12.17
13.84
14.74
14.97
14.64
13.96
13.17
12.52
12.17
12.13
12.29
12.51
12.66
12.73
12.76
12.8
12.87
12.89
12.76
12.33
11.44
10.03
8.12
5.9
3.63
1.6
-0.01
-1.2
-2.13
-3.0
-4.02
-5.27
-6.73
-8.25
-9.72
-11.0
-12.05
-12.92
-13.7
-14.53
-15.61
-17.14
-19.24
-21.89
-24.87
-27.71
-29.78
-30.4
-29.09
-25.69
-20.48
-14.06
-7.23
-0.71
4.96
9.5
12.83
15.03
16.22
16.56
16.27
15.61
14.87
14.27
13.98
14.06
14.4
14.91
15.42
15.8
15.98
15.92
15.65
15.28
14.97
14.83
14.84
14.86
14.61
13.89
12.68
11.12
9.47
7.95
6.58
5.25
3.81
2.17
0.38
-1.47
-3.35
-5.32
-7.46
-9.85
-12.4
-14.96
-17.34
-19.4
-21.17
-22.77
-24.37
-26.07
-27.88
-29.56
-30.73
-30.92
-29.72
-26.94
-22.71
-17.45
-11.69
-5.99
-0.73
3.84
7.58
10.45
12.43
13.65
14.31
14.65
14.9
15.18
15.44
15.58
15.51
15.25
14.93
14.71
14.7
14.9
15.19
15.38
15.27
14.72
13.69
12.19
10.33
8.27
6.16
4.11
2.14
0.28
-1.44
-2.94
-4.12
-4.95
-5.52
-6.03
-6.73
-7.76
-9.12
-10.69
-12.29
-13.81
-15.21
-16.55
-17.9
-19.32
-20.88
-22.69
-24.87
-27.45
-30.26
-32.82
-34.45
-34.38
-32.12
-27.62
-21.35
-14.14
-6.91
-0.41
4.96
9.15
12.32
14.67
16.31
17.28
17.59
17.35
16.72
15.97
15.35
15.01
14.97
15.12
15.27
15.26
15.01
14.56
14.0
13.5
13.2
13.14
13.29
13.53
13.7
13.69
13.41
12.84
12.02
10.99
9.73
8.26
6.56
4.61
2.52
0.41
-1.55
-3.23
-4.58
-5.65
-6.59
-7.57
-8.77
-10.27
-12.05
-14.0
-15.84
-17.25
-17.89
-17.47
-15.84
-13.02
-9.21
-4.78
-0.17
4.21
7.98
10.95
13.09
14.49
15.3
15.6
15.4
14.65
13.36
11.71
10.04
8.75
8.09
8.08
8.47
8.92
9.17
9.13
8.91
8.65
8.42
8.17
7.76
7.09
6.2
5.23
4.35
3.68
3.18
2.74
2.21
1.5
0.63
-0.34
-1.36
-2.39
-3.43
-4.47
-5.48
-6.45
-7.41
-8.48
-9.86
-11.74
-14.27
-17.48
-21.27
-25.36
-29.32
-32.59
-34.56
-34.71
-32.8
-28.93
-23.59
-17.46
-11.24
-5.5
-0.54
3.51
6.69
9.13
10.97
12.34
13.35
14.06
14.51
14.73
14.77
14.71
14.68
14.72
14.84
14.93
14.95
14.9
14.87
14.92
15.01
14.93
14.42
13.26
11.45
9.18
6.76
4.52
2.58
0.94
-0.52
-1.94
-3.34
-4.73
-6.06
-7.34
-8.62
-9.98
-11.43
-12.9
-14.26
-15.36
-16.09
-16.53
-16.94
-17.71
-19.17
-21.4
-24.1
-26.66
-28.31
-28.45
-26.77
-23.36
-18.57
-12.9
-6.92
-1.16
3.88
7.84
10.56
12.12
12.84
13.08
13.18
13.31
13.51
13.78
14.13
14.63
15.27
15.98
16.59
16.91
16.87
16.54
16.06
15.64
15.34
15.12
14.78
14.12
12.97
11.31
9.27
7.08
5.01
3.26
1.89
0.81
-0.16
-1.17
-2.3
-3.52
-4.78
-6.07
-7.46
-9.02
-10.78
-12.71
-14.73
-16.76
-18.78
-20.9
-23.29
-26.07
-29.27
-32.63
-35.65
-37.64
-37.97
-36.2
-32.32
-26.73
-20.13
-13.33
-7.01
-1.57
2.83
6.25
8.81
10.68
12.02
13.0
13.71
14.22
14.58
14.83
14.96
14.98
14.83
14.47
13.87
13.11
12.34
11.74
11.41
11.33
11.37
11.39
11.29
11.07
10.75
10.31
9.65
8.69
7.41
5.89
4.32
2.81
1.39
-0.01
-1.47
-3.04
-4.68
-6.33
-7.91
-9.45
-10.97
-12.51
-14.06
-15.64
-17.32
-19.17
-21.2
-23.24
-24.91
-25.67
-25.02
-22.67
-18.57
-13.05
-6.63
0.03
6.26
11.54
15.52
18.14
19.57
20.12
20.11
19.78
19.26
18.63
17.94
17.3
16.78
16.41
16.19
16.06
16.01
16.05
16.15
16.29
16.33
16.12
15.51
14.38
12.64
10.35
7.71
5.03
2.69
0.96
-0.16
-0.98
-1.87
-3.15
-4.79
-6.57
-8.22
-9.61
-10.83
-12.08
-13.51
-15.14
-16.87
-18.65
-20.57
-22.73
-25.15
-27.59
-29.49
-30.18
-29.07
-25.95
-21.03
-14.92
-8.42
-2.29
2.93
7.02
10.05
12.24
13.8
14.87
15.48
15.67
15.59
15.48
15.58
16.03
16.74
17.48
17.99
18.13
17.96
17.66
17.41
17.3
17.24
17.02
16.41
15.23
13.44
11.12
8.47
5.72
3.07
0.69
-1.33
-2.96
-4.22
-5.15
-5.81
-6.32
-6.83
-7.51
-8.47
-9.77
-11.43
-13.4
-15.66
-18.25
-21.17
-24.35
-27.59
-30.46
-32.46
-33.03
-31.83
-28.83
-24.34
-18.95
-13.34
-8.1
-3.51
0.41
3.84
6.95
9.78
12.16
13.85
14.68
14.73
14.35
14.01
14.12
14.83
15.97
17.22
18.27
18.92
19.14
19.02
18.61
17.91
16.92
15.67
14.31
12.98
11.8
10.75
9.67
8.38
6.75
4.74
2.44
-0.0
-2.35
-4.44
-6.2
-7.69
-9.04
-10.39
-11.74
-12.97
-13.91
-14.5
-14.92
-15.57
-16.86
-19.05
-21.98
-25.19
-28.0
-29.74
-29.92
-28.29
-24.88
-19.92
-13.92
-7.51
-1.35
4.04
8.37
11.62
13.92
15.45
16.41
16.95
17.25
17.43
17.54
17.57
17.44
17.14
16.73
16.36
16.18
16.23
16.42
16.6
16.59
16.33
15.8
14.97
13.78
12.17
10.17
7.92
5.67
3.61
1.91
0.56
-0.48
-1.31
-2.04
-2.8
-3.72
-4.91
-6.39
-8.04
-9.64
-10.97
-11.96
-12.64
-13.21
-13.88
-14.89
-16.41
-18.55
-21.25
-24.23
-26.95
-28.68
-28.77
-26.84
-22.99
-17.75
-11.93
-6.34
-1.59
2.0
4.51
6.23
7.56
8.79
10.06
11.3
12.28
12.83
12.91
12.65
12.27
11.92
11.68
11.48
11.27
11.01
10.72
10.39
10.01
9.52
8.87
8.08
7.21
6.34
5.48
4.61
3.68
2.67
1.59
0.48
-0.63
-1.76
-2.91
-4.1
-5.28
-6.43
-7.55
-8.68
-9.84
-11.05
-12.23
-13.29
-14.18
-14.95
-15.71
-16.65
-17.93
-19.6
-21.48
-23.2
-24.26
-24.14
-22.45
-19.05
-14.17
-8.27
-2.04
3.83
8.84
12.7
15.38
16.99
17.7
17.69
17.16
16.3
15.29
14.34
13.59
13.1
12.88
12.89
13.1
13.47
14.01
14.68
15.42
16.13
16.67
16.9
16.68
15.87
14.37
12.24
9.66
6.94
4.44
2.45
1.07
0.23
-0.31
-0.79
-1.44
-2.36
-3.53
-4.83
-6.1
-7.18
-7.96
-8.46
-8.87
-9.47
-10.55
-12.24
-14.4
-16.63
-18.33
-18.91
-17.89
-15.15
-10.9
-5.67
-0.13
5.14
9.68
13.3
15.92
17.51
18.02
17.45
16.0
14.04
12.13
10.76
10.23
10.52
11.38
12.42
13.29
13.76
13.69
13.17
12.37
11.57
10.98
10.66
10.46
10.05
9.16
7.65
5.69
3.53
1.44
-0.51
-2.36
-4.25
-6.21
-8.21
-10.13
-11.87
-13.38
-14.66
-15.76
-16.78
-17.84
-19.07
-20.59
-22.38
-24.33
-26.22
-27.72
-28.51
-28.26
-26.69
-23.7
-19.43
-14.3
-8.85
-3.66
0.91
4.73
7.87
10.44
12.51
14.09
15.18
15.87
16.25
16.4
16.37
16.17
15.82
15.43
15.09
14.85
14.67
14.44
14.05
13.51
12.87
12.19
11.44
10.54
9.43
8.16
6.9
5.85
5.08
4.49
3.84
2.89
1.5
-0.27
-2.23
-4.13
-5.84
-7.29
-8.56
-9.75
-10.97
-12.27
-13.67
-15.11
-16.63
-18.31
-20.3
-22.75
-25.64
-28.74
-31.56
-33.49
-33.94
-32.54
-29.23
-24.27
-18.23
-11.82
-5.69
-0.36
3.9
7.08
9.36
11.0
12.17
12.98
13.46
13.64
13.58
13.39
13.18
13.03
12.92
12.85
12.83
12.95
13.36
14.17
15.37
16.8
18.15
19.07
19.33
18.86
17.74
16.21
14.51
12.85
11.32
9.93
8.57
7.16
5.6
3.87
2.04
0.23
-1.48
-3.07
-4.58
-6.09
-7.6
-9.1
-10.54
-11.97
-13.5
-15.33
-17.61
-20.36
-23.46
-26.71
-29.86
-32.64
-34.72
-35.68
-35.12
-32.74
-28.59
-23.07
-16.87
-10.69
-5.1
-0.36
3.44
6.36
8.46
9.8
10.54
10.86
10.94
10.91
10.82
10.73
10.73
10.88
11.27
11.85
12.49
13.05
13.48
13.86
14.25
14.62
14.8
14.52
13.62
12.17
10.44
8.77
7.42
6.42
5.64
4.89
4.03
3.01
1.85
0.65
-0.47
-1.45
-2.28
-3.04
-3.81
-4.66
-5.57
-6.47
-7.3
-8.13
-9.15
-10.62
-12.74
-15.49
-18.66
-21.85
-24.62
-26.54
-27.22
-26.35
-23.72
-19.42
-13.79
-7.5
-1.27
4.27
8.78
12.23
14.77
16.56
17.72
18.23
18.1
17.46
16.53
15.65
15.1
15.07
15.61
16.61
17.86
19.07
19.94
20.21
19.76
18.63
17.0
15.09
13.1
11.11
9.15
7.18
5.25
3.39
1.67
0.1
-1.42
-2.99
-4.71
-6.58
-8.55
-10.47
-12.24
-13.71
-14.84
-15.62
-16.09
-16.34
-16.56
-17.03
-17.99
-19.6
-21.8
-24.26
-26.35
-27.35
-26.65
-23.98
-19.54
-13.93
-7.93
-2.27
2.65
6.68
9.94
12.54
14.54
15.87
16.5
16.46
15.96
15.28
14.68
14.35
14.31
14.48
14.78
15.15
15.54
15.93
16.24
16.41
16.33
15.91
15.11
13.88
12.2
10.13
7.81
5.41
3.17
1.29
-0.15
-1.2
-2.0
-2.74
-3.59
-4.67
-5.99
-7.49
-9.06
-10.61
-12.04
-13.3
-14.38
-15.37
-16.39
-17.68
-19.46
-21.93
-25.06
-28.53
-31.7
-33.77
-33.98
-31.89
-27.52
-21.36
-14.28
-7.19
-0.89
4.13
7.79
10.29
12.01
13.31
14.39
15.26
15.83
16.07
16.1
16.1
16.28
16.66
17.16
17.62
17.98
18.35
18.83
19.41
19.86
19.86
19.15
17.77
15.99
14.19
12.59
11.16
9.7
8.02
6.08
4.05
2.17
0.6
-0.65
-1.65
-2.54
-3.4
-4.3
-5.29
-6.41
-7.68
-9.11
-10.64
-12.23
-13.86
-15.6
-17.55
-19.81
-22.48
-25.52
-28.76
-31.8
-34.06
-34.86
-33.69
-30.31
-24.91
-18.09
-10.68
-3.51
2.73
7.62
11.02
13.04
13.99
14.25
14.22
14.18
14.26
14.44
14.63
14.76
14.84
14.89
14.93
14.91
14.79
14.55
14.25
13.97
13.74
13.48
13.0
12.14
10.83
9.12
7.21
5.32
3.58
2.05
0.7
-0.53
-1.69
-2.83
-3.96
-5.16
-6.44
-7.88
-9.47
-11.18
-12.95
-14.65
-16.14
-17.33
-18.23
-19.0
-19.87
-21.11
-22.93
-25.43
-28.46
-31.61
-34.25
-35.66
-35.24
-32.7
-28.18
-22.25
-15.68
-9.24
-3.48
1.34
5.21
8.24
10.55
12.2
13.23
13.72
13.81
13.66
13.42
13.21
13.12
13.12
13.19
13.3
13.43
13.6
13.85
14.2
14.61
14.99
15.15
14.95
14.26
13.11
11.64
10.02
8.42
6.96
5.74
4.78
4.14
3.74
3.43
2.92
1.93
0.29
-1.87
-4.16
-6.11
-7.36
-7.86
-7.87
-7.82
-8.12
-9.04
-10.67
-12.97
-15.79
-18.81
-21.52
-23.33
-23.63
-22.07
-18.65
-13.69
-7.78
-1.53
4.48
9.79
14.09
17.18
19.06
19.89
19.99
19.67
19.17
18.63
18.11
17.7
17.5
17.58
17.91
18.35
18.7
18.86
18.84
18.75
18.67
18.58
18.32
17.65
16.38
14.42
11.86
8.92
5.93
3.23
1.03
-0.6
-1.85
-3.01
-4.36
-6.04
-8.0
-10.01
-11.84
-13.36
-14.56
-15.55
-16.47
-17.44
-18.61
-20.14
-22.12
-24.55
-27.19
-29.54
-30.96
-30.77
-28.58
-24.39
-18.56
-11.82
-4.94
1.37
6.66
10.76
13.7
15.65
16.78
17.21
17.04
16.41
15.47
14.47
13.7
13.32
13.4
13.82
14.38
14.85
15.09
15.11
14.99
14.85
14.79
14.79
14.77
14.61
14.14
13.25
11.9
10.08
7.87
5.43
2.95
0.63
-1.39
-3.04
-4.37
-5.48
-6.52
-7.62
-8.86
-10.18
-11.53
-12.78
-13.89
-14.88
-15.89
-17.14
-18.84
-21.06
-23.67
-26.31
-28.41
-29.38
-28.71
-26.12
-21.74
-15.97
-9.46
-2.98
2.83
7.54
10.94
13.08
14.16
14.43
14.2
13.75
13.3
13.03
13.05
13.39
14.03
14.9
15.92
17.01
18.05
18.93
19.58
19.93
19.88
19.4
18.48
17.12
15.44
13.55
11.58
9.64
7.69
5.7
3.63
1.51
-0.58
-2.53
-4.31
-5.93
-7.52
-9.16
-10.81
-12.38
-13.76
-14.87
-15.81
-16.73
-17.85
-19.28
-21.05
-23.12
-25.45
-27.93
-30.38
-32.43
-33.58
-33.29
-31.17
-27.18
-21.64
-15.19
-8.59
-2.5
2.65
6.71
9.74
11.98
13.62
14.84
15.7
16.18
16.26
15.99
15.51
15.06
14.8
14.81
15.04
15.32
15.53
15.56
15.43
15.19
14.83
14.3
13.55
12.52
11.24
9.8
8.25
6.61
4.81
2.79
0.51
-1.92
-4.26
-6.18
-7.42
-7.85
-7.63
-7.09
-6.71
-6.83
-7.59
-8.86
-10.35
-11.74
-12.9
-13.87
-14.81
-15.98
-17.55
-19.65
-22.29
-25.3
-28.33
-30.81
-32.04
-31.4
-28.56
-23.67
-17.24
-10.1
-3.04
3.3
8.57
12.64
15.57
17.5
18.58
18.99
18.91
18.57
18.22
18.1
18.42
19.27
20.54
21.97
23.24
24.06
24.31
24.04
23.43
22.64
21.73
20.61
19.16
17.3
15.04
12.56
10.06
7.73
5.67
3.85
2.19
0.61
-0.97
-2.52
-3.96
-5.18
-6.09
-6.71
-7.19
-7.79
-8.77
-10.28
-12.35
-14.92
-17.84
-20.93
-23.92
-26.45
-28.07
-28.27
-26.73
-23.36
-18.39
-12.33
-5.86
0.38
5.87
10.3
13.57
15.79
17.14
17.86
18.14
18.09
17.74
17.13
16.31
15.39
14.53
13.86
13.41
13.15
13.0
12.91
12.84
12.73
12.47
11.96
11.06
9.76
8.08
6.14
4.03
1.84
-0.39
-2.57
-4.52
-6.06
-7.04
-7.5
-7.6
-7.59
-7.68
-8.01
-8.6
-9.45
-10.49
-11.65
-12.83
-14.01
-15.3
-16.91
-19.06
-21.82
-24.92
-27.86
-29.99
-30.77
-29.89
-27.31
-23.18
-17.74
-11.38
-4.64
1.77
7.23
11.26
13.82
15.16
15.75
16.03
16.21
16.35
16.35
16.13
15.7
15.18
14.79
14.72
15.09
15.86
16.81
17.62
18.02
17.89
17.25
16.23
14.95
13.47
11.84
10.11
8.34
6.64
5.06
3.63
2.31
1.08
-0.04
-1.09
-2.11
-3.25
-4.6
-6.18
-7.92
-9.65
-11.28
-12.78
-14.28
-15.96
-17.95
-20.3
-22.94
-25.74
-28.51
-31.03
-32.99
-34.02
-33.74
-31.84
-28.21
-23.0
-16.62
-9.73
-3.0
3.0
7.93
11.68
14.3
15.94
16.74
16.91
16.63
16.12
15.54
15.0
14.51
14.06
13.7
13.56
13.82
14.59
15.79
17.14
18.26
18.76
18.48
17.46
15.92
14.12
12.26
10.4
8.47
6.41
4.17
1.76
-0.75
-3.24
-5.58
-7.63
-9.29
-10.54
-11.47
-12.28
-13.19
-14.38
-15.85
-17.47
-19.05
-20.49
-21.88
-23.41
-25.3
-27.64
-30.28
-32.85
-34.87
-35.86
-35.42
-33.4
-29.8
-24.82
-18.84
-12.36
-5.92
-0.08
4.81
8.61
11.4
13.34
14.6
15.26
15.37
14.99
14.32
13.66
13.34
13.56
14.32
15.44
16.61
17.6
18.29
18.68
18.8
18.63
18.12
17.23
15.95
14.45
12.91
11.5
10.32
9.39
8.62
7.87
7.03
5.97
4.61
2.91
1.0
-0.93
-2.65
-3.98
-4.91
-5.59
-6.25
-7.17
-8.58
-10.58
-13.12
-15.94
-18.56
-20.44
-21.01
-19.93
-17.15
-12.88
-7.58
-1.81
3.81
8.7
12.43
14.76
15.78
15.8
15.26
14.51
13.73
12.97
12.22
11.6
11.29
11.51
12.31
13.49
14.73
15.73
16.33
16.6
16.67
16.6
16.3
15.54
14.13
12.0
9.3
6.3
3.28
0.45
-2.06
-4.26
-6.21
-8.01
-9.73
-11.4
-13.0
-14.46
-15.68
-16.57
-17.07
-17.28
-17.36
-17.65
-18.54
-20.32
-23.05
-26.41
-29.77
-32.3
-33.31
-32.39
-29.48
-24.86
-19.01
-12.44
-5.68
0.75
6.37
10.78
13.85
15.69
16.66
17.19
17.59
18.02
18.42
18.7
18.78
18.67
18.43
18.1
17.65
17.06
16.37
15.61
14.92
14.42
14.08
13.83
13.49
12.9
11.92
10.53
8.79
6.79
4.68
2.6
0.64
-1.2
-2.91
-4.49
-5.96
-7.34
-8.7
-10.15
-11.8
-13.71
-15.82
-18.04
-20.24
-22.35
-24.42
-26.53
-28.79
-31.23
-33.72
-35.96
-37.41
-37.47
-35.65
-31.73
-25.91
-18.8
-11.15
-3.72
2.99
8.69
13.29
16.71
18.94
20.06
20.24
19.82
19.18
18.6
18.24
18.1
18.13
18.3
18.56
18.88
19.18
19.4
19.54
19.59
19.52
19.23
18.53
17.25
15.4
13.19
11.03
9.22
7.91
6.94
5.96
4.62
2.76
0.43
-2.11
-4.6
-6.85
-8.8
-10.51
-12.07
-13.57
-15.09
-16.63
-18.21
-19.76
-21.24
-22.61
-23.95
-25.41
-27.16
-29.27
-31.63
-33.92
-35.64
-36.24
-35.24
-32.4
-27.84
-22.02
-15.59
-9.28
-3.61
1.14
4.98
8.05
10.46
12.29
13.54
14.26
14.62
14.85
15.2
15.78
16.57
17.46
18.31
19.02
19.47
19.61
19.36
18.71
17.7
16.43
15.01
13.49
11.89
10.16
8.31
6.43
4.63
3.03
1.66
0.54
-0.36
-1.04
-1.49
-1.74
-1.89
-2.05
-2.36
-2.87
-3.54
-4.31
-5.1
-5.88
-6.71
-7.71
-9.02
-10.76
-12.96
-15.46
-17.83
-19.52
-19.87
-18.48
-15.27
-10.57
-5.0
0.82
6.34
11.27
15.44
18.84
21.39
23.05
23.79
23.67
22.88
21.68
20.35
19.11
18.11
17.42
17.03
16.88
16.89
17.01
17.15
17.24
17.11
16.55
15.36
13.49
11.04
8.28
5.52
3.02
0.86
-0.96
-2.51
-3.87
-5.1
-6.29
-7.55
-8.93
-10.35
-11.62
-12.52
-12.94
-13.05
-13.23
-13.9
-15.37
-17.73
-20.79
-24.18
-27.44
-30.01
-31.32
-30.86
-28.4
-24.01
-18.19
-11.63
-5.08
0.91
5.98
10.01
13.04
15.11
16.33
16.8
16.64
16.05
15.21
14.38
13.76
13.49
13.55
13.83
14.15
14.41
14.61
14.82
15.09
15.35
15.46
15.26
14.67
13.72
12.51
11.11
9.5
7.64
5.46
3.05
0.59
-1.63
-3.41
-4.64
-5.36
-5.8
-6.18
-6.78
-7.77
-9.2
-11.0
-13.02
-15.11
-17.23
-19.45
-21.91
-24.74
-27.87
-31.0
-33.62
-35.13
-35.0
-32.92
-28.87
-23.16
-16.38
-9.28
-2.64
2.95
7.23
10.28
12.39
13.88
14.97
15.68
16.0
15.96
15.68
15.39
15.2
15.11
14.99
14.69
14.2
13.61
13.1
12.72
12.38
11.92
11.21
10.23
9.07
7.86
6.62
5.34
3.95
2.46
0.95
-0.46
-1.69
-2.78
-3.83
-4.93
-6.12
-7.43
-8.83
-10.35
-12.03
-13.82
-15.63
-17.3
-18.74
-19.92
-20.96
-22.0
-23.22
-24.74
-26.58
-28.68
-30.75
-32.34
-32.86
-31.78
-28.8
-23.99
-17.81
-10.94
-4.15
1.93
6.91
10.62
13.17
14.84
15.94
16.75
17.39
17.79
17.88
17.63
17.15
