0
-15.34
-15.21
-14.73
-14.15
-13.79
-13.81
-14.18
-14.62
-14.8
-14.43
-13.32
-11.45
-8.95
-5.99
-2.78
0.46
3.61
6.61
9.5
12.31
15.05
17.7
20.23
22.65
24.99
27.23
29.34
31.2
32.7
33.8
34.57
35.08
35.34
35.25
34.63
33.33
31.33
28.76
25.82
22.69
19.52
16.4
13.51
11.03
9.08
7.64
6.52
5.46
4.29
2.95
1.53
0.11
-1.27
-2.75
-4.47
-6.52
-8.81
-11.13
-13.15
-14.59
-15.25
-15.06
-14.14
-12.66
-10.87
-8.98
-7.08
-5.19
-3.25
-1.27
0.64
2.3
3.52
4.18
4.32
4.1
3.73
3.41
3.26
3.31
3.47
3.63
3.62
3.28
2.48
1.14
-0.66
-2.75
-4.84
-6.61
-7.73
-8.11
-7.79
-7.02
-6.16
-5.53
-5.3
-5.47
-5.96
-6.65
-7.5
-8.57
-9.97
-11.72
-13.81
-16.05
-18.27
-20.38
-22.33
-24.09
-25.52
-26.31
-26.01
-24.32
-21.26
-17.28
-13.06
-9.25
-6.24
-4.05
-2.51
-1.39
-0.64
-0.29
-0.42
-0.95
-1.68
-2.3
-2.6
-2.5
-2.06
-1.48
-0.99
-0.77
-0.93
-1.46
-2.26
-3.15
-4.04
-4.91
-5.84
-6.89
-8.05
-9.22
-10.24
-10.99
-11.49
-11.84
-12.18
-12.59
-13.08
-13.62
-14.17
-14.78
-15.49
-16.38
-17.51
-18.98
-20.93
-23.4
-26.31
-29.34
-31.97
-33.65
-33.98
-32.82
-30.26
-26.57
-22.03
-16.93
-11.54
-6.17
-1.15
3.28
7.01
10.11
12.67
14.8
16.5
17.78
18.71
19.53
20.46
21.67
23.14
24.67
26.03
27.07
27.74
28.1
28.21
28.09
27.73
27.17
26.48
25.82
25.28
24.88
24.58
24.31
24.05
23.76
23.43
23.01
22.4
21.49
20.21
18.55
16.56
14.33
11.95
9.49
7.02
4.66
2.64
1.3
1.02
2.08
4.49
8.03
12.2
16.44
20.28
23.41
25.74
27.3
28.12
28.25
27.68
26.46
24.7
22.59
20.34
18.19
16.34
14.91
13.94
13.35
12.91
12.29
11.23
9.51
7.13
4.3
1.3
-1.57
-4.13
-6.37
-8.35
-10.25
-12.22
-14.37
-16.71
-19.15
-21.59
-23.91
-26.05
-28.02
-29.93
-31.9
-34.01
-36.26
-38.47
-40.29
-41.23
-40.81
-38.63
-34.57
-28.83
-21.93
-14.57
-7.44
-1.07
4.28
8.56
11.84
14.22
15.78
16.57
16.67
16.24
15.51
14.68
13.91
13.22
12.54
11.77
10.88
9.84
8.68
7.36
5.82
3.91
1.56
-1.23
-4.3
-7.43
-10.35
-12.95
-15.19
-17.14
-18.91
-20.57
-22.1
-23.44
-24.5
-25.2
-25.51
-25.48
-25.24
-24.98
-24.97
-25.48
-26.64
-28.37
-30.21
-31.45
-31.27
-29.03
-24.52
-18.06
-10.34
-2.2
5.55
12.35
17.85
21.92
24.6
26.08
26.72
26.87
26.87
26.89
26.95
26.99
26.92
26.73
26.42
26.03
25.59
25.14
24.68
24.23
23.76
23.26
22.67
21.98
21.19
20.33
19.37
18.23
16.9
15.48
14.17
13.2
12.73
12.66
12.76
12.69
12.15
10.98
9.11
6.57
3.59
0.6
-1.78
-2.82
-2.02
0.74
5.06
10.2
15.31
19.76
23.13
25.3
26.29
26.23
25.33
23.85
22.13
20.46
19.06
18.02
17.32
16.85
16.43
15.84
14.88
13.44
11.59
9.52
7.47
5.57
3.78
1.97
0.05
-1.99
-3.98
-5.81
-7.4
-8.87
-10.38
-12.03
-13.81
-15.65
-17.46
-19.29
-21.27
-23.51
-26.04
-28.75
-31.39
-33.62
-35.11
-35.44
-34.24
-31.31
-26.72
-20.92
-14.62
-8.56
-3.28
0.97
4.27
6.78
8.61
9.77
10.27
10.17
9.71
9.18
8.85
8.8
8.93
9.03
8.87
8.4
7.69
6.98
6.47
6.21
6.03
5.62
4.68
3.16
1.2
-0.84
-2.6
-3.9
-4.82
-5.59
-6.52
-7.81
-9.48
-11.46
-13.66
-16.05
-18.7
-21.65
-24.88
-28.24
-31.48
-34.42
-36.94
-39.0
-40.59
-41.55
-41.61
-40.39
-37.64
-33.35
-27.85
-21.72
-15.62
-10.07
-5.35
-1.46
1.76
4.46
6.72
8.46
9.5
9.75
9.31
8.55
7.95
7.97
8.78
10.31
12.21
14.15
15.88
17.36
18.56
19.44
19.87
19.75
19.1
18.06
16.92
15.94
15.24
14.77
14.34
13.77
12.9
11.67
10.1
8.32
6.55
5.03
4.01
3.6
3.78
4.31
4.84
4.96
4.36
2.97
1.05
-0.81
-1.88
-1.54
0.45
3.87
8.2
12.8
17.21
21.11
24.4
26.94
28.62
29.36
29.19
28.34
27.11
25.83
24.67
23.69
22.82
21.97
21.07
20.04
18.8
17.3
15.53
13.56
11.52
9.48
7.49
5.57
3.73
2.09
0.75
-0.27
-1.05
-1.79
-2.73
-3.99
-5.55
-7.29
-9.13
-11.14
-13.46
-16.25
-19.53
-23.14
-26.71
-29.82
-32.05
-33.08
-32.73
-31.03
-28.16
-24.4
-20.08
-15.51
-10.94
-6.61
-2.78
0.25
2.31
3.35
3.55
3.26
2.85
2.59
2.55
2.65
2.74
2.73
2.59
2.39
2.18
2.05
1.98
1.91
1.71
1.24
0.44
-0.7
-2.04
-3.45
-4.79
-6.02
-7.17
-8.3
-9.43
-10.51
-11.47
-12.3
-13.02
-13.75
-14.61
-15.66
-16.87
-18.18
-19.55
-21.0
-22.54
-24.04
-25.3
-25.93
-25.58
-24.04
-21.33
-17.71
-13.58
-9.34
-5.32
-1.73
1.31
3.8
5.72
7.09
7.92
8.21
7.97
7.23
6.17
5.01
3.99
3.27
2.87
2.68
2.57
2.43
2.22
1.9
1.4
0.62
-0.54
-2.11
-4.01
-6.01
-7.91
-9.55
-10.89
-11.97
-12.99
-14.11
-15.49
-17.15
-18.98
-20.78
-22.31
-23.38
-23.99
-24.28
-24.53
-24.98
-25.83
-27.09
-28.65
-30.26
-31.57
-32.12
-31.47
-29.29
-25.54
-20.49
-14.67
-8.7
-3.1
1.8
5.93
9.37
12.25
14.69
16.79
18.64
20.32
21.87
23.26
24.44
25.34
25.94
26.23
26.2
25.81
25.05
24.02
22.95
22.12
21.7
21.71
21.86
21.8
21.3
20.31
19.02
17.71
16.61
15.81
15.3
14.95
14.67
14.37
13.97
13.45
12.78
11.93
10.87
9.56
8.02
6.4
5.02
4.32
4.71
6.38
9.16
12.56
15.98
18.94
21.25
22.98
24.32
25.42
26.33
26.91
27.01
26.57
25.66
24.48
23.25
22.15
21.2
20.3
19.29
18.02
16.47
14.72
12.9
11.11
9.41
7.74
6.0
4.13
2.1
0.03
-1.96
-3.72
-5.15
-6.22
-7.01
-7.65
-8.3
-9.09
-10.1
-11.36
-12.82
-14.34
-15.7
-16.67
-17.03
-16.7
-15.73
-14.33
-12.77
-11.26
-9.94
-8.76
-7.64
-6.51
-5.37
-4.32
-3.46
-2.87
-2.51
-2.26
-1.99
-1.62
-1.2
-0.83
-0.63
-0.68
-0.95
-1.36
-1.8
-2.17
-2.45
-2.63
-2.76
-2.94
-3.25
-3.73
-4.42
-5.26
-6.16
-7.06
-7.94
-8.81
-9.74
-10.76
-11.89
-13.16
-14.57
-16.13
-17.75
-19.34
-20.73
-21.76
-22.26
-22.09
-21.19
-19.58
-17.43
-15.04
-12.71
-10.7
-9.07
-7.69
-6.4
-5.09
-3.81
-2.75
-2.03
-1.67
-1.5
-1.35
-1.14
-0.99
-1.06
-1.45
-2.04
-2.63
-3.02
-3.16
-3.25
-3.6
-4.45
-5.87
-7.77
-9.94
-12.15
-14.16
-15.77
-16.84
-17.29
-17.23
-16.88
-16.54
-16.35
-16.34
-16.34
-16.21
-15.9
-15.52
-15.19
-15.01
-14.92
-14.77
-14.44
-13.92
-13.28
-12.56
-11.69
-10.47
-8.72
-6.32
-3.36
-0.11
3.14
6.22
9.06
11.68
14.12
16.38
18.41
20.11
21.42
22.37
23.03
23.42
23.57
23.44
22.96
22.19
21.24
20.32
19.61
19.17
18.92
18.75
18.59
18.44
18.38
18.47
18.72
19.04
19.32
19.5
19.62
19.73
19.87
20.02
20.08
19.9
19.39
18.5
17.26
15.73
14.0
12.15
10.28
8.49
6.9
5.64
4.87
4.64
4.93
5.54
6.26
6.84
7.13
7.1
6.85
6.46
5.99
5.42
4.68
3.78
2.78
1.79
0.92
0.19
-0.46
-1.1
-1.74
-2.34
-2.84
-3.23
-3.57
-4.02
-4.65
-5.42
-6.2
-6.88
-7.41
-7.92
-8.6
-9.61
-10.99
-12.64
-14.31
-15.8
-16.89
-17.49
-17.62
-17.5
-17.38
-17.59
-18.38
-19.8
-21.73
-23.84
-25.75
-27.08
-27.52
-26.87
-25.14
-22.56
-19.52
-16.52
-13.9
-11.83
-10.2
-8.77
-7.28
-5.6
-3.75
-1.87
-0.14
1.34
2.5
3.29
3.74
3.91
3.89
3.77
3.65
3.53
3.37
3.14
2.81
2.36
1.79
1.04
0.05
-1.21
-2.73
-4.44
-6.22
-8.02
-9.88
-11.92
-14.25
-16.86
-19.59
-22.17
-24.41
-26.27
-27.88
-29.44
-31.06
-32.74
-34.41
-36.0
-37.53
-38.98
-40.26
-41.12
-41.22
-40.3
-38.3
-35.41
-31.92
-28.17
-24.33
-20.47
-16.63
-12.83
-9.16
-5.7
-2.49
0.49
3.34
6.11
8.84
11.48
13.88
15.9
17.39
18.32
18.79
18.98
19.13
19.33
19.49
19.42
18.92
17.93
16.64
15.37
14.47
14.15
14.41
15.07
15.87
16.55
16.93
16.97
16.73
16.37
16.08
15.98
16.07
16.15
15.99
15.39
14.32
12.97
11.64
10.62
10.1
10.22
11.03
12.59
14.81
17.49
20.18
22.42
23.85
24.33
24.05
23.29
22.37
21.44
20.53
19.68
18.95
18.42
18.12
17.96
17.75
17.27
16.37
15.07
13.49
11.77
10.04
8.36
6.7
5.05
3.38
1.63
-0.24
-2.26
-4.46
-6.8
-9.22
-11.64
-14.02
-16.35
-18.63
-20.87
-23.12
-25.39
-27.67
-29.9
-31.88
-33.33
-33.84
-33.06
-30.84
-27.27
-22.73
-17.76
-12.88
-8.46
-4.67
-1.5
1.11
3.27
5.03
6.43
7.53
8.38
9.11
9.85
10.69
11.67
12.68
13.54
14.02
14.01
13.51
12.65
11.54
10.22
8.65
6.76
4.6
2.36
0.33
-1.29
-2.47
-3.4
-4.35
-5.54
-7.0
-8.67
-10.4
-12.09
-13.76
-15.51
-17.53
-19.98
-23.02
-26.68
-30.89
-35.34
-39.59
-43.02
-45.03
-45.19
-43.38
-39.79
-34.91
-29.31
-23.53
-17.97
-12.84
-8.21
-4.07
-0.41
2.76
5.43
7.59
9.27
10.57
11.61
12.53
13.44
14.49
15.79
17.45
19.5
21.87
24.34
26.6
28.34
29.4
29.83
29.8
29.57
29.39
29.38
29.61
30.06
30.62
31.1
31.23
30.76
29.55
27.71
25.51
23.33
21.44
19.97
18.91
18.14
17.5
16.81
15.92
14.78
13.54
12.6
12.5
13.7
16.33
20.08
24.29
28.18
31.13
32.86
33.4
33.01
31.97
30.54
28.87
27.05
25.13
23.17
21.26
19.55
18.15
17.12
16.32
15.48
14.3
12.61
10.47
8.13
5.86
3.84
2.02
0.25
-1.64
-3.66
-5.7
-7.59
-9.25
-10.7
-12.11
-13.64
-15.43
-17.51
-19.78
-22.11
-24.34
-26.33
-28.0
-29.23
-29.87
-29.7
-28.45
-25.94
-22.18
-17.48
-12.41
-7.6
-3.56
-0.5
1.68
3.2
4.23
4.84
4.98
4.67
4.02
3.31
2.83
2.77
3.12
3.74
4.42
5.0
5.4
5.55
5.36
4.71
3.44
1.48
-1.17
-4.35
-7.8
-11.21
-14.23
-16.66
-18.42
-19.6
-20.43
-21.14
-21.82
-22.42
-22.84
-23.1
-23.34
-23.88
-25.05
-27.02
-29.66
-32.61
-35.34
-37.34
-38.19
-37.61
-35.46
-31.79
-26.9
-21.28
-15.49
-10.03
-5.17
-0.97
2.66
5.8
8.39
10.35
11.62
12.36
12.88
13.56
14.64
16.1
17.71
19.15
20.17
20.73
20.93
20.94
20.97
21.08
21.27
21.4
21.33
20.88
20.0
18.84
17.59
16.52
15.76
15.32
15.14
15.08
15.11
15.17
15.22
15.2
14.99
14.47
13.58
12.35
10.94
9.59
8.65
8.41
9.05
10.47
12.31
14.1
15.43
16.09
16.15
15.86
15.43
14.9
14.3
13.67
13.15
12.92
13.1
13.61
14.14
14.37
14.09
13.32
12.21
10.91
9.47
7.85
5.96
3.82
1.54
-0.72
-2.88
-4.92
-6.89
-8.84
-10.75
-12.49
-13.95
-15.09
-15.99
-16.81
-17.84
-19.26
-21.2
-23.61
-26.29
-28.96
-31.25
-32.79
-33.33
-32.73
-31.04
-28.46
-25.3
-21.88
-18.53
-15.47
-12.84
-10.65
-8.8
-7.15
-5.57
-3.96
-2.37
-0.89
0.44
1.63
2.76
3.9
5.09
6.21
7.11
7.66
7.83
7.69
7.32
6.76
5.99
4.94
3.6
2.02
0.35
-1.28
-2.81
-4.25
-5.67
-7.1
-8.6
-10.15
-11.77
-13.48
-15.35
-17.41
-19.68
-22.09
-24.52
-26.85
-28.93
-30.67
-31.99
-32.78
-32.9
-32.22
-30.69
-28.37
-25.53
-22.53
-19.71
-17.22
-15.01
-12.91
-10.77
-8.66
-6.84
-5.58
-5.01
-4.93
-4.98
-4.71
-3.89
-2.53
-0.83
0.96
2.67
4.23
5.64
6.94
8.05
8.89
9.42
9.66
9.72
9.7
9.66
9.58
9.35
8.84
8.03
6.92
5.55
4.01
2.36
0.65
-1.03
-2.53
-3.75
-4.61
-5.2
-5.76
-6.59
-7.93
-9.84
-12.12
-14.32
-15.9
-16.36
-15.35
-12.85
-9.05
-4.4
0.57
5.4
9.74
13.48
16.67
19.45
21.93
24.14
26.0
27.46
28.48
29.17
29.66
30.15
30.72
31.33
31.89
32.26
32.32
31.98
31.23
30.1
28.65
27.02
25.37
23.85
22.54
21.46
20.53
19.64
18.69
17.64
16.47
15.21
13.83
12.28
10.44
8.26
5.68
2.69
-0.76
-4.6
-8.73
-12.88
-16.6
-19.32
-20.54
-20.11
-18.23
-15.43
-12.36
-9.5
-6.98
-4.67
-2.44
-0.25
1.71
3.13
3.81
3.82
3.47
3.19
3.22
3.58
4.04
4.36
4.42
4.29
4.18
4.25
4.52
4.8
4.84
4.44
3.51
2.11
0.35
-1.56
-3.45
-5.18
-6.64
-7.74
-8.48
-8.92
-9.14
-9.25
-9.35
-9.54
-9.86
-10.35
-11.05
-12.04
-13.44
-15.35
-17.79
-20.66
-23.59
-26.09
-27.6
-27.66
-26.08
-22.97
-18.73
-13.91
-9.04
-4.59
-0.82
2.18
4.44
6.1
7.33
8.29
9.11
9.83
10.43
10.85
11.01
10.92
10.57
10.04
9.34
8.5
7.55
6.51
5.44
4.42
3.49
2.66
1.87
1.11
0.31
-0.51
-1.37
-2.25
-3.14
-4.05
-4.96
-5.85
-6.72
-7.57
-8.42
-9.32
-10.3
-11.37
-12.51
-13.68
-14.86
-16.01
-17.17
-18.36
-19.66
-21.08
-22.61
-24.07
-25.2
-25.68
-25.19
-23.54
-20.71
-16.87
-12.41
-7.76
-3.37
0.47
3.69
6.36
8.65
10.65
12.36
13.69
14.56
15.01
15.17
15.26
15.44
15.79
16.32
16.97
17.68
18.39
19.05
19.56
19.82
19.72
19.19
18.2
16.76
14.98
13.04
11.18
9.64
8.56
7.95
7.7
7.65
7.68
7.79
8.06
8.52
9.13
9.79
10.43
11.03
11.58
12.05
12.26
11.9
10.73
8.77
6.35
4.06
2.51
2.09
2.84
4.49
6.66
8.96
11.13
13.08
14.76
16.15
17.21
17.87
18.07
17.82
17.26
16.57
15.95
15.53
15.24
14.93
14.44
13.68
12.68
11.5
10.23
8.88
7.43
5.84
4.05
2.09
-0.06
-2.32
-4.57
-6.61
-8.21
-9.24
-9.74
-9.88
-9.92
-9.98
-10.07
-10.15
-10.2
-10.29
-10.63
-11.38
-12.61
-14.29
-16.38
-18.83
-21.61
-24.63
-27.66
-30.25
-31.88
-32.15
-30.91
-28.35
-24.91
-21.1
-17.29
-13.65
-10.2
-6.88
-3.77
-1.03
1.1
2.47
3.16
3.43
3.61
3.92
4.38
4.8
5.03
5.0
4.79
4.53
4.26
3.86
3.13
1.88
0.08
-2.13
-4.54
-6.98
-9.33
-11.57
-13.65
-15.54
-17.08
-18.23
-19.0
-19.5
-19.85
-20.15
-20.44
-20.66
-20.7
-20.45
-19.89
-19.06
-18.19
-17.55
-17.42
-17.98
-19.19
-20.89
-22.8
-24.61
-26.0
-26.65
-26.24
-24.54
-21.51
-17.42
-12.77
-8.11
-3.85
-0.18
3.0
5.85
8.53
11.06
13.41
15.46
17.15
18.45
19.35
19.89
20.11
20.11
19.94
19.62
19.15
18.55
17.9
17.3
16.86
16.52
16.18
15.69
15.04
14.42
14.08
14.23
14.95
16.08
17.37
18.59
19.67
20.62
21.5
22.4
23.32
24.19
24.91
25.4
25.62
25.56
25.21
24.52
23.36
21.62
19.28
16.51
13.7
11.36
9.91
9.51
10.0
11.02
12.23
13.41
14.48
15.43
16.13
16.41
16.08
15.14
13.79
12.35
11.08
10.1
9.34
8.59
7.73
6.72
5.63
4.58
3.66
2.89
2.22
1.55
0.76
-0.29
-1.7
-3.47
-5.54
-7.78
-10.05
-12.26
-14.42
-16.52
-18.57
-20.5
-22.26
-23.82
-25.18
-26.4
-27.57
-28.76
-30.02
-31.38
-32.79
-34.07
-34.9
-34.84
-33.55
-30.85
-26.91
-22.18
-17.21
-12.45
-8.12
-4.23
-0.75
2.27
4.71
6.38
7.18
7.2
6.68
5.98
5.31
4.78
4.34
3.85
3.22
2.45
1.63
0.85
0.17
-0.44
-1.07
-1.82
-2.83
-4.2
-6.06
-8.48
-11.46
-14.83
-18.26
-21.39
-23.9
-25.72
-26.99
-28.01
-28.99
-30.04
-31.09
-31.98
-32.52
-32.66
-32.44
-31.95
-31.31
-30.64
-30.11
-29.81
-29.76
-29.79
-29.53
-28.51
-26.34
-22.84
-18.06
-12.27
-5.9
0.59
6.74
12.16
16.64
20.17
22.91
25.13
27.03
28.66
29.98
30.94
31.64
32.31
33.24
34.59
36.3
38.11
39.54
40.21
39.83
38.36
35.95
32.88
29.53
26.2
23.15
20.55
18.45
16.89
15.87
15.37
15.35
15.69
16.22
16.71
17.0
16.99
16.76
16.41
16.07
15.73
15.26
14.41
12.97
10.79
7.92
4.6
1.14
-2.02
-4.46
-5.82
-5.86
-4.6
-2.3
0.54
3.37
5.75
7.42
8.38
8.75
8.65
8.16
7.27
6.07
4.68
3.36
2.32
1.66
1.27
0.93
0.48
-0.11
-0.72
-1.16
-1.31
-1.16
-0.78
-0.26
0.29
0.79
1.14
1.2
0.83
-0.06
-1.46
-3.27
-5.33
-7.44
-9.41
-11.13
-12.54
-13.69
-14.67
-15.62
-16.73
-18.06
-19.67
-21.55
-23.64
-25.88
-28.14
-30.22
-31.88
-32.9
-33.09
-32.36
-30.63
-27.99
-24.5
-20.34
-15.85
-11.39
-7.34
-3.97
-1.38
0.49
1.75
2.53
2.9
2.89
2.58
2.07
1.49
0.92
0.43
-0.01
-0.47
-0.91
-1.33
-1.71
-2.13
-2.73
-3.68
-5.03
-6.65
-8.27
-9.6
-10.54
-11.14
-11.64
-12.25
-13.07
-14.0
-14.92
-15.69
-16.27
-16.68
-17.0
-17.29
-17.61
-18.0
-18.46
-18.98
-19.47
-19.81
-19.97
-19.95
-19.83
-19.67
-19.47
-19.22
-18.86
-18.31
-17.48
-16.13
-13.99
-10.79
-6.47
-1.33
4.09
9.18
13.55
17.16
20.24
23.12
26.01
28.92
31.69
34.18
36.31
38.07
39.54
40.78
41.79
42.57
43.11
43.41
43.51
43.4
43.09
42.53
41.67
40.5
39.08
37.55
36.06
34.72
33.56
32.51
31.44
30.22
28.86
27.37
25.79
24.09
22.17
19.93
17.34
14.53
11.67
8.9
6.21
3.51
0.65
-2.4
-5.59
-8.78
-11.8
-14.47
-16.57
-17.8
-17.91
-16.8
-14.65
-11.95
-9.26
-7.08
-5.57
-4.63
-3.98
-3.41
-2.87
-2.45
-2.27
-2.31
-2.36
-2.2
-1.6
-0.53
0.89
2.4
3.79
4.94
5.84
6.59
7.23
7.72
7.91
7.68
6.93
5.74
4.25
2.67
1.17
-0.2
-1.49
-2.75
-3.97
-5.11
-6.12
-7.03
-8.02
-9.25
-10.85
-12.73
-14.68
-16.4
-17.71
-18.6
-19.25
-19.96
-20.99
-22.49
-24.43
-26.56
-28.49
-29.72
-29.83
-28.55
-25.96
-22.44
-18.54
-14.81
-11.65
-9.18
-7.38
-6.1
-5.23
-4.67
-4.32
-4.08
-3.84
-3.48
-2.98
-2.35
-1.66
-1.02
-0.48
-0.05
0.28
0.54
0.73
0.79
0.6
0.04
-0.9
-2.09
-3.29
-4.24
-4.8
-5.08
-5.32
-5.83
-6.73
-7.99
-9.42
-10.79
-11.96
-12.91
-13.73
-14.44
-15.1
-15.7
-16.18
-16.5
-16.56
-16.29
-15.68
-14.84
-13.97
-13.35
-13.14
-13.37
-13.91
-14.54
-14.99
-15.06
-14.53
-13.24
-11.12
-8.26
-4.92
-1.48
1.7
4.39
6.62
8.53
10.26
11.85
13.27
14.47
15.49
16.48
17.59
18.89
20.33
21.79
23.17
24.42
25.55
26.52
27.29
27.8
28.06
28.17
28.23
28.3
28.35
28.25
27.86
27.15
26.1
24.8
23.29
21.65
19.91
18.15
16.46
14.91
13.51
12.23
11.03
9.81
8.41
6.66
4.39
1.58
-1.64
-4.98
-8.1
-10.74
-12.78
-14.19
-14.98
-15.17
-14.8
-13.94
-12.75
-11.44
-10.17
-9.01
-7.93
-6.93
-6.03
-5.34
-4.91
-4.72
-4.65
-4.53
-4.31
-4.02
-3.72
-3.44
-3.15
-2.77
-2.33
-1.95
-1.87
-2.26
-3.18
-4.55
-6.2
-8.03
-9.96
-11.97
-14.06
-16.15
-18.18
-20.16
-22.08
-23.9
-25.49
-26.71
-27.44
-27.75
-27.83
-27.93
-28.16
-28.5
-28.84
-29.07
-29.15
-29.11
-29.01
-28.86
-28.67
-28.5
-28.51
-28.83
-29.47
-30.23
-30.67
-30.3
-28.74
-25.87
-21.82
-16.96
-11.77
-6.7
-2.09
1.98
5.58
8.94
12.19
15.32
18.11
20.32
21.86
22.88
23.75
24.85
26.35
28.15
29.98
31.58
32.86
33.93
34.98
36.11
37.19
37.96
38.13
37.61
36.52
35.24
34.13
33.41
33.01
32.66
32.04
30.87
29.05
26.68
23.94
20.97
17.89
14.72
11.46
8.05
4.49
0.79
-3.05
-7.03
-11.19
-15.43
-19.51
-22.89
-25.01
-25.29
-23.55
-20.01
-15.33
-10.27
-5.53
-1.52
1.58
3.87
5.49
6.67
7.57
8.33
8.98
9.53
9.94
10.22
10.42
10.55
10.54
10.24
9.57
8.59
7.59
6.88
6.68
6.88
7.13
6.99
6.17
4.72
2.87
0.95
-0.81
-2.34
-3.72
-5.06
-6.46
-8.02
-9.8
-11.83
-14.09
-16.47
-18.88
-21.29
-23.74
-26.36
-29.25
-32.43
-35.77
-39.13
-42.35
-45.28
-47.66
-49.16
-49.36
-47.98
-45.01
-40.8
-35.94
-31.08
-26.67
-22.9
-19.75
-17.12
-14.95
-13.23
-12.0
-11.23
-10.78
-10.42
-9.89
-8.98
-7.58
-5.73
-3.54
-1.16
1.28
3.66
5.87
7.75
9.23
10.29
11.04
11.72
12.52
13.49
14.45
15.17
15.44
15.29
14.88
14.41
13.98
13.54
12.98
12.25
11.43
10.67
10.08
9.61
9.09
8.35
7.22
5.64
3.57
1.04
-1.85
-4.83
-7.36
-8.77
-8.39
-5.87
-1.31
4.78
11.56
18.25
24.26
29.38
33.65
37.27
40.38
43.01
45.09
46.52
47.31
47.6
47.58
47.43
47.28
47.09
46.75
46.19
45.36
44.29
43.01
41.54
39.82
37.82
35.57
33.14
30.69
28.36
26.14
23.94
21.6
19.01
16.14
13.03
9.74
6.31
2.78
-0.85
-4.5
-8.16
-11.82
-15.53
-19.3
-22.96
-26.14
-28.3
-28.93
-27.79
-24.99
-21.05
-16.66
-12.45
-8.86
-5.99
-3.76
-1.98
-0.52
0.69
1.58
2.09
2.23
2.1
1.86
1.73
1.84
2.23
2.81
3.44
4.05
4.62
5.24
5.9
6.55
7.01
7.06
6.57
5.59
4.35
3.12
2.08
1.26
0.52
-0.35
-1.53
-3.1
-4.99
-7.02
-9.0
-10.81
-12.46
-14.03
-15.67
-17.48
-19.42
-21.44
-23.5
-25.68
-28.08
-30.72
-33.42
-35.65
-36.81
-36.44
-34.44
-31.22
-27.42
-23.69
-20.48
-17.9
-15.89
-14.29
-12.96
-11.84
-10.92
-10.14
-9.5
-8.97
-8.54
-8.17
-7.78
-7.31
-6.73
-6.1
-5.48
-4.93
-4.34
-3.52
-2.33
-0.81
0.79
2.09
2.79
2.88
2.57
2.29
2.39
3.04
4.21
5.73
7.38
8.96
10.26
11.14
11.46
11.25
10.61
9.77
8.97
8.38
8.02
7.84
7.69
7.42
6.87
5.95
4.76
3.51
2.6
2.47
3.48
5.73
9.12
13.32
17.89
22.43
26.66
30.39
33.56
36.16
38.2
39.67
40.52
40.73
40.41
39.72
38.92
38.2
37.67
37.25
36.8
36.18
35.33
34.23
32.88
31.23
29.19
26.73
23.94
20.95
17.91
14.83
11.62
8.18
4.5
0.75
-2.81
-5.97
-8.61
-10.8
-12.7
-14.42
-16.03
-17.54
-19.0
-20.44
-21.88
-23.24
-24.3
-24.81
-24.58
-23.64
-22.21
-20.63
-19.16
-17.89
-16.78
-15.68
-14.51
-13.29
-12.11
-11.03
-9.95
-8.7
-7.1
-5.06
-2.78
-0.57
1.21
2.31
2.72
2.57
2.13
1.59
1.03
0.4
-0.41
-1.53
-2.94
-4.63
-6.45
-8.29
-10.04
-11.7
-13.28
-14.76
-16.09
-17.18
-18.0
-18.66
-19.39
-20.43
-21.95
-23.91
-26.1
-28.22
-30.03
-31.45
-32.57
-33.62
-34.81
-36.27
-37.95
-39.63
-41.05
-41.99
-42.32
-42.0
-41.06
-39.59
-37.64
-35.39
-33.05
-30.87
-29.04
-27.57
-26.34
-25.13
-23.73
-22.0
-19.93
-17.55
-14.9
-11.99
-8.86
-5.6
-2.3
0.87
3.79
6.36
8.54
10.37
11.94
13.29
14.47
15.48
16.31
16.99
17.53
17.99
18.42
18.77
18.98
18.98
18.75
18.38
18.03
17.87
17.99
18.35
18.85
19.4
19.88
20.22
20.29
19.98
19.19
17.95
16.43
14.86
13.48
12.41
11.72
11.42
11.59
12.28
13.53
15.21
17.02
18.66
19.9
20.67
21.04
21.11
20.95
20.53
19.87
18.98
17.92
16.78
15.61
14.5
13.52
12.76
12.29
12.05
11.95
11.79
11.48
10.98
10.31
9.49
8.41
6.94
4.99
2.62
0.03
-2.52
-4.87
-6.98
-8.88
-10.65
-12.3
-13.77
-14.99
-15.97
-16.78
-17.54
-18.42
-19.5
-20.85
-22.52
-24.5
-26.72
-28.98
-30.98
-32.35
-32.72
-31.83
-29.63
-26.28
-22.14
-17.66
-13.33
-9.47
-6.29
-3.77
-1.75
-0.03
1.53
3.0
4.36
5.55
6.51
7.23
7.75
8.13
8.41
8.62
8.73
8.72
8.52
8.16
7.67
7.13
6.59
6.09
5.63
5.18
4.74
4.29
3.79
3.17
2.34
1.25
-0.09
-1.53
-2.89
-4.04
-5.01
-5.92
-7.01
-8.42
-10.12
-11.93
-13.63
-15.06
-16.23
-17.26
-18.36
-19.68
-21.28
-23.08
-24.89
-26.39
-27.24
-27.06
-25.73
-23.26
-20.0
-16.39
-12.92
-9.92
-7.5
-5.61
-4.07
-2.68
-1.28
0.23
1.86
3.61
5.37
6.99
8.35
9.36
9.99
10.28
10.28
9.99
9.43
8.57
7.47
6.22
4.96
3.77
2.66
1.57
0.35
-1.06
-2.61
-4.17
-5.5
-6.41
-6.86
-6.95
-6.87
-6.85
-7.05
-7.57
-8.39
-9.46
-10.68
-11.91
-13.0
-13.78
-14.18
-14.16
-13.89
-13.63
-13.73
-14.45
-15.88
-17.82
-19.81
-21.18
-21.24
-19.5
-15.8
-10.37
-3.83
3.04
9.5
15.13
19.8
23.7
27.09
30.12
32.81
35.11
37.01
38.65
40.24
41.94
43.75
45.48
46.89
47.81
48.21
48.18
47.85
47.29
46.53
45.55
44.32
42.78
40.9
38.66
36.1
33.34
30.54
27.8
25.12
22.42
19.63
16.79
14.01
11.38
8.92
6.48
3.82
0.74
-2.84
-6.88
-11.25
-15.79
-20.28
-24.34
-27.5
-29.27
-29.32
-27.63
-24.53
-20.54
-16.2
-11.92
-7.98
-4.55
-1.78
0.24
1.48
2.01
2.01
1.73
1.42
1.29
1.46
1.95
2.74
3.7
4.68
5.61
6.42
7.15
7.83
8.43
8.8
8.75
8.05
6.62
4.55
2.13
-0.26
-2.21
-3.5
-4.14
-4.41
-4.71
-5.44
-6.79
-8.68
-10.87
-13.08
-15.12
-17.02
-18.93
-21.02
-23.41
-26.15
-29.27
-32.75
-36.46
-40.04
-42.96
-44.64
-44.65
-42.95
-39.87
-35.98
-31.88
-28.01
-24.63
-21.83
-19.63
-18.0
-16.8
-15.89
-15.04
-14.06
-12.88
-11.46
-9.86
-8.13
-6.31
-4.46
-2.64
-0.9
0.8
2.53
4.41
6.55
8.9
11.31
13.47
15.11
16.08
16.39
16.25
15.92
15.66
15.58
15.57
15.47
15.06
14.24
13.09
11.79
10.6
9.68
9.07
8.72
8.52
8.36
8.14
7.75
7.15
6.41
5.81
5.76
6.72
8.94
12.34
16.48
20.8
24.76
28.07
30.64
32.55
33.93
34.83
35.24
35.16
34.61
33.61
32.26
30.66
28.96
27.34
25.96
24.95
24.34
24.07
23.97
23.85
23.51
22.75
21.45
19.56
17.11
14.2
10.98
7.59
4.17
0.88
-2.18
-4.92
-7.34
-9.5
-11.55
-13.66
-15.93
-18.39
-20.96
-23.48
-25.74
-27.6
-28.83
-29.22
-28.55
-26.61
-23.41
-19.22
-14.52
-9.87
-5.72
-2.26
0.5
2.72
4.48
5.83
6.7
7.04
6.85
6.2
5.22
4.06
2.83
1.69
0.8
0.28
0.13
0.24
0.35
0.24
-0.29
-1.22
-2.46
-3.81
-5.08
-6.03
-6.52
-6.5
-6.09
-5.55
-5.23
-5.39
-6.16
-7.46
-9.09
-10.79
-12.43
-13.96
-15.45
-17.07
-19.02
-21.47
-24.47
-27.8
-30.98
-33.28
-33.98
-32.66
-29.31
-24.38
-18.58
-12.68
-7.26
-2.63
1.14
4.15
6.57
8.48
9.94
10.95
11.53
11.81
11.95
12.14
12.44
12.85
13.27
13.62
13.86
14.02
14.09
14.05
13.78
13.21
12.29
11.07
9.68
8.23
6.8
5.36
3.88
2.27
0.45
-1.66
-4.08
-6.74
-9.54
-12.32
-15.03
-17.67
-20.34
-23.15
-26.17
-29.43
-32.86
-36.41
-39.96
-43.27
-45.94
-47.55
-47.69
-46.22
-43.36
-39.54
-35.3
-30.99
-26.83
-22.83
-19.05
-15.49
-12.22
-9.24
-6.49
-3.9
-1.4
1.02
3.42
5.9
8.6
11.66
15.03
18.51
21.81
24.64
26.82
28.34
29.25
29.62
29.46
28.78
27.65
26.18
24.55
22.98
21.58
20.4
19.36
18.37
17.32
16.11
14.71
13.17
11.59
10.07
8.76
7.77
7.12
6.74
6.44
6.06
5.51
4.99
4.95
5.92
8.34
12.26
17.27
22.71
27.81
32.04
35.19
37.35
38.7
39.44
39.64
39.3
38.49
37.35
36.12
35.04
34.3
33.91
33.77
33.68
33.37
32.58
31.14
29.0
26.23
23.05
19.65
16.22
12.83
9.47
6.11
2.73
-0.62
-3.84
-6.88
-9.69
-12.31
-14.78
-17.15
-19.42
-21.59
-23.74
-25.95
-28.24
-30.49
-32.36
-33.4
-33.2
-31.6
-28.73
-25.01
-20.92
-16.9
-13.2
-9.93
-7.13
-4.87
-3.2
-2.08
-1.41
-1.01
-0.7
-0.36
0.09
0.66
1.28
1.87
2.26
2.35
2.11
1.58
0.87
0.06
-0.9
-2.12
-3.68
-5.58
-7.68
-9.8
-11.82
-13.74
-15.65
-17.63
-19.69
-21.76
-23.77
-25.74
-27.71
-29.7
-31.72
-33.69
-35.55
-37.35
-39.17
-41.13
-43.22
-45.25
-46.86
-47.62
-47.12
-45.19
-41.89
-37.49
-32.46
-27.22
-22.13
-17.4
-13.05
-9.03
-5.29
-1.83
1.3
4.11
6.65
9.1
11.56
14.04
16.43
18.53
20.23
21.54
22.57
23.48
24.36
25.1
25.56
25.56
25.09
24.21
23.18
22.2
21.46
21.04
20.91
21.0
21.21
21.48
21.82
22.22
22.72
23.22
23.54
23.46
22.84
21.67
20.12
18.5
17.21
16.57
16.78
17.85
19.61
21.77
23.95
25.85
27.23
28.04
28.31
28.18
27.7
26.92
25.82
24.42
22.82
21.18
19.63
18.18
16.74
15.07
13.08
10.74
8.19
5.63
3.13
0.68
-1.79
-4.33
-6.88
-9.3
-11.42
-13.16
-14.49
-15.42
-15.95
-16.15
-16.15
-16.18
-16.53
-17.45
-18.97
-20.92
-23.03
-25.02
-26.67
-27.82
-28.34
-28.03
-26.71
-24.38
-21.22
-17.67
-14.19
-11.16
-8.68
-6.62
-4.71
-2.78
-0.8
1.1
2.66
3.73
4.26
4.35
4.22
4.05
3.94
3.85
3.69
3.36
2.82
2.13
1.34
0.45
-0.59
-1.88
-3.47
-5.24
-6.99
-8.53
-9.79
-10.83
-11.9
-13.18
-14.79
-16.76
-18.99
-21.4
-23.84
-26.19
-28.32
-30.22
-32.0
-33.83
-35.82
-37.93
-39.86
-41.22
-41.64
-40.92
-39.08
-36.25
-32.67
-28.57
-24.25
-20.05
-16.23
-12.98
-10.28
-7.98
-5.84
-3.69
-1.49
0.72
2.86
4.81
6.53
7.98
9.21
10.33
11.48
12.82
14.35
15.97
17.46
18.56
19.14
19.21
18.88
18.33
17.73
17.21
16.88
16.8
17.01
17.4
17.8
17.98
17.81
17.38
16.93
16.74
16.93
17.41
17.89
18.06
17.77
17.04
16.04
14.95
13.89
12.97
12.33
12.17
12.65
13.8
15.47
17.38
19.24
20.91
22.32
23.49
24.39
24.95
25.14
25.01
24.68
