0
-20.59
-24.14
-28.33
-33.1
-38.11
-42.64
-45.63
-45.98
-42.96
-36.54
-27.49
-17.11
-6.84
2.16
9.28
14.29
17.29
18.48
18.11
16.59
14.51
12.6
11.57
11.86
13.5
16.08
18.92
21.33
22.74
22.93
21.96
20.14
17.89
15.55
13.27
10.98
8.47
5.56
2.23
-1.31
-4.72
-7.66
-9.95
-11.65
-13.03
-14.43
-16.18
-18.59
-21.86
-26.02
-30.77
-35.46
-39.09
-40.56
-38.98
-34.06
-26.22
-16.46
-6.15
3.42
11.3
17.04
20.58
22.16
22.16
21.0
19.2
17.28
15.79
15.15
15.6
17.03
19.1
21.24
22.88
23.64
23.35
22.08
20.08
17.62
14.86
11.89
8.7
5.25
1.56
-2.22
-5.84
-9.04
-11.59
-13.48
-14.92
-16.36
-18.29
-21.16
-25.2
-30.3
-36.01
-41.5
-45.75
-47.73
-46.65
-42.21
-34.76
-25.25
-14.97
-5.2
3.17
9.7
14.41
17.47
19.06
19.3
18.41
16.8
15.12
14.13
14.37
15.95
18.49
21.28
23.59
24.94
25.18
24.43
22.91
20.85
18.39
15.64
12.65
9.46
6.09
2.61
-0.86
-4.15
-7.09
-9.59
-11.73
-13.71
-15.86
-18.49
-21.83
-26.0
-30.98
-36.49
-41.94
-46.38
-48.71
-47.95
-43.62
-36.02
-26.14
-15.33
-4.93
4.07
11.21
16.4
19.76
21.48
21.83
21.14
19.91
18.69
17.97
18.06
18.99
20.53
22.29
23.87
24.92
25.23
24.78
23.66
22.04
20.06
17.8
15.3
12.56
9.58
6.44
3.26
0.19
-2.64
-5.16
-7.37
-9.41
-11.46
-13.83
-16.84
-20.74
-25.61
-31.23
-37.01
-42.03
-45.21
-45.56
-42.44
-35.86
-26.56
-15.84
-5.23
3.91
10.81
15.32
17.77
18.74
18.7
17.99
16.83
15.51
14.47
14.15
14.86
16.55
18.82
21.01
22.57
23.19
22.9
21.97
20.66
19.11
17.29
15.08
12.37
9.2
5.76
2.3
-0.9
-3.61
-5.76
-7.39
-8.71
-10.06
-11.82
-14.36
-17.91
-22.49
-27.8
-33.19
-37.73
-40.37
-40.18
-36.68
-30.01
-20.97
-10.82
-0.88
7.8
14.6
19.38
22.23
23.39
23.16
21.89
20.1
18.43
17.45
17.58
18.87
21.02
23.47
25.69
27.22
27.81
27.46
26.26
24.4
22.06
19.35
16.29
12.81
8.92
4.67
0.32
-3.78
-7.32
-10.14
-12.34
-14.25
-16.32
-18.97
-22.52
-27.06
-32.37
-37.91
-42.81
-45.99
-46.44
-43.58
-37.43
-28.72
-18.61
-8.42
0.76
8.22
13.69
17.21
19.01
19.44
18.9
17.86
16.82
16.19
16.31
17.31
19.11
21.4
23.73
25.56
26.45
26.13
24.62
22.2
19.28
16.21
13.2
10.22
7.13
3.82
0.28
-3.39
-6.95
-10.2
-13.0
-15.35
-17.38
-19.33
-21.54
-24.37
-28.15
-32.96
-38.63
-44.5
-49.59
-52.68
-52.69
-48.98
-41.63
-31.49
-19.93
-8.54
1.37
9.03
14.29
17.45
19.02
19.5
19.27
18.65
17.99
17.66
18.03
19.28
21.38
23.97
26.48
28.33
29.13
28.75
27.36
25.28
22.85
20.32
17.8
15.26
12.65
9.94
7.17
4.44
1.87
-0.44
-2.55
-4.57
-6.67
-9.01
-11.75
-14.99
-18.89
-23.58
-29.11
-35.26
-41.41
-46.57
-49.56
-49.4
-45.66
-38.59
-29.11
-18.52
-8.14
0.94
8.14
13.27
16.53
18.26
18.85
18.67
18.05
17.36
16.96
17.14
18.06
19.66
21.69
23.71
25.31
26.08
25.84
24.54
22.34
19.53
16.46
13.45
10.66
8.1
5.63
3.12
0.53
-2.08
-4.56
-6.85
-8.98
-11.08
-13.3
-15.76
-18.53
-21.68
-25.36
-29.66
-34.48
-39.3
-43.17
-44.9
-43.5
-38.53
-30.37
-20.09
-9.18
0.94
9.28
15.35
19.13
20.94
21.22
20.42
19.02
17.49
16.31
15.89
16.49
18.15
20.58
23.24
25.44
26.59
26.36
24.82
22.36
19.55
16.82
14.31
11.82
9.03
5.71
1.95
-1.9
-5.35
-8.03
-9.89
-11.18
-12.4
-14.06
-16.57
-20.21
-24.99
-30.63
-36.44
-41.41
-44.32
-44.2
-40.58
-33.75
-24.61
-14.42
-4.43
4.38
11.44
16.52
19.66
21.08
21.12
20.21
18.85
17.55
16.78
16.92
18.11
20.19
22.71
25.01
26.45
26.65
25.56
23.5
20.92
18.24
15.68
13.21
10.64
7.73
4.32
0.43
-3.69
-7.69
-11.19
-14.0
-16.16
-17.99
-19.96
-22.56
-26.12
-30.75
-36.29
-42.24
-47.74
-51.67
-52.81
-50.26
-43.76
-33.96
-22.21
-10.29
0.23
8.33
13.75
16.8
18.12
18.33
17.92
17.23
16.57
16.27
16.63
17.84
19.84
22.31
24.74
26.54
27.3
26.86
25.38
23.24
20.85
18.52
16.29
13.97
11.31
8.14
4.53
0.81
-2.61
-5.44
-7.6
-9.37
-11.18
-13.47
-16.57
-20.6
-25.51
-31.08
-36.94
-42.48
-46.84
-49.01
-48.07
-43.57
-35.74
-25.5
-14.22
-3.35
5.94
13.04
17.83
20.52
21.51
21.27
20.29
19.11
18.25
18.16
19.07
20.92
23.4
26.02
28.26
29.68
30.07
29.44
28.0
26.03
23.84
21.6
19.33
16.92
14.18
11.0
7.42
3.67
0.08
-3.05
-5.6
-7.73
-9.8
-12.25
-15.45
-19.59
-24.62
-30.32
-36.21
-41.59
-45.55
-47.07
-45.3
-39.93
-31.39
-20.83
-9.83
0.12
8.03
13.56
16.95
18.66
19.19
18.89
18.09
17.14
16.49
16.57
17.6
19.55
22.04
24.48
26.28
26.99
26.47
24.94
22.8
20.5
18.31
16.25
14.15
11.72
8.79
5.4
1.82
-1.61
-4.59
-6.96
-8.8
-10.34
-11.94
-13.96
-16.72
-20.43
-25.06
-30.28
-35.36
-39.25
-40.8
-39.1
-33.85
-25.49
-15.14
-4.27
5.72
13.82
19.55
22.87
24.02
23.36
21.4
18.81
16.34
14.75
14.5
15.69
18.01
20.8
23.34
25.04
25.56
24.91
23.34
21.25
18.99
16.72
14.36
11.73
8.63
5.09
1.34
-2.25
-5.34
-7.85
-9.94
-11.94
-14.24
-17.16
-20.86
-25.36
-30.38
-35.38
-39.44
-41.5
-40.6
-36.29
-28.81
-19.12
-8.59
1.4
9.81
16.13
20.28
22.48
23.04
22.31
20.71
18.76
17.06
16.2
16.5
17.89
19.95
22.02
23.51
24.04
23.58
22.36
20.68
18.79
16.75
14.47
11.77
8.55
4.79
0.67
-3.52
-7.43
-10.8
-13.51
-15.63
-17.43
-19.28
-21.66
-24.96
-29.43
-35.0
-41.09
-46.69
-50.46
-51.18
-48.06
-41.16
-31.32
-19.99
-8.81
0.96
8.56
13.89
17.2
18.94
19.5
19.23
18.43
17.51
16.92
17.05
18.13
20.03
22.32
24.34
25.52
25.59
24.62
22.99
21.13
19.34
17.64
15.88
13.78
11.22
8.19
4.86
1.46
-1.78
-4.7
-7.22
-9.39
-11.39
-13.53
-16.15
-19.56
-23.86
-28.94
-34.43
-39.71
-43.96
-46.25
-45.67
-41.69
-34.32
-24.35
-13.14
-2.26
6.97
13.82
18.18
20.44
21.14
20.79
19.81
18.59
17.54
17.09
17.54
18.97
21.1
23.43
25.36
26.41
26.31
25.08
22.94
20.24
17.29
14.27
11.26
8.24
5.16
2.02
-1.13
-4.17
-6.98
-9.44
-11.5
-13.21
-14.74
-16.41
-18.59
-21.59
-25.61
-30.53
-35.93
-41.06
-44.98
-46.72
-45.55
-41.13
-33.68
-23.95
-13.1
-2.4
7.02
14.37
19.31
21.91
22.52
21.68
19.97
17.97
16.23
15.27
15.43
16.8
19.11
21.78
24.1
25.47
25.6
24.58
22.75
20.45
17.94
15.28
12.42
9.36
6.15
2.92
-0.18
-3.01
-5.49
-7.59
-9.39
-11.09
-12.94
-15.29
-18.41
-22.38
-27.04
-31.91
-36.27
-39.18
-39.73
-37.18
-31.34
-22.62
-12.07
-1.11
8.84
16.79
22.26
25.32
26.38
25.96
24.55
22.64
20.71
19.23
18.6
19.02
20.38
22.34
24.36
25.88
26.51
26.03
24.51
22.21
19.5
16.69
13.99
11.39
8.74
5.87
2.65
-0.84
-4.46
-7.97
-11.21
-14.15
-16.84
-19.4
-22.03
-24.98
-28.54
-32.99
-38.3
-44.02
-49.17
-52.47
-52.68
-49.12
-41.88
-31.85
-20.47
-9.23
0.66
8.52
14.13
17.62
19.27
19.43
18.56
17.16
15.82
15.07
15.26
16.51
18.58
21.06
23.42
25.22
26.19
26.29
25.57
24.14
22.09
19.51
16.5
13.23
9.92
6.76
3.85
1.18
-1.34
-3.78
-6.1
-8.24
-10.1
-11.73
-13.32
-15.19
-17.67
-21.03
-25.34
-30.5
-36.1
-41.46
-45.59
-47.37
-45.87
-40.69
-32.21
-21.6
-10.43
-0.22
8.0
13.85
17.5
19.39
19.99
19.7
18.88
17.9
17.18
17.08
17.79
19.28
21.33
23.51
25.43
26.71
27.11
26.58
25.19
23.12
20.59
17.8
14.88
11.9
8.93
6.03
3.25
0.62
-1.92
-4.43
-6.97
-9.56
-12.12
-14.57
-16.86
-19.06
-21.36
-24.06
-27.49
-31.83
-36.9
-42.03
-46.12
-47.87
-46.21
-40.76
-32.04
-21.33
-10.26
-0.29
7.67
13.36
16.99
18.87
19.31
18.52
16.83
14.77
13.05
12.4
13.26
15.58
18.83
22.18
24.81
26.19
26.19
25.01
23.02
20.57
17.88
15.08
12.22
9.32
6.38
3.43
0.51
-2.32
-4.97
-7.38
-9.53
-11.57
-13.66
-16.02
-18.85
-22.29
-26.38
-30.98
-35.71
-39.83
-42.37
-42.35
-39.14
-32.72
-23.77
-13.48
-3.16
6.06
13.44
18.66
21.66
22.64
21.93
20.08
17.78
15.76
14.65
14.86
16.4
18.97
21.99
24.75
26.61
27.18
26.42
24.61
22.2
19.61
17.09
14.62
12.02
9.1
5.77
2.08
-1.78
-5.54
-8.94
-11.76
-13.97
-15.69
-17.3
-19.31
-22.25
-26.54
-32.23
-39.0
-46.09
-52.35
-56.51
-57.42
-54.45
-47.7
-38.04
-26.94
-16.01
-6.58
0.68
5.76
9.06
11.09
12.24
12.72
12.7
12.42
12.31
12.85
14.37
16.84
19.85
22.79
25.04
26.25
26.34
25.47
23.9
21.81
19.37
16.69
13.83
10.89
7.89
4.85
1.81
-1.19
-4.06
-6.76
-9.25
-11.59
-13.85
-16.12
-18.47
-21.11
-24.33
-28.47
-33.64
-39.5
-45.12
-49.11
-50.14
-47.37
-40.84
-31.42
-20.53
-9.65
0.02
7.85
13.63
17.49
19.71
20.59
20.48
19.79
19.04
18.76
19.43
21.22
23.99
27.21
30.22
32.45
33.61
33.69
32.86
31.29
29.05
26.14
22.62
18.71
14.77
11.09
7.82
4.85
1.99
-0.89
-3.75
-6.44
-8.86
-11.05
-13.25
-15.81
-19.02
-23.06
-27.9
-33.34
-38.93
-43.96
-47.42
-48.2
-45.48
-39.05
-29.57
-18.45
-7.32
2.41
9.93
15.14
18.32
19.86
20.1
19.31
17.88
16.31
15.27
15.31
16.68
19.21
22.38
25.48
27.88
29.14
29.1
27.88
25.78
23.17
20.4
17.63
14.84
11.89
8.64
5.08
1.35
-2.3
-5.61
-8.43
-10.76
-12.69
-14.44
-16.25
-18.48
-21.45
-25.36
-30.07
-35.02
-39.21
-41.5
-40.92
-37.09
-30.3
-21.41
-11.58
-2.0
6.46
13.19
17.94
20.65
21.49
20.8
19.13
17.13
15.51
14.83
15.42
17.27
20.01
23.02
25.64
27.27
27.66
26.84
25.15
23.0
20.67
18.28
15.71
12.78
9.41
5.71
1.95
-1.55
-4.57
-7.03
-9.08
-10.95
-12.91
-15.26
-18.22
-21.94
-26.47
-31.57
-36.69
-40.91
-43.17
-42.48
-38.34
-30.93
-21.19
-10.56
-0.52
7.84
14.03
18.15
20.6
21.8
22.0
21.4
20.27
19.05
18.32
18.56
19.89
22.02
24.33
26.16
27.05
26.87
25.72
23.79
21.31
18.41
15.23
11.89
8.51
5.16
1.82
-1.47
-4.67
-7.64
-10.25
-12.43
-14.27
-16.04
-18.04
-20.6
-23.94
-28.16
-33.19
-38.72
-44.1
-48.37
-50.44
-49.34
-44.65
-36.66
-26.37
-15.24
-4.72
4.1
10.66
14.96
17.33
18.28
18.29
17.79
17.18
16.78
16.88
17.67
19.2
21.33
23.76
26.04
27.73
28.44
28.0
26.5
24.24
21.57
18.81
16.08
13.36
10.56
7.63
4.64
1.77
-0.88
-3.25
-5.45
-7.62
-9.9
-12.38
-15.13
-18.27
-21.97
-26.4
-31.53
-36.95
-41.86
-45.06
-45.42
-42.18
-35.38
-25.91
-15.3
-5.16
3.29
9.54
13.72
16.34
17.86
18.56
18.55
17.96
17.1
16.41
16.31
16.99
18.37
20.09
21.73
22.87
23.27
22.79
21.47
19.47
17.05
14.44
11.79
9.14
6.4
3.51
0.54
-2.33
-4.86
-6.92
-8.56
-9.99
-11.48
-13.31
-15.65
-18.66
-22.42
-26.92
-31.88
-36.65
-40.25
-41.58
-39.78
-34.63
-26.65
-16.96
-6.93
2.24
9.77
15.33
18.89
20.62
20.8
19.84
18.27
16.75
15.87
16.06
17.44
19.78
22.58
25.2
27.01
27.69
27.18
25.79
23.95
22.04
20.23
18.41
16.31
13.63
10.27
6.35
2.19
-1.83
-5.36
-8.22
-10.47
-12.35
-14.31
-16.91
-20.64
-25.68
-31.74
-37.96
-43.04
-45.63
-44.7
-39.95
-31.91
-21.76
-11.0
-1.01
7.24
13.32
17.19
19.09
19.41
18.59
17.15
15.61
14.5
14.26
15.09
16.9
19.32
21.73
23.55
24.35
24.02
22.72
20.78
18.52
16.12
13.6
10.9
7.94
4.7
1.19
-2.47
-6.18
-9.74
-12.97
-15.72
-17.95
-19.78
-21.49
-23.51
-26.31
-30.24
-35.35
-41.24
-46.99
-51.31
-52.83
-50.54
-44.25
-34.63
-23.11
-11.4
-1.0
7.2
13.01
16.69
18.78
19.72
19.87
19.51
18.97
18.67
19.05
20.4
22.67
25.46
28.12
30.01
30.67
30.03
28.32
25.95
23.34
20.79
18.44
16.2
13.92
11.38
8.42
5.06
1.42
-2.25
-5.69
-8.73
-11.36
-13.69
-15.95
-18.39
-21.31
-24.98
-29.54
-34.81
-40.17
-44.57
-46.76
-45.69
-40.94
-32.92
-22.76
-11.94
-1.82
6.68
13.17
17.69
20.49
21.89
22.2
21.76
20.96
20.23
19.95
20.36
21.52
23.26
25.22
26.98
28.13
28.42
27.77
26.31
24.29
21.99
19.57
17.09
14.48
11.6
8.41
4.92
1.26
-2.33
-5.64
-8.51
-10.96
-13.17
-15.38
-17.91
-21.01
-24.89
-29.62
-35.07
-40.79
-45.92
-49.3
-49.75
-46.45
-39.31
-29.15
-17.43
-5.83
4.27
12.06
17.42
20.57
21.89
21.76
20.53
18.71
16.93
15.89
16.08
17.62
20.14
23.02
25.59
27.41
28.32
28.37
27.7
26.48
24.8
22.73
20.26
17.35
13.95
10.05
5.83
1.62
-2.16
-5.21
-7.47
-9.2
-10.85
-12.92
-15.8
-19.74
-24.77
-30.72
-36.99
-42.6
-46.28
-46.76
-43.28
-35.87
-25.46
-13.57
-1.86
8.3
16.07
21.21
23.91
24.64
23.99
22.61
21.08
19.88
19.35
19.65
20.81
22.72
25.1
27.5
29.38
30.23
29.76
28.03
25.39
22.34
19.28
16.34
13.49
10.54
7.36
3.97
0.46
-3.06
-6.48
-9.75
-12.8
-15.62
-18.24
-20.81
-23.59
-26.97
-31.29
-36.7
-42.99
-49.51
-55.11
-58.43
-58.18
-53.66
-45.03
-33.35
-20.28
-7.65
3.12
11.27
16.73
19.92
21.49
22.03
22.06
21.93
21.92
22.25
23.07
24.46
26.38
28.61
30.79
32.48
33.31
33.06
31.78
29.64
26.9
23.79
20.49
17.09
13.7
10.43
7.34
4.44
1.67
-1.06
-3.79
-6.51
-9.11
-11.5
-13.73
-16.0
-18.66
-22.12
-26.67
-32.38
-38.89
-45.49
-51.13
-54.62
-54.93
-51.47
-44.32
-34.3
-22.77
-11.29
-1.16
6.88
12.69
16.56
18.92
20.1
20.34
19.84
18.96
18.17
17.97
18.71
20.48
23.01
25.88
28.59
30.69
31.9
32.09
31.25
29.44
26.82
23.58
19.97
16.28
12.71
9.39
6.33
3.41
0.53
-2.37
-5.25
-8.03
-10.66
-13.24
-15.96
-19.07
-22.82
-27.35
-32.68
-38.58
-44.49
-49.46
-52.31
-51.89
-47.6
-39.66
-29.1
-17.48
-6.4
3.0
10.17
15.13
18.18
19.71
20.01
19.37
18.14
16.76
15.76
15.56
16.39
18.18
20.57
22.99
24.9
25.94
25.93
24.94
23.16
20.77
17.94
14.81
11.51
8.22
5.12
2.34
-0.13
-2.38
-4.56
-6.77
-9.04
-11.32
-13.58
-15.9
-18.49
-21.66
-25.71
-30.73
-36.46
-42.19
-46.82
-49.13
-48.09
-43.28
-35.1
-24.66
-13.49
-3.02
5.74
12.31
16.66
18.98
19.52
18.65
16.87
14.84
13.3
12.77
13.5
15.3
17.75
20.3
22.47
23.88
24.28
23.61
21.96
19.57
16.78
13.86
10.93
7.95
4.79
1.37
-2.22
-5.75
-8.95
-11.66
-13.97
-16.11
-18.42
-21.2
-24.64
-28.77
-33.42
-38.12
-42.12
-44.47
-44.18
-40.6
-33.62
-23.84
-12.36
-0.49
10.59
20.07
27.46
32.62
35.56
36.5
35.85
34.22
32.32
30.81
30.13
30.43
31.56
33.1
34.52
35.32
35.14
33.9
31.7
28.87
25.69
22.32
18.76
14.91
10.69
6.15
1.47
-3.12
-7.41
-11.29
-14.76
-17.89
-20.8
-23.67
-26.78
-30.43
-34.9
-40.26
-46.21
-52.06
-56.73
-59.02
-57.91
-52.92
-44.34
-33.24
-21.21
-9.81
-0.25
6.96
11.84
14.76
16.13
16.27
15.49
14.19
12.93
12.31
12.8
14.47
17.07
20.04
22.73
24.64
25.47
25.14
23.8
21.75
19.28
16.63
13.9
11.03
7.91
4.51
0.97
-2.46
-5.52
-8.06
-10.19
-12.16
-14.3
-16.87
-20.05
-23.95
-28.63
-33.99
-39.64
-44.75
-48.17
-48.73
-45.7
-39.05
-29.53
-18.45
-7.21
3.03
11.52
17.95
22.26
24.61
25.27
24.65
23.32
21.9
20.95
20.88
21.85
23.69
25.98
28.16
29.69
30.19
29.61
28.16
26.2
24.03
21.77
19.36
16.62
13.39
9.72
5.8
1.92
-1.67
-4.84
-7.6
-10.09
-12.52
-15.08
-18.01
-21.55
-25.88
-31.04
-36.71
-42.18
-46.35
-48.02
-46.24
-40.68
-31.78
-20.72
-9.05
1.7
10.44
16.65
20.36
21.97
22.04
21.13
19.77
18.47
17.71
17.91
19.26
21.62
24.49
27.15
28.92
29.36
28.45
26.46
23.9
21.21
18.61
16.06
13.35
10.24
6.66
2.78
-1.08
-4.54
-7.36
-9.5
-11.16
-12.7
-14.53
-17.02
-20.47
-24.95
-30.17
-35.47
-39.75
-41.79
-40.6
-35.77
-27.65
-17.27
-6.1
4.45
13.27
19.79
23.89
25.82
26.06
25.15
23.67
22.14
21.05
20.77
21.47
23.05
25.15
27.2
28.65
29.1
28.49
27.02
25.03
22.79
20.45
17.99
15.27
12.16
8.59
4.62
0.49
-3.48
-6.95
-9.7
-11.76
-13.44
-15.25
-17.69
-21.1
-25.57
-30.87
-36.47
-41.53
-45.03
-45.91
-43.36
-37.18
-27.94
-16.95
-5.81
4.01
11.63
16.81
19.83
21.14
21.19
20.38
19.1
17.81
17.03
17.14
18.26
20.22
22.54
24.67
26.13
26.62
26.07
24.61
22.52
20.11
17.67
15.37
13.21
11.03
8.57
5.63
2.17
-1.62
-5.35
-8.62
-11.16
-12.99
-14.46
-16.08
-18.35
-21.61
-25.94
-31.09
-36.51
-41.39
-44.77
-45.68
-43.44
-37.84
-29.41
-19.22
-8.71
0.79
8.37
13.71
16.99
18.66
19.19
18.93
18.16
17.18
16.37
16.14
16.84
18.54
20.92
23.44
25.47
26.59
26.66
25.85
24.46
22.71
20.74
18.56
16.13
13.41
10.42
7.2
3.83
0.46
-2.69
-5.37
-7.41
-8.84
-9.92
-11.12
-12.95
-15.77
-19.74
-24.78
-30.55
-36.48
-41.72
-45.23
-45.97
-43.26
-37.06
-28.13
-17.84
-7.79
0.71
6.88
10.64
12.39
12.72
12.22
11.32
10.32
9.44
8.95
9.1
10.08
11.89
14.22
16.53
18.19
18.76
18.16
16.65
14.69
12.67
10.74
8.81
6.72
4.35
1.77
-0.85
-3.32
-5.54
-7.44
-9.12
-10.65
-12.16
-13.79
-15.69
-18.07
-21.09
-24.84
-29.18
-33.63
-37.43
-39.57
-39.13
-35.63
-29.22
-20.74
-11.43
-2.56
4.93
10.62
14.47
16.66
17.39
16.83
15.28
13.22
11.29
10.18
10.35
11.87
14.35
17.17
19.64
21.27
21.9
21.65
20.79
19.58
18.12
16.41
14.3
11.66
8.47
4.9
1.21
-2.31
-5.44
-8.11
-10.37
-12.33
-14.16
-16.04
-18.26
-21.12
-24.87
-29.48
-34.48
-38.97
-41.71
-41.61
-38.07
-31.28
-22.19
-12.21
-2.73
5.18
11.04
14.83
16.82
17.39
16.89
15.76
14.45
13.42
13.08
13.65
15.1
17.16
19.34
21.13
22.07
21.9
20.64
18.54
16.02
13.43
10.99
8.67
6.34
3.8
0.97
-2.08
-5.19
-8.19
-10.95
-13.44
-15.72
-17.89
-20.12
-22.67
-25.84
-29.87
-34.9
-40.72
-46.67
-51.68
-54.47
-53.93
-49.53
-41.55
-31.13
-19.87
-9.37
-0.75
5.55
9.67
12.09
13.32
13.72
13.58
13.16
12.78
12.76
13.36
14.64
16.46
18.57
20.6
22.27
23.32
23.6
23.1
21.95
20.41
18.72
17.03
15.25
13.18
10.61
7.5
4.07
0.69
-2.29
-4.68
-6.58
-8.27
-10.06
-12.21
-14.92
-18.39
-22.83
-28.35
-34.75
-41.39
-47.11
-50.52
-50.4
-46.18
-38.17
-27.55
-15.98
-5.07
3.97
10.61
14.88
17.17
17.98
17.78
17.04
16.16
15.55
15.54
16.3
17.74
19.58
21.44
22.98
23.97
24.28
23.86
22.69
20.79
18.29
15.39
12.34
9.35
6.45
3.57
0.59
-2.48
-5.51
-8.26
-10.56
-12.43
-14.1
-15.95
-18.29
-21.33
-25.09
-29.54
-34.49
-39.62
-44.25
-47.39
-47.95
-45.11
-38.71
-29.37
-18.4
-7.3
2.61
10.5
16.05
19.31
20.57
20.24
18.87
17.11
15.61
14.92
15.33
16.84
19.13
21.74
24.11
25.77
26.45
26.16
25.15
23.8
22.37
20.94
19.31
17.18
14.36
10.87
6.98
3.11
-0.35
-3.22
-5.49
-7.36
-9.11
-11.05
-13.51
-16.83
-21.3
-26.97
-33.43
-39.79
-44.7
-46.8
-45.05
-39.23
-30.0
-18.73
-7.06
3.52
12.06
18.16
21.9
23.64
23.84
22.99
21.62
20.23
19.3
19.19
20.06
21.82
24.15
26.56
28.5
29.57
29.51
28.34
26.31
23.73
20.93
18.14
15.4
12.62
9.65
6.35
2.73
-1.06
-4.78
-8.16
-11.05
-13.42
-15.49
-17.59
-20.22
-23.83
-28.73
-34.93
-42.01
-49.06
-54.81
-57.89
-57.19
-52.25
-43.45
-31.93
-19.32
-7.28
2.89
10.54
15.63
18.57
19.97
20.46
20.5
20.41
20.4
20.67
21.39
22.71
24.65
27.05
29.53
31.58
32.73
32.7
31.49
29.36
26.65
23.67
20.59
17.44
14.18
10.75
7.12
3.32
-0.59
-4.47
-8.14
-11.39
-14.11
-16.36
-18.35
-20.52
-23.39
-27.37
-32.66
-38.95
-45.41
-50.68
-53.24
-51.83
-46.01
-36.3
-24.15
-11.45
0.06
9.26
15.79
19.93
22.2
23.16
23.23
22.79
22.19
21.82
22.01
22.99
24.7
26.88
29.07
30.81
31.74
31.76
31.01
29.72
28.1
26.17
23.84
20.96
17.5
13.59
9.53
5.65
2.17
-0.83
-3.39
-5.58
-7.47
-9.17
-10.82
-12.7
-15.18
-18.59
-23.13
-28.72
-34.94
-40.96
-45.63
-47.79
-46.5
-41.44
-33.02
-22.36
-10.95
-0.26
8.68
15.33
19.73
22.22
23.22
23.17
22.43
21.39
20.49
20.13
20.62
22.01
24.08
26.41
28.53
30.03
30.71
30.51
29.49
27.69
25.18
22.07
18.53
14.8
11.12
7.68
4.53
1.67
-0.95
-3.34
-5.54
-7.58
-9.56
-11.62
-13.9
-16.58
-19.83
-23.82
-28.65
-34.2
-39.96
-44.97
-48.03
-47.96
-44.14
-36.65
-26.42
-14.88
-3.59
6.2
13.76
18.91
21.9
23.13
23.05
22.07
20.61
19.11
18.08
17.94
18.9
20.87
23.44
26.04
28.1
29.22
29.25
28.26
26.44
24.0
21.17
18.11
14.95
11.76
8.59
5.48
2.5
-0.28
-2.81
-5.1
-7.25
-9.42
-11.77
-14.48
-17.65
-21.38
-25.76
-30.68
-35.78
-40.36
-43.38
-43.78
-40.83
-34.47
-25.41
-14.94
-4.55
4.54
11.59
16.47
19.36
20.61
20.57
19.58
18.04
16.45
15.4
15.38
16.62
19.0
22.02
25.01
27.33
28.57
28.62
27.65
25.92
23.73
21.21
18.38
15.22
11.76
8.12
4.49
1.03
-2.18
-5.13
-7.84
-10.33
-12.65
-14.91
-17.36
-20.32
-24.11
-28.8
-34.1
-39.25
-43.16
-44.73
-43.12
-38.09
-30.03
-19.95
-9.19
0.91
9.32
15.49
19.34
21.13
21.26
20.23
18.53
16.68
15.24
14.67
15.25
16.94
19.36
21.9
23.98
25.16
25.3
24.49
23.02
21.16
19.14
17.03
14.74
12.08
8.91
5.22
1.22
-2.73
-6.23
-9.05
-11.21
-13.0
-14.81
-17.07
-20.12
-24.14
-29.09
-34.6
-39.9
-43.88
-45.35
-43.46
-37.99
-29.51
-19.22
-8.55
1.19
9.1
14.78
18.18
19.54
19.25
17.79
15.71
13.64
12.17
11.84
12.86
15.1
18.0
20.75
22.56
23.01
22.13
20.41
18.45
16.64
14.92
12.91
10.17
6.51
2.18
-2.27
-6.21
-9.24
-11.32
-12.77
-14.08
-15.78
-18.31
-21.94
-26.66
-32.18
-37.77
-42.36
-44.73
-43.86
-39.33
-31.49
-21.44
-10.67
-0.61
7.68
13.76
17.6
19.44
19.63
18.55
16.7
14.68
13.13
12.61
13.34
15.15
17.52
19.78
21.34
21.88
21.39
20.11
18.36
16.37
14.2
11.73
8.77
5.2
1.11
-3.19
-7.25
-10.67
-13.25
-15.12
-16.62
-18.26
-20.52
-23.73
-27.98
-33.09
-38.58
-43.66
-47.26
-48.34
-46.11
-40.38
-31.69
-21.21
-10.4
-0.58
7.38
13.15
16.8
18.62
19.0
18.31
17.02
15.7
14.92
15.1
16.36
18.42
20.7
22.55
23.49
23.34
22.25
20.57
18.68
16.8
14.96
13.06
10.89
8.33
5.36
2.13
-1.08
-4.03
-6.53
-8.63
-10.55
-12.65
-15.31
-18.81
-23.19
-28.22
-33.35
-37.79
-40.56
-40.78
-37.89
-31.92
-23.56
-13.97
-4.46
3.95
10.69
15.6
18.79
20.42
20.66
19.82
18.39
17.02
16.33
16.69
18.09
20.19
22.5
24.56
26.04
26.79
26.7
25.77
24.08
21.75
18.93
15.76
12.31
8.6
4.72
0.84
-2.81
-5.99
-8.6
-10.7
-12.52
-14.33
-16.38
-18.96
-22.28
-26.41
-31.2
-36.07
-40.11
-42.18
-41.34
-37.17
-29.97
-20.73
-10.73
-1.26
6.75
12.79
16.78
18.86
19.33
18.61
17.2
15.65
14.47
14.05
14.59
15.98
17.95
20.09
21.95
23.17
23.53
22.99
21.67
19.74
17.41
14.82
12.05
9.09
5.95
2.71
-0.47
-3.36
-5.76
-7.6
-9.04
-10.4
-12.13
-14.63
-18.15
-22.66
-27.82
-32.94
-37.18
-39.58
-39.29
-35.84
-29.27
-20.22
-9.83
0.51
9.56
16.45
20.89
23.08
23.5
22.71
21.22
19.45
17.79
16.6
16.2
16.75
18.14
19.99
21.75
22.86
22.96
21.91
19.88
17.25
14.41
11.66
9.03
6.4
3.56
0.36
-3.09
-6.48
-9.48
-11.86
-13.66
-15.17
-16.8
-18.92
-21.8
-25.59
-30.22
-35.38
-40.34
-44.04
-45.29
-43.22
-37.63
-29.17
-19.19
-9.21
-0.52
6.18
10.81
13.63
15.07
15.52
15.29
14.68
14.01
13.6
13.8
14.78
16.55
18.85
21.2
23.06
23.91
23.55
22.05
19.81
17.28
14.83
12.57
10.33
7.86
4.98
1.7
-1.76
-5.1
-8.13
-10.78
-13.19
-15.52
-17.97
-20.65
-23.7
-27.25
-31.37
-36.0
-40.69
-44.64
-46.75
-46.01
-41.85
-34.42
-24.66
-13.98
-3.88
4.54
10.76
14.84
17.19
18.34
18.73
18.67
18.44
18.3
18.54
19.41
20.94
22.96
25.06
26.78
27.67
27.55
26.45
24.61
22.33
19.88
17.43
15.02
12.61
10.06
7.3
4.25
1.0
-2.26
-5.23
-7.68
-9.55
-11.01
-12.46
-14.38
-17.2
-21.14
-26.12
-31.77
-37.38
-42.0
-44.59
-44.23
-40.49
-33.53
-24.18
-13.68
-3.38
5.64
12.66
17.47
20.16
21.1
20.84
19.97
19.04
18.46
18.42
18.96
19.99
21.38
22.97
24.53
25.73
26.23
25.81
24.46
22.38
19.9
17.26
14.58
11.81
8.88
5.78
2.57
-0.62
-3.64
-6.37
-8.75
-10.78
-12.52
-14.19
-16.06
-18.44
-21.56
-25.48
-29.97
-34.55
-38.47
-40.81
-40.67
-37.48
-31.2
-22.49
-12.58
-2.88
5.38
11.53
15.55
17.78
18.73
18.75
18.13
17.13
16.13
15.6
15.97
17.39
19.64
22.2
24.44
25.84
26.16
25.42
23.88
21.84
19.56
17.17
14.72
12.17
9.49
6.71
3.91
1.24
-1.16
-3.26
-5.09
-6.8
-8.55
-10.55
-12.99
-16.12
-20.07
-24.73
-29.57
-33.66
-35.79
-34.95
-30.67
-23.3
-13.89
-3.91
5.33
12.9
18.44
21.99
23.82
24.17
23.31
21.5
19.2
16.99
15.5
15.17
16.09
17.92
19.93
21.38
21.72
20.83
18.96
16.59
14.16
11.86
9.6
7.14
4.23
0.8
-3.03
-6.95
-10.62
-13.76
-16.3
-18.36
-20.18
-22.09
-24.42
-27.43
-31.24
-35.79
-40.66
-45.07
-47.94
-48.17
-45.02
-38.43
-29.14
-18.48
-7.97
1.16
8.26
13.19
16.21
17.69
17.95
17.25
15.91
14.37
13.14
12.75
13.45
15.17
17.48
19.77
21.43
22.09
21.66
20.31
18.35
16.08
13.65
11.13
8.44
5.5
2.29
-1.09
-4.45
-7.57
-10.29
-12.57
-14.57
-16.51
-18.63
-21.14
-24.26
-28.14
-32.85
-38.18
-43.5
-47.73
-49.58
-48.01
-42.65
-34.11
-23.69
-13.07
-3.65
3.77
9.03
12.42
14.37
15.23
15.19
14.44
13.21
11.86
10.84
10.56
11.21
12.65
14.38
15.73
16.08
15.08
12.79
9.59
5.88
1.93
-2.21
-6.62
-11.36
-16.31
-21.22
-25.86
-30.1
-34.04
-37.85
-41.76
-45.88
-50.26
-54.84
-59.54
-64.26
-68.85
-73.1
-76.6
-78.65
-78.27
-74.33
-65.99
-52.99
-36.0
-16.46
3.75
22.83
39.51
53.15
63.61
71.01
75.51
77.35
76.9
74.74
71.62
68.33
65.49
63.43
62.16
61.45
60.96
60.25
58.92
56.69
53.42
49.18
44.22
38.88
33.55
28.51
23.94
19.85
16.16
12.74
9.48
6.31
3.24
0.26
-2.72
-5.77
-9.0
-12.45
-16.14
-20.1
-24.42
-29.13
-34.03
-38.52
-41.58
-42.1
-39.28
-33.04
-24.11
-13.8
-3.57
5.42
12.52
17.58
20.67
21.98
21.74
20.27
18.1
15.9
14.39
14.09
15.19
17.44
20.3
23.07
25.09
25.98
25.63
24.18
21.97
19.33
16.56
13.83
11.23
8.77
6.46
4.28
2.23
0.26
-1.71
-3.78
-6.0
-8.35
-10.77
-13.28
-15.98
-19.15
-23.07
-27.75
-32.75
-37.11
-39.57
-39.07
-35.11
-27.97
-18.69
-8.64
0.85
8.8
14.73
18.59
20.54
20.89
20.0
18.28
16.26
14.5
13.53
13.71
15.09
17.35
19.93
22.15
23.45
23.53
22.42
20.38
17.77
14.91
12.03
9.21
6.4
3.51
0.44
-2.81
-6.16
-9.41
-12.36
-14.87
-17.02
-19.05
-21.32
-24.2
-27.94
-32.59
-37.98
-43.65
-48.78
-52.31
-53.14
-50.48
-44.22
-35.01
-24.18
-13.28
-3.64
3.97
9.39
12.86
14.8
15.52
15.3
14.36
13.08
11.96
11.47
11.99
13.6
16.06
18.86
21.41
23.2
23.96
23.67
22.51
20.74
18.56
16.04
13.18
10.02
6.66
3.29
0.14
-2.68
-5.18
-7.5
-9.74
-11.99
-14.27
-16.59
-19.07
-21.95
-25.54
-30.05
-35.4
-41.03
-45.9
-48.73
-48.38
-44.29
-36.72
-26.76
-15.98
-5.91
2.42
8.66
13.01
15.86
17.52
18.1
17.63
16.39
14.91
13.96
14.17
15.83
18.61
21.87
24.79
26.8
27.63
27.29
26.01
24.01
21.55
18.84
16.12
13.54
11.15
8.91
6.7
4.39
1.97
-0.49
-2.9
-5.19
-7.37
-9.54
-11.86
-14.48
-17.6
-21.41
-25.99
-31.22
-36.63
-41.42
-44.56
-45.1
-42.43
-36.5
-27.96
-17.94
-7.76
1.35
8.61
13.7
16.7
17.94
17.8
16.71
15.13
13.65
12.82
13.07
14.53
16.92
19.74
22.43
24.53
25.78
26.08
25.37
23.69
21.21
18.26
15.29
12.75
10.81
9.36
8.04
6.49
4.51
2.14
-0.42
-2.93
-5.21
-7.22
-9.03
-10.86
-13.04
-15.93
-19.78
-24.55
-29.76
-34.49
-37.56
-37.91
-34.9
-28.58
-19.63
-9.23
1.26
10.64
18.05
23.08
25.71
26.17
24.87
22.38
19.32
16.42
14.41
13.8
14.79
17.11
20.15
