0
-37.2
-40.57
-44.1
-48.1
-52.86
-58.42
-64.42
-70.09
-74.26
-75.7
-73.36
-66.77
-56.14
-42.43
-27.09
-11.68
2.47
14.53
24.18
31.5
36.8
40.37
42.46
43.3
43.11
42.18
40.85
39.4
38.08
37.02
36.29
35.86
35.75
35.93
36.38
37.02
37.66
38.01
37.72
36.56
34.43
31.51
28.16
24.72
21.45
18.37
15.39
12.39
9.35
6.33
3.48
0.88
-1.46
-3.6
-5.58
-7.44
-9.17
-10.77
-12.29
-13.8
-15.35
-16.96
-18.62
-20.35
-22.2
-24.28
-26.74
-29.63
-32.88
-36.3
-39.65
-42.76
-45.66
-48.56
-51.83
-55.82
-60.69
-66.19
-71.59
-75.73
-77.26
-74.99
-68.33
-57.49
-43.5
-27.92
-12.41
1.72
13.68
23.22
30.49
35.72
39.19
41.17
41.96
41.94
41.48
40.94
40.53
40.33
40.33
40.47
40.74
41.17
41.84
42.76
43.86
44.91
45.53
45.3
43.88
41.14
37.25
32.59
27.75
23.24
19.35
16.08
13.12
10.04
6.52
2.5
-1.76
-5.84
-9.36
-12.19
-14.43
-16.4
-18.4
-20.67
-23.26
-26.12
-29.17
-32.32
-35.54
-38.79
-42.1
-45.59
-49.42
-53.78
-58.71
-63.93
-68.77
-72.19
-72.99
-70.21
-63.39
-52.79
-39.37
-24.46
-9.47
4.39
16.33
25.97
33.26
38.39
41.7
43.59
44.41
44.44
43.86
42.78
41.33
39.7
38.13
36.85
36.01
35.65
35.72
36.08
36.61
37.12
37.41
37.25
36.47
35.04
33.06
30.75
28.33
25.92
23.56
21.15
18.6
15.85
12.9
9.84
6.85
4.12
1.83
0.03
-1.43
-2.83
-4.49
-6.6
-9.18
-12.02
-14.81
-17.29
-19.35
-21.05
-22.64
-24.47
-26.84
-29.9
-33.57
-37.61
-41.66
-45.44
-48.87
-52.1
-55.47
-59.34
-63.9
-69.03
-74.24
-78.62
-81.02
-80.17
-75.14
-65.64
-52.25
-36.32
-19.65
-3.91
9.67
20.56
28.73
34.5
38.25
40.36
41.22
41.25
40.91
40.58
40.51
40.77
41.24
41.74
42.13
42.34
42.44
42.51
42.6
42.66
42.53
42.01
40.9
39.14
36.77
33.92
30.76
27.46
24.16
20.95
17.82
14.72
11.55
8.26
4.92
1.71
-1.14
-3.48
-5.34
-6.95
-8.59
-10.47
-12.62
-14.91
-17.13
-19.14
-20.93
-22.64
-24.56
-26.91
-29.82
-33.23
-36.9
-40.54
-43.88
-46.82
-49.44
-52.04
-54.94
-58.46
-62.68
-67.34
-71.77
-74.88
-75.41
-72.21
-64.59
-52.66
-37.34
-20.16
-2.95
12.66
25.59
35.4
42.29
46.83
49.67
51.25
51.78
51.3
49.87
47.73
45.35
43.24
41.73
40.94
40.78
41.05
41.65
42.44
43.28
43.88
43.91
43.06
41.23
38.56
35.34
31.84
28.26
24.69
21.18
17.74
14.42
11.17
7.93
4.61
1.24
-2.04
-5.04
-7.61
-9.77
-11.68
-13.52
-15.47
-17.57
-19.87
-22.44
-25.35
-28.63
-32.17
-35.74
-39.06
-41.95
-44.43
-46.79
-49.48
-52.97
-57.58
-63.33
-69.78
-75.98
-80.63
-82.28
-79.76
-72.5
-60.76
-45.59
-28.57
-11.39
4.42
17.87
28.49
36.32
41.7
45.09
46.91
47.49
47.08
45.97
44.49
42.96
41.64
40.7
40.18
40.03
40.22
40.74
41.56
42.57
43.6
44.35
44.53
43.88
42.28
39.78
36.6
33.07
29.5
26.11
22.96
19.99
17.09
14.13
11.06
7.92
4.83
1.95
-0.6
-2.74
-4.56
-6.24
-7.99
-9.96
-12.18
-14.53
-16.85
-19.02
-21.04
-23.08
-25.37
-28.13
-31.49
-35.35
-39.45
-43.41
-46.91
-49.84
-52.42
-55.18
-58.73
-63.52
-69.58
-76.38
-82.88
-87.76
-89.65
-87.46
-80.57
-69.04
-53.66
-35.76
-17.08
0.7
16.24
28.72
37.93
44.09
47.72
49.43
49.79
49.24
48.11
46.65
45.06
43.6
42.52
41.96
41.97
42.44
43.15
43.93
44.62
45.16
45.43
45.29
44.55
43.03
40.69
37.64
34.06
30.18
26.15
22.09
18.1
14.33
10.85
7.73
4.91
2.24
-0.42
-3.17
-5.97
-8.73
-11.26
-13.47
-15.33
-16.94
-18.52
-20.34
-22.58
-25.34
-28.5
-31.78
-34.89
-37.66
-40.18
-42.82
-46.06
-50.33
-55.78
-62.14
-68.73
-74.42
-77.82
-77.57
-72.59
-62.53
-47.94
-30.24
-11.43
6.47
21.86
33.9
42.54
48.25
51.74
53.62
54.3
54.03
52.97
51.33
49.41
47.53
45.91
44.65
43.71
43.04
42.61
42.47
42.69
43.19
43.79
44.12
43.82
42.61
40.41
37.33
33.63
29.66
25.67
21.83
18.15
14.53
10.88
7.21
3.62
0.33
-2.52
-4.91
-6.99
-9.0
-11.14
-13.47
-15.9
-18.28
-20.54
-22.73
-25.03
-27.66
-30.71
-34.12
-37.64
-41.0
-44.04
-46.8
-49.55
-52.71
-56.7
-61.75
-67.75
-74.12
-79.89
-83.69
-84.15
-80.15
-71.22
-57.72
-40.8
-22.15
-3.61
13.26
27.37
38.19
45.73
50.37
52.68
53.34
52.93
51.93
50.64
49.21
47.76
46.41
45.27
44.43
43.93
43.77
43.92
44.35
45.01
45.78
46.43
46.59
45.95
44.27
41.59
38.15
34.29
30.4
26.75
23.44
20.42
17.56
14.66
11.56
8.2
4.67
1.21
-1.88
-4.42
-6.35
-7.82
-9.12
-10.54
-12.31
-14.48
-16.96
-19.53
-21.93
-24.03
-25.81
-27.51
-29.46
-32.01
-35.28
-39.17
-43.3
-47.25
-50.69
-53.51
-55.9
-58.24
-61.0
-64.6
-69.18
-74.53
-79.91
-84.16
-85.89
-83.83
-77.21
-65.97
-50.83
-33.14
-14.52
3.37
19.19
32.03
41.5
47.67
50.99
52.1
51.73
50.47
48.8
47.0
45.23
43.56
42.06
40.82
39.99
39.7
40.02
40.89
42.08
43.26
44.1
44.31
43.72
42.29
40.0
36.93
33.19
28.97
24.52
20.07
15.8
11.75
7.88
4.11
0.4
-3.23
-6.7
-9.88
-12.64
-14.93
-16.78
-18.35
-19.92
-21.77
-24.11
-26.98
-30.23
-33.62
-36.88
-39.86
-42.59
-45.34
-48.53
-52.6
-57.79
-63.92
-70.28
-75.6
-78.43
-77.41
-71.73
-61.34
-46.98
-29.98
-11.98
5.37
20.72
33.18
42.38
48.43
51.81
53.17
53.15
52.29
51.0
49.54
48.08
46.68
45.36
44.19
43.21
42.53
42.24
42.32
42.67
43.1
43.34
43.14
42.26
40.5
37.75
34.07
29.7
25.05
20.54
16.45
12.87
9.68
6.71
3.83
0.91
-2.08
-5.15
-8.27
-11.35
-14.22
-16.74
-18.85
-20.67
-22.45
-24.53
-27.09
-30.21
-33.73
-37.42
-41.02
-44.29
-47.11
-49.56
-51.89
-54.57
-58.14
-62.93
-68.84
-75.22
-80.85
-84.2
-83.78
-78.57
-68.29
-53.52
-35.63
-16.41
2.25
18.76
32.1
41.88
48.33
52.07
53.86
54.36
54.08
53.28
52.08
50.57
48.86
47.09
45.42
44.01
42.92
42.24
42.0
42.15
42.56
42.98
43.06
42.49
41.05
38.77
35.81
32.44
28.86
25.19
21.46
17.63
13.74
9.85
6.09
2.58
-0.62
-3.52
-6.22
-8.8
-11.33
-13.77
-16.05
-18.0
-19.57
-20.81
-21.94
-23.25
-24.98
-27.26
-30.01
-33.07
-36.24
-39.39
-42.45
-45.46
-48.49
-51.75
-55.52
-60.13
-65.71
-72.01
-78.23
-83.11
-85.14
-82.95
-75.77
-63.63
-47.49
-28.98
-10.01
7.64
22.68
34.45
42.89
48.34
51.35
52.51
52.4
51.52
50.26
48.93
47.67
46.52
45.51
44.68
44.12
43.92
44.06
44.45
44.92
45.27
45.29
44.79
43.63
41.69
38.98
35.63
31.86
27.86
23.68
19.22
14.36
9.05
3.51
-1.89
-6.73
-10.75
-13.99
-16.71
-19.3
-22.13
-25.37
-28.96
-32.7
-36.32
-39.6
-42.47
-45.07
-47.72
-50.82
-54.75
-59.63
-65.24
-70.89
-75.48
-77.69
-76.23
-70.26
-59.65
-45.08
-27.97
-10.08
6.87
21.56
33.35
42.13
48.28
52.29
54.66
55.68
55.55
54.42
52.55
50.27
47.97
46.0
44.48
43.38
42.53
41.81
41.21
40.84
40.72
40.76
40.68
40.08
38.68
36.36
33.22
29.51
25.49
21.42
17.46
13.74
10.33
7.25
4.41
1.67
-1.14
-4.18
-7.42
-10.76
-13.99
-16.9
-19.39
-21.55
-23.6
-25.84
-28.51
-31.69
-35.27
-38.99
-42.58
-45.81
-48.62
-51.12
-53.62
-56.6
-60.53
-65.71
-71.91
-78.31
-83.43
-85.55
-83.16
-75.5
-62.85
-46.4
-28.0
-9.59
7.23
21.44
32.66
41.03
46.97
50.93
53.27
54.15
53.75
52.29
50.19
48.0
46.18
44.98
44.4
44.28
44.38
44.57
44.77
44.88
44.76
44.23
43.14
41.48
39.34
36.84
34.06
31.01
27.61
23.85
19.78
15.56
11.37
7.45
3.95
0.93
-1.65
-3.98
-6.28
-8.74
-11.42
-14.22
-16.96
-19.48
-21.72
-23.73
-25.7
-27.81
-30.22
-32.97
-36.0
-39.12
-42.13
-44.93
-47.56
-50.28
-53.51
-57.62
-62.81
-68.92
-75.29
-80.81
-84.07
-83.62
-78.42
-68.14
-53.47
-35.94
-17.5
-0.04
15.11
27.3
36.54
43.18
47.66
50.41
51.73
51.88
51.09
49.6
47.66
45.57
43.64
42.17
41.3
41.05
41.27
41.78
42.44
43.11
43.64
43.74
43.07
41.34
38.51
34.81
30.71
26.72
23.13
19.97
16.98
13.82
10.17
5.95
1.32
-3.35
-7.61
-11.15
-13.94
-16.27
-18.52
-21.1
-24.14
-27.52
-30.97
-34.23
-37.18
-39.86
-42.49
-45.36
-48.81
-53.13
-58.44
-64.54
-70.69
-75.63
-77.87
-76.03
-69.34
-57.89
-42.65
-25.2
-7.35
9.31
23.67
35.18
43.77
49.63
53.03
54.28
53.73
51.9
49.41
46.93
44.93
43.59
42.76
42.18
41.59
40.94
40.28
39.75
39.42
39.24
39.12
38.88
38.31
37.22
35.45
32.95
29.82
26.28
22.53
18.71
14.83
10.9
7.01
3.38
0.25
-2.29
-4.35
-6.2
-8.13
-10.25
-12.53
-14.84
-17.05
-19.17
-21.31
-23.62
-26.25
-29.22
-32.46
-35.82
-39.11
-42.2
-45.09
-47.98
-51.24
-55.33
-60.53
-66.73
-73.3
-79.13
-82.87
-83.18
-79.16
-70.53
-57.76
-41.96
-24.58
-7.16
8.92
22.68
33.55
41.39
46.4
49.08
50.05
49.89
49.04
47.72
46.06
44.14
42.13
40.27
38.84
38.01
37.8
38.1
38.69
39.36
39.91
40.15
39.85
38.81
36.91
34.19
30.85
27.15
23.36
19.67
16.15
12.82
9.67
6.63
3.66
0.68
-2.32
-5.34
-8.29
-11.05
-13.52
-15.64
-17.43
-19.0
-20.51
-22.14
-24.08
-26.45
-29.29
-32.5
-35.85
-39.1
-42.03
-44.62
-47.05
-49.72
-53.14
-57.66
-63.29
-69.46
-75.03
-78.47
-78.31
-73.51
-63.85
-49.99
-33.31
-15.54
1.6
16.74
29.03
38.22
44.5
48.35
50.35
50.98
50.61
49.49
47.86
45.97
44.08
42.4
41.08
40.15
39.63
39.5
39.81
40.53
41.51
42.44
42.89
42.43
40.76
37.9
34.12
29.93
25.81
22.08
18.72
15.47
11.98
8.02
3.63
-0.91
-5.24
-9.06
-12.26
-14.95
-17.34
-19.7
-22.25
-25.15
-28.46
-32.07
-35.77
-39.29
-42.48
-45.38
-48.26
-51.55
-55.62
-60.61
-66.25
-71.81
-76.14
-77.96
-76.12
-69.97
-59.59
-45.79
-29.93
-13.53
2.04
15.79
27.13
35.88
42.09
46.03
48.09
48.77
48.52
47.67
46.42
44.88
43.14
41.35
39.73
38.5
37.86
37.86
38.42
39.29
40.17
40.73
40.77
40.15
38.85
36.89
34.31
31.18
27.61
23.78
19.92
16.22
12.79
9.66
6.71
3.86
1.03
-1.76
-4.43
-6.88
-9.06
-10.89
-12.4
-13.6
-14.6
-15.5
-16.47
-17.67
-19.26
-21.36
-24.03
-27.24
-30.85
-34.6
-38.21
-41.5
-44.5
-47.5
-50.99
-55.42
-61.03
-67.55
-74.15
-79.54
-82.27
-81.11
-75.43
-65.34
-51.71
-35.86
-19.3
-3.4
10.78
22.52
31.5
37.7
41.39
43.02
43.14
42.29
40.9
39.32
37.77
36.45
35.51
35.05
35.1
35.58
36.35
37.24
38.07
38.69
38.91
38.6
37.63
36.02
33.87
31.38
28.72
25.95
23.04
19.89
16.44
12.74
8.9
5.07
1.33
-2.32
-5.9
-9.34
-12.48
-15.14
-17.19
-18.68
-19.91
-21.23
-23.01
-25.39
-28.35
-31.65
-35.01
-38.2
-41.18
-44.03
-46.98
-50.3
-54.28
-59.07
-64.63
-70.54
-75.95
-79.62
-80.2
-76.53
-68.13
-55.37
-39.43
-22.0
-4.82
10.75
23.9
34.3
42.03
47.34
50.54
52.0
52.12
51.36
50.11
48.67
47.24
45.87
44.6
43.45
42.5
41.88
41.7
41.99
42.61
43.22
43.38
42.69
40.92
38.13
34.62
30.78
26.93
23.22
19.62
16.01
12.28
8.44
4.57
0.77
-2.9
-6.46
-9.99
-13.58
-17.34
-21.27
-25.31
-29.33
-33.18
-36.75
-39.99
-42.99
-45.84
-48.75
-52.0
-55.96
-60.91
-66.86
-73.39
-79.39
-83.31
-83.49
-78.76
-68.8
-54.37
-37.02
-18.64
-0.98
14.69
27.67
37.78
45.15
50.07
52.98
54.29
54.46
53.86
52.73
51.23
49.46
47.56
45.73
44.26
43.42
43.35
44.02
45.2
46.48
47.41
47.57
46.65
44.54
41.37
37.47
33.3
29.28
25.72
22.66
19.95
17.29
14.44
11.29
7.92
4.56
1.45
-1.23
-3.45
-5.33
-7.05
-8.8
-10.7
-12.74
-14.79
-16.78
-18.7
-20.7
-23.03
-25.96
-29.59
-33.81
-38.3
-42.64
-46.49
-49.72
-52.48
-55.16
-58.31
-62.38
-67.58
-73.62
-79.72
-84.57
-86.71
-84.81
-78.07
-66.48
-50.88
-32.75
-13.92
3.88
19.32
31.63
40.66
46.73
50.4
52.29
52.91
52.63
51.71
50.38
48.82
47.26
45.91
44.95
44.52
44.63
45.23
46.17
47.29
48.41
49.32
49.75
49.4
47.97
45.34
41.67
37.36
32.94
28.88
25.3
22.07
18.86
15.43
11.72
7.9
4.21
0.81
-2.23
-5.02
-7.66
-10.21
-12.64
-14.91
-17.0
-18.93
-20.83
-22.85
-25.17
-27.9
-31.01
-34.37
-37.75
-40.94
-43.86
-46.6
-49.36
-52.44
-56.19
-60.87
-66.57
-73.09
-79.73
-85.31
-88.32
-87.33
-81.38
-70.4
-55.27
-37.57
-19.14
-1.71
13.49
25.82
35.18
41.82
46.16
48.68
49.77
49.76
48.92
47.53
45.91
44.33
43.02
42.07
41.48
41.21
41.25
41.6
42.29
43.17
43.98
44.28
43.64
41.81
38.79
34.91
30.64
26.45
22.58
19.06
15.71
12.3
8.68
4.86
0.99
-2.71
-6.04
-8.91
-11.33
-13.39
-15.21
-16.95
-18.79
-20.88
-23.31
-26.13
-29.24
-32.47
-35.65
-38.67
-41.53
-44.44
-47.76
-51.91
-57.15
-63.41
-70.07
-75.98
-79.68
-79.72
-75.12
-65.66
-52.01
-35.49
-17.77
-0.46
15.18
28.33
38.63
46.08
50.89
53.46
54.24
53.74
52.37
50.46
48.22
45.85
43.52
41.51
40.1
39.43
39.47
39.99
40.65
41.09
41.12
40.69
39.82
38.58
36.92
34.78
32.11
28.93
25.37
21.67
18.03
14.59
11.37
8.33
5.39
2.45
-0.55
-3.66
-6.85
-10.03
-13.06
-15.83
-18.28
-20.54
-22.85
-25.44
-28.43
-31.73
-35.11
-38.32
-41.27
-44.03
-46.79
-49.81
-53.3
-57.46
-62.4
-68.08
-74.15
-79.77
-83.67
-84.38
-80.65
-71.95
-58.65
-42.03
-23.86
-6.0
10.1
23.57
34.14
42.01
47.56
51.22
53.28
53.96
53.49
52.15
50.32
48.4
46.71
45.4
44.5
43.95
43.71
43.75
44.06
44.56
45.07
45.35
45.14
44.24
42.55
40.07
36.93
33.37
29.71
26.23
23.08
20.23
17.46
14.54
11.33
7.94
4.61
1.63
-0.77
-2.52
-3.74
-4.62
-5.43
-6.44
-7.81
-9.62
-11.79
-14.16
-16.54
-18.88
-21.21
-23.72
-26.58
-29.84
-33.45
-37.24
-41.0
-44.62
-48.07
-51.45
-54.93
-58.82
-63.4
-68.83
-74.91
-80.99
-85.9
-88.27
-86.8
-80.71
-69.98
-55.36
-38.25
-20.31
-3.08
12.24
24.92
34.7
41.61
45.95
48.16
48.77
48.35
47.4
46.27
45.14
44.07
43.1
42.29
41.71
41.45
41.52
41.85
42.3
42.73
42.99
42.88
42.19
40.73
38.4
35.28
31.64
27.8
24.04
20.46
16.96
13.37
9.53
5.47
1.38
-2.46
-5.77
-8.43
-10.54
-12.34
-14.13
-16.17
-18.58
-21.38
-24.48
-27.72
-30.89
-33.8
-36.36
-38.62
-40.87
-43.57
-47.23
-52.17
-58.34
-65.17
-71.6
-76.24
-77.72
-74.96
-67.55
-55.83
-40.89
-24.28
-7.66
7.6
20.59
30.95
38.66
43.97
47.22
48.81
49.2
48.83
48.04
47.04
45.82
44.37
42.71
41.02
39.56
38.59
38.27
38.57
39.32
40.24
41.0
41.25
40.73
39.29
36.96
33.94
30.52
26.97
23.42
19.9
16.38
12.89
9.46
6.22
3.25
0.63
-1.65
-3.63
-5.41
-7.17
-9.06
-11.14
-13.38
-15.63
-17.77
-19.73
-21.61
-23.58
-25.87
-28.65
-32.02
-35.9
-40.08
-44.2
-47.91
-50.97
-53.49
-55.87
-58.75
-62.74
-68.04
-74.31
-80.58
-85.45
-87.37
-85.04
-77.74
-65.54
-49.37
-30.88
-12.01
5.4
20.1
31.57
39.97
45.85
49.86
52.54
54.16
54.83
54.54
53.33
51.3
48.75
46.08
43.74
42.06
41.22
41.19
41.75
42.65
43.62
44.37
44.63
44.12
42.6
40.03
36.59
32.64
28.64
24.93
21.71
18.9
16.31
13.69
10.86
7.78
4.54
1.28
-1.88
-4.88
-7.74
-10.51
-13.21
-15.74
-18.0
-19.92
-21.55
-23.12
-24.95
-27.33
-30.37
-33.99
-37.93
-41.88
-45.53
-48.75
-51.6
-54.38
-57.51
-61.44
-66.45
-72.48
-78.92
-84.69
-88.36
-88.51
-84.04
-74.61
-60.73
-43.67
-25.18
-7.08
9.14
22.52
32.71
39.82
44.29
46.68
47.58
47.53
46.93
46.06
45.07
44.0
42.89
41.81
40.84
40.13
39.84
40.06
40.83
42.05
43.42
44.51
44.83
43.99
41.82
38.47
34.29
29.73
25.17
20.84
16.86
13.24
9.88
6.59
3.21
-0.41
-4.23
-8.08
-11.69
-14.89
-17.7
-20.35
-23.14
-26.22
-29.56
-32.99
-36.29
-39.39
-42.39
-45.51
-49.05
-53.28
-58.43
-64.52
-71.2
-77.66
-82.55
-84.34
-81.69
-73.9
-61.22
-44.81
-26.45
-8.0
8.96
23.45
35.11
43.99
50.3
54.29
56.15
56.12
54.61
52.17
49.44
46.94
44.96
43.53
42.53
41.86
41.49
41.47
41.82
42.44
43.11
43.51
43.34
42.38
40.59
38.02
34.88
31.38
27.72
24.01
20.26
16.42
12.44
8.35
4.22
0.18
-3.65
-7.19
-10.37
-13.19
-15.68
-17.99
-20.28
-22.77
-25.61
-28.88
-32.54
-36.45
-40.4
-44.15
-47.54
-50.56
-53.43
-56.59
-60.54
-65.67
-71.96
-78.79
-85.01
-89.07
-89.4
-84.87
-75.04
-60.39
-42.28
-22.54
-3.17
14.18
28.45
39.26
46.78
51.5
54.04
55.0
54.9
54.14
53.04
51.8
50.51
49.21
47.91
46.66
45.53
44.65
44.15
44.09
44.47
45.09
45.65
45.73
44.96
43.13
40.27
36.62
32.53
28.3
24.09
19.93
15.74
11.46
7.14
2.83
-1.33
-5.24
-8.79
-11.94
-14.72
-17.22
-19.61
-22.1
-24.84
-27.93
-31.36
-34.98
-38.62
-42.09
-45.33
-48.45
-51.76
-55.69
-60.7
-66.99
-74.26
-81.57
-87.39
-89.94
-87.67
-79.8
-66.59
-49.28
-29.79
-10.13
7.99
23.46
35.82
45.03
51.38
55.23
57.03
57.25
56.32
54.63
52.5
50.19
47.92
45.92
44.31
43.21
42.6
42.4
42.51
42.81
43.16
43.33
43.03
41.92
39.8
36.68
32.84
28.69
24.62
20.78
17.1
13.36
9.39
5.19
0.89
-3.25
-7.07
-10.55
-13.78
-17.0
-20.39
-24.01
-27.75
-31.41
-34.73
-37.59
-40.07
-42.51
-45.4
-49.23
-54.31
-60.64
-67.73
-74.65
-80.05
-82.41
-80.39
-73.2
-60.95
-44.66
-26.09
-7.28
9.98
24.5
35.81
44.08
49.8
53.56
55.79
56.74
56.51
55.23
53.15
50.6
47.99
45.59
43.53
41.83
40.48
39.54
39.14
39.35
40.07
40.9
41.3
40.7
38.82
35.7
31.75
27.46
23.29
19.41
15.78
12.2
8.5
4.61
0.62
-3.22
-6.7
-9.66
-12.11
-14.24
-16.31
-18.63
-21.38
-24.59
-28.15
-31.81
-35.34
-38.65
-41.77
-44.89
-48.29
-52.26
-57.07
-62.84
-69.44
-76.22
-82.02
-85.25
-84.34
-78.26
-66.96
-51.44
-33.51
-15.21
1.75
16.29
28.03
37.06
43.69
48.24
51.04
52.34
52.43
51.64
50.32
48.78
47.33
46.12
45.22
44.58
44.12
43.76
43.49
43.36
43.37
43.45
43.41
42.97
41.86
39.9
37.05
33.41
29.2
24.7
20.23
16.05
12.35
9.18
6.45
3.97
1.48
-1.21
-4.16
-7.25
-10.3
-13.11
-15.6
-17.9
-20.24
-22.89
-25.95
-29.36
-32.86
-36.18
-39.11
-41.65
-43.98
-46.39
-49.24
-52.88
-57.53
-63.22
-69.62
-75.94
-80.99
-83.4
-81.94
-75.9
-65.34
-51.11
-34.66
-17.66
-1.63
12.35
23.77
32.6
39.09
43.61
46.51
48.09
48.6
48.26
47.31
45.93
44.3
42.55
40.84
39.37
38.36
37.94
38.06
38.5
38.93
39.01
38.51
37.31
35.43
32.94
29.97
26.64
23.07
19.32
15.46
11.55
7.67
3.92
0.35
-2.98
-6.09
-8.99
-11.73
-14.35
-16.94
-19.61
-22.48
-25.63
-29.03
-32.55
-35.96
-39.14
-42.11
-45.18
-48.87
-53.57
-59.39
-65.83
-71.77
-75.68
-76.06
-71.89
-63.03
-50.24
-34.9
-18.67
-3.03
10.98
22.8
32.28
39.52
44.71
48.07
49.8
50.12
49.31
47.71
45.72
43.68
41.84
40.27
38.93
37.8
36.88
36.26
35.99
36.04
36.2
36.15
35.53
34.07
31.66
28.39
24.53
20.41
16.35
12.55
9.03
5.64
2.19
-1.4
-5.03
-8.45
-11.4
-13.78
-15.67
-17.36
-19.14
-21.24
-23.77
-26.72
-30.0
-33.47
-36.87
-39.97
-42.63
-44.95
-47.34
-50.38
-54.61
-60.23
-66.89
-73.59
-78.85
-81.06
-78.87
-71.65
-59.71
-44.24
-26.99
-9.81
5.83
19.02
29.47
37.31
42.86
46.51
48.62
49.54
49.54
48.83
47.55
45.86
43.96
42.13
40.63
39.62
39.14
39.07
39.26
39.55
39.77
39.72
39.18
37.9
35.77
32.81
29.23
25.35
21.47
17.8
14.4
11.19
7.97
4.54
0.76
-3.35
-7.58
-11.61
-15.07
-17.75
-19.69
-21.16
-22.61
-24.46
-26.95
-30.08
-33.64
-37.28
-40.67
-43.63
-46.18
-48.52
-51.01
-54.04
-57.96
-62.89
-68.65
-74.55
-79.47
-81.95
-80.59
-74.5
-63.6
-48.77
-31.6
-13.99
2.35
16.29
27.37
35.7
41.75
46.05
49.01
50.85
51.67
51.49
50.43
48.74
46.73
44.75
43.12
42.05
41.65
41.96
42.81
43.95
44.93
45.26
44.55
42.69
39.82
36.28
32.42
28.46
24.4
20.15
15.59
10.75
5.79
0.96
-3.53
-7.58
-11.2
-14.55
-17.83
-21.16
-24.57
-27.96
-31.18
-34.09
-36.71
-39.21
-41.83
-44.87
-48.56
-53.05
-58.33
-64.14
-69.86
-74.47
-76.7
-75.3
-69.44
-59.04
-44.83
-28.2
-10.84
5.65
20.05
31.69
40.45
46.58
50.53
52.76
53.62
53.36
52.17
50.31
48.09
45.83
43.83
42.28
41.24
40.73
40.7
41.05
41.61
42.14
42.38
42.07
41.06
39.26
36.71
33.55
29.98
26.29
22.68
19.28
16.06
12.93
9.8
6.66
3.64
0.89
-1.48
-3.48
-5.19
-6.77
-8.36
-10.07
-11.95
-14.03
-16.28
-18.66
-21.16
-23.8
-26.65
-29.79
-33.22
-36.82
-40.4
-43.75
-46.74
-49.43
-52.03
-54.95
-58.66
-63.49
-69.49
-76.16
-82.36
-86.47
-86.81
-82.14
-72.11
-57.42
-39.6
-20.59
-2.25
13.97
27.22
37.14
43.88
47.83
49.61
49.87
49.18
47.98
46.51
44.92
43.26
41.63
40.14
38.94
38.19
38.03
38.54
39.63
41.06
42.38
43.16
43.01
41.75
39.42
36.25
32.57
28.69
24.86
21.22
17.86
14.74
11.79
8.95
6.15
3.35
0.54
-2.33
-5.26
-8.23
-11.16
-13.92
-16.4
-18.58
-20.54
-22.47
-24.64
-27.3
-30.58
-34.36
-38.34
-42.09
-45.26
-47.77
-49.87
-52.12
-55.19
-59.56
-65.33
-72.03
-78.55
-83.35
-84.78
-81.5
-72.93
-59.5
-42.57
-24.03
-5.79
10.62
24.25
34.75
42.19
46.96
49.58
50.67
50.8
50.43
49.78
48.91
47.82
46.49
45.0
43.49
42.15
41.17
40.69
40.82
41.46
42.35
43.04
43.08
42.12
40.04
36.89
32.92
28.35
23.47
18.51
13.72
9.25
5.15
1.37
-2.24
-5.73
-9.09
-12.27
-15.27
-18.19
-21.27
-24.68
-28.44
-32.35
-36.1
-39.45
-42.35
-45.02
-47.93
-51.59
-56.39
-62.4
-69.16
-75.65
-80.44
-81.99
-79.09
-71.16
-58.53
-42.37
-24.39
-6.49
9.67
23.03
33.2
40.38
45.14
48.12
49.79
50.46
50.3
49.49
48.26
46.84
45.41
44.04
42.82
41.82
41.23
41.15
41.57
42.25
42.8
42.8
42.0
40.31
37.85
34.84
31.53
28.1
24.68
21.31
17.98
14.66
11.35
8.09
4.97
2.05
-0.67
-3.25
-5.75
-8.16
-10.38
-12.36
-14.12
-15.78
-17.52
-19.53
-21.85
-24.5
-27.44
-30.68
-34.21
-37.95
-41.74
-45.34
-48.6
-51.62
-54.81
-58.77
-63.99
-70.46
-77.44
-83.44
-86.56
-85.04
-77.9
-65.27
-48.35
-29.12
-9.71
8.07
23.03
34.62
42.85
48.06
50.79
51.65
51.27
50.17
48.76
47.29
45.85
44.43
43.01
41.58
40.2
38.98
38.06
37.53
37.43
37.6
37.82
37.72
36.99
35.37
32.8
29.39
25.45
21.32
17.36
13.77
10.54
7.49
4.41
1.14
-2.35
-5.92
-9.39
-12.59
-15.45
-17.99
-20.31
-22.62
-25.11
-27.97
-31.2
-34.65
-38.01
-40.95
-43.32
-45.24
-47.14
-49.62
-53.25
-58.35
-64.81
-71.9
-78.38
-82.58
-82.84
-77.97
-67.65
-52.63
-34.53
-15.42
2.69
18.36
30.76
39.78
45.78
49.39
51.29
52.05
52.08
51.51
50.42
48.85
46.93
44.93
43.17
41.92
41.31
41.33
41.83
42.58
43.3
43.68
43.46
42.39
40.38
37.45
33.8
29.72
25.54
21.5
17.68
13.98
10.19
6.13
1.77
-2.73
-7.05
-10.9
-14.17
-16.99
-19.71
-22.67
-26.07
-29.88
-33.81
-37.58
-41.01
-44.18
-47.37
-51.0
-55.43
-60.8
-66.98
-73.38
-79.03
-82.6
-82.67
-78.13
-68.54
-54.37
-36.97
-18.28
-0.23
15.66
28.6
38.45
45.57
50.41
53.35
54.64
54.39
52.84
50.33
47.37
44.55
42.35
41.02
40.52
40.62
41.0
41.4
41.65
41.66
41.4
40.8
39.8
38.28
36.2
33.52
30.38
26.89
23.28
19.71
16.24
12.87
9.47
5.96
2.31
-1.37
-4.86
-7.91
-10.35
-12.18
-13.58
-14.91
-16.58
-18.93
-22.14
-26.12
-30.51
-34.84
-38.7
-41.87
-44.46
-46.88
-49.72
-53.53
-58.72
-65.26
-72.62
-79.7
-84.92
-86.61
-83.44
-74.82
-61.18
-43.93
-24.97
-6.29
10.52
24.5
35.29
43.01
48.04
50.9
52.13
52.2
51.5
50.34
48.95
47.51
46.13
44.88
43.75
42.72
41.79
41.03
40.56
40.46
40.63
40.8
40.54
39.47
37.34
34.21
30.34
26.12
21.91
17.99
14.48
11.37
8.5
5.6
2.44
-1.09
-4.92
-8.77
-12.3
-15.26
-17.66
-19.7
-21.75
-24.09
-26.88
-30.04
-33.36
-36.61
-39.61
-42.34
-44.91
-47.6
-50.8
-54.89
-60.07
-66.15
-72.46
-77.8
-80.68
-79.67
-73.87
-63.2
-48.52
-31.39
-13.67
2.98
17.43
29.14
38.1
44.55
48.82
51.22
51.99
51.4
49.77
47.54
45.21
43.22
41.87
41.26
41.26
41.65
42.22
42.83
43.37
43.76
43.85
43.38
42.08
39.79
36.54
32.52
28.08
23.59
19.28
15.26
11.44
7.63
3.67
-0.49
-4.68
-8.64
-12.14
-15.12
-17.77
-20.44
-23.43
-26.86
-30.61
-34.45
-38.1
-41.45
-44.58
-47.71
-51.18
-55.3
-60.28
-66.04
-72.03
-77.12
-79.87
-78.79
-72.91
-62.11
-47.25
-29.9
-11.9
5.07
19.83
31.76
40.71
46.89
50.6
52.23
52.19
50.94
48.95
46.74
44.72
43.15
42.04
41.23
40.54
39.87
39.28
38.95
38.97
39.28
39.59
39.51
38.68
36.93
34.31
31.03
27.37
23.62
19.92
16.34
12.85
9.45
6.15
3.02
0.17
-2.36
-4.59
-6.61
-8.51
-10.38
-12.27
-14.29
-16.55
-19.22
-22.43
-26.15
-30.18
-34.17
-37.76
-40.76
-43.2
-45.41
-47.97
-51.49
-56.44
-62.87
-70.24
-77.37
-82.64
-84.38
-81.35
-73.09
-60.08
-43.57
-25.32
-7.17
9.3
23.02
33.51
40.82
45.42
47.93
48.97
49.03
48.38
47.19
45.56
43.62
41.55
39.58
37.91
36.75
36.19
36.24
36.75
37.45
38.0
38.09
37.56
36.31
34.41
31.94
28.96
25.61
22.01
18.36
14.78
11.39
8.17
5.11
2.14
-0.74
-3.48
-6.02
-8.33
-10.4
-12.21
-13.81
-15.21
-16.51
-17.84
-19.44
-21.49
-24.12
-27.26
-30.68
-34.06
-37.14
-39.78
-42.1
-44.4
-47.1
-50.59
-55.15
-60.81
-67.28
-73.83
-79.32
-82.32
-81.43
-75.66
-64.86
-49.83
-32.15
-13.75
3.58
18.58
30.65
39.69
45.98
49.87
51.82
52.24
51.57
50.19
48.44
46.58
44.83
43.38
42.31
41.66
41.37
41.31
41.36
41.44
41.5
41.48
41.2
40.43
38.85
36.3
32.82
28.69
24.37
20.21
16.39
12.83
9.28
5.51
1.46
-2.68
-6.55
-9.85
-12.49
-14.65
-16.71
-19.07
-21.95
-25.36
-29.08
-32.82
-36.35
-39.55
-42.47
-45.34
-48.5
-52.37
-57.23
-63.11
-69.59
-75.72
-80.16
-81.44
-78.37
-70.39
-57.74
-41.52
-23.42
-5.33
11.05
24.59
34.87
42.06
46.72
49.48
50.82
51.04
50.29
48.79
46.85
44.84
43.06
41.71
40.78
40.2
39.9
39.88
40.14
40.66
41.29
41.74
41.66
40.75
38.9
36.21
32.98
29.59
26.35
23.35
20.49
17.55
14.33
10.78
7.07
3.5
0.37
-2.18
-4.14
-5.73
-7.21
-8.86
-10.78
-12.94
-15.13
-17.13
-18.8
-20.2
-21.57
-23.27
-25.59
-28.65
-32.32
-36.32
-40.29
-43.96
-47.22
-50.19
-53.22
-56.8
-61.39
-67.2
-73.91
-80.5
-85.43
-86.97
-83.73
-75.13
-61.61
-44.51
-25.73
-7.21
9.44
23.23
33.78
41.23
46.02
48.68
49.71
49.48
48.31
46.5
44.34
42.13
40.11
38.45
37.31
36.74
36.74
37.23
38.02
38.86
39.51
39.74
39.45
38.59
37.16
35.24
32.88
30.17
27.2
24.02
20.65
17.17
13.63
10.13
6.7
3.34
-0.02
-3.42
-6.8
-10.02
-12.87
-15.26
-17.25
-19.06
-20.94
-23.11
-25.68
-28.64
-31.94
-35.45
-39.01
-42.44
-45.59
-48.46
-51.2
-54.19
-57.88
-62.59
-68.34
-74.66
-80.53
-84.51
-85.06
-80.9
-71.54
-57.44
-39.99
-21.07
-2.63
13.78
27.25
37.42
44.38
48.49
50.31
50.48
49.66
48.36
46.92
45.45
43.95
42.43
40.96
39.74
38.94
38.74
39.16
40.15
41.47
42.8
43.68
43.72
42.66
40.46
37.31
33.54
29.51
25.49
21.61
17.92
14.31
10.67
6.88
2.88
-1.28
-5.46
-9.5
-13.34
-17.02
-20.71
-24.53
-28.43
-32.27
-35.82
-38.95
-41.75
-44.61
-48.03
-52.55
-58.41
-65.44
-72.86
-79.39
-83.46
-83.55
-78.74
-68.86
-54.68
-37.64
-19.49
-1.91
13.78
26.75
36.68
43.72
48.31
51.01
52.32
52.57
51.92
50.53
48.59
46.43
44.4
42.79
41.74
41.23
41.19
41.56
42.24
43.11
43.96
44.51
44.45
43.57
41.79
39.14
35.78
31.9
27.73
23.52
19.49
15.82
12.57
9.68
7.04
4.49
1.88
-0.85
-3.68
-6.55
-9.29
-11.82
-14.02
-15.93
-17.63
-19.29
-21.16
-23.5
-26.47
-30.11
-34.26
-38.57
-42.63
-46.17
-49.16
-51.91
-54.95
-58.86
-64.02
-70.39
-77.34
-83.71
-87.85
-88.1
-83.18
-72.65
-57.17
-38.39
-18.49
0.4
16.71
29.64
39.14
45.62
49.64
51.79
52.51
52.15
51.04
49.45
47.6
45.69
43.85
42.18
40.76
39.72
39.18
39.23
39.86
40.9
42.03
42.88
43.08
42.41
40.77
38.22
34.88
30.96
26.72
22.46
18.46
14.89
11.77
8.95
6.19
3.26
0.06
-3.38
-6.87
-10.21
-13.17
-15.66
-17.69
-19.46
-21.26
-23.38
-26.02
-29.22
-32.81
