0
-28.82
-33.91
-39.72
-45.39
-49.77
-51.74
-50.45
-45.66
-37.76
-27.74
-16.93
-6.68
2.04
8.74
13.41
16.37
18.0
18.61
18.45
17.73
16.77
15.97
15.75
16.39
17.91
20.08
22.51
24.8
26.67
27.96
28.59
28.54
27.76
26.22
23.9
20.86
17.19
13.06
8.7
4.37
0.29
-3.35
-6.44
-8.99
-11.12
-13.09
-15.23
-17.87
-21.27
-25.5
-30.31
-35.07
-38.92
-40.91
-40.28
-36.73
-30.45
-22.14
-12.76
-3.33
5.25
12.37
17.69
21.13
22.85
23.11
22.28
20.76
18.93
17.19
15.83
15.06
14.95
15.44
16.39
17.62
18.99
20.37
21.63
22.63
23.14
22.94
21.83
19.73
16.72
13.06
9.14
5.38
2.1
-0.61
-2.86
-4.99
-7.34
-10.11
-13.27
-16.53
-19.57
-22.15
-24.28
-26.19
-28.28
-30.95
-34.5
-39.02
-44.3
-49.77
-54.5
-57.34
-57.22
-53.52
-46.31
-36.44
-25.27
-14.28
-4.61
3.16
9.01
13.27
16.3
18.38
19.64
20.17
20.15
19.91
19.87
20.36
21.55
23.31
25.36
27.37
29.09
30.49
31.64
32.64
33.47
33.97
33.91
33.07
31.35
28.82
25.73
22.41
19.17
16.24
13.66
11.29
8.9
6.23
3.1
-0.46
-4.27
-8.04
-11.51
-14.56
-17.31
-20.08
-23.34
-27.56
-32.99
-39.48
-46.41
-52.72
-57.15
-58.65
-56.64
-51.19
-42.98
-33.07
-22.57
-12.46
-3.44
4.05
9.8
13.83
16.29
17.47
17.7
17.32
16.61
15.82
15.19
14.92
15.2
16.05
17.32
18.76
20.06
21.01
21.6
21.89
22.0
21.93
21.56
20.7
19.19
16.99
14.26
11.32
8.51
6.09
4.11
2.42
0.74
-1.17
-3.35
-5.62
-7.65
-9.15
-10.03
-10.5
-11.04
-12.14
-14.2
-17.38
-21.55
-26.3
-30.95
-34.66
-36.53
-35.87
-32.34
-26.22
-18.27
-9.62
-1.37
5.62
10.9
14.34
16.04
16.21
15.07
12.96
10.36
7.85
6.03
5.35
5.97
7.7
10.13
12.77
15.26
17.46
19.33
20.89
22.08
22.72
22.58
21.5
19.49
16.75
13.63
10.51
7.71
5.29
3.17
1.02
-1.47
-4.5
-8.05
-11.85
-15.51
-18.67
-21.23
-23.36
-25.46
-28.06
-31.62
-36.35
-42.11
-48.35
-54.11
-58.25
-59.64
-57.54
-51.8
-42.96
-32.12
-20.61
-9.7
-0.29
7.18
12.64
16.32
18.52
19.53
19.67
19.27
18.69
18.3
18.39
19.04
20.17
21.57
23.0
24.28
25.39
26.35
27.25
28.06
28.66
28.83
28.35
27.05
25.0
22.41
19.62
16.98
14.68
12.72
10.89
8.92
6.55
3.67
0.38
-3.08
-6.38
-9.28
-11.67
-13.69
-15.71
-18.27
-21.86
-26.82
-33.1
-40.21
-47.22
-52.92
-56.1
-55.86
-51.94
-44.73
-35.28
-24.89
-14.82
-5.97
1.27
6.87
11.03
13.96
15.79
16.64
16.72
16.35
15.97
15.96
16.54
17.72
19.31
21.06
22.74
24.23
25.5
26.56
27.44
28.06
28.31
28.01
27.03
25.36
23.1
20.46
17.71
15.01
12.42
9.88
7.31
4.62
1.83
-0.96
-3.61
-5.99
-8.0
-9.58
-10.82
-11.95
-13.35
-15.41
-18.41
-22.36
-26.92
-31.4
-34.91
-36.59
-35.78
-32.25
-26.21
-18.31
-9.5
-0.8
6.94
13.14
17.56
20.16
21.05
20.42
18.58
15.97
13.21
10.97
9.77
9.84
11.08
13.12
15.54
17.98
20.2
22.07
23.46
24.25
24.36
23.76
22.52
20.75
18.6
16.18
13.6
10.9
8.09
5.11
1.84
-1.76
-5.67
-9.63
-13.32
-16.44
-18.9
-20.88
-22.85
-25.38
-28.97
-33.83
-39.74
-46.03
-51.64
-55.32
-56.0
-53.09
-46.69
-37.55
-26.86
-15.91
-5.76
2.91
9.75
14.7
17.84
19.35
19.54
18.83
17.71
16.67
16.13
16.29
17.18
18.65
20.45
22.32
24.0
25.39
26.45
27.2
27.66
27.77
27.4
26.4
24.7
22.37
19.6
16.68
13.93
11.5
9.39
7.44
5.39
3.03
0.27
-2.75
-5.78
-8.47
-10.62
-12.25
-13.67
-15.36
-17.85
-21.55
-26.65
-32.97
-39.94
-46.61
-51.74
-54.16
-53.04
-48.21
-40.29
-30.47
-20.15
-10.53
-2.36
4.13
8.99
12.4
14.49
15.4
15.29
14.48
13.37
12.43
12.02
12.36
13.45
15.12
17.1
19.11
20.93
22.45
23.67
24.65
25.43
25.94
26.0
25.41
24.03
21.91
19.31
16.6
14.12
12.0
10.12
8.16
5.76
2.73
-0.82
-4.56
-8.01
-10.79
-12.79
-14.23
-15.54
-17.23
-19.68
-23.0
-27.06
-31.43
-35.49
-38.41
-39.3
-37.42
-32.41
-24.51
-14.55
-3.82
6.35
14.89
21.26
25.36
27.41
27.72
26.63
24.47
21.62
18.51
15.54
13.08
11.37
10.54
10.61
11.5
13.0
14.77
16.44
17.67
18.22
18.02
17.1
15.58
13.56
11.15
8.45
5.56
2.55
-0.54
-3.66
-6.77
-9.77
-12.53
-14.93
-16.98
-18.84
-20.82
-23.33
-26.72
-31.18
-36.53
-42.23
-47.29
-50.53
-50.85
-47.63
-40.98
-31.73
-21.19
-10.75
-1.49
6.02
11.65
15.56
17.97
19.07
19.04
18.12
16.67
15.13
13.98
13.57
14.09
15.51
17.6
20.05
22.52
24.77
26.67
28.16
29.18
29.61
29.28
28.05
25.91
23.02
19.68
16.28
13.13
10.44
8.23
6.41
4.75
2.99
0.86
-1.77
-4.89
-8.28
-11.64
-14.68
-17.26
-19.49
-21.65
-24.13
-27.32
-31.55
-36.96
-43.32
-49.92
-55.59
-58.91
-58.65
-54.19
-45.78
-34.47
-21.81
-9.39
1.59
10.43
16.98
21.38
23.95
25.06
25.1
24.48
23.59
22.78
22.28
22.2
22.52
23.14
23.93
24.81
25.74
26.71
27.71
28.66
29.37
29.6
29.17
28.0
26.19
23.93
21.43
18.87
16.35
13.89
11.53
9.3
7.21
5.26
3.36
1.34
-0.94
-3.57
-6.54
-9.71
-12.87
-15.84
-18.5
-20.95
-23.42
-26.28
-29.95
-34.72
-40.57
-47.04
-53.22
-57.88
-59.8
-58.15
-52.75
-44.15
-33.49
-22.13
-11.3
-1.85
5.78
11.46
15.26
17.32
17.89
17.33
16.11
14.79
13.83
13.53
13.96
15.0
16.47
18.22
20.16
22.19
24.14
25.7
26.56
26.46
25.36
23.4
20.89
18.11
15.27
12.46
9.64
6.74
3.67
0.37
-3.07
-6.45
-9.48
-11.88
-13.57
-14.74
-15.82
-17.36
-19.84
-23.5
-28.26
-33.71
-39.05
-43.27
-45.29
-44.24
-39.78
-32.2
-22.4
-11.66
-1.25
7.84
15.06
20.25
23.56
25.24
25.58
24.89
23.45
21.61
19.73
18.15
17.15
16.88
17.3
18.25
19.53
20.93
22.32
23.66
24.86
25.82
26.31
26.1
25.03
23.09
20.43
17.36
14.18
11.15
8.39
5.86
3.47
1.03
-1.62
-4.58
-7.85
-11.3
-14.72
-17.86
-20.6
-22.99
-25.28
-27.88
-31.24
-35.73
-41.49
-48.26
-55.37
-61.68
-65.87
-66.7
-63.4
-55.94
-45.08
-32.18
-18.83
-6.44
4.01
12.11
17.96
21.89
24.37
25.78
26.47
26.75
26.97
27.46
28.47
30.01
31.91
33.85
35.59
36.99
38.12
39.06
39.84
40.33
40.31
39.6
38.06
35.7
32.59
28.88
24.74
20.4
16.1
12.12
8.64
5.69
3.13
0.7
-1.87
-4.75
-7.96
-11.38
-14.79
-17.98
-20.84
-23.37
-25.73
-28.18
-31.03
-34.55
-39.02
-44.49
-50.76
-57.16
-62.62
-65.83
-65.62
-61.33
-53.1
-41.86
-29.07
-16.26
-4.68
4.93
12.34
17.6
20.92
22.53
22.66
21.6
19.72
17.51
15.51
14.21
13.97
14.9
16.86
19.44
22.17
24.65
26.64
28.1
29.08
29.61
29.63
29.01
27.64
25.55
22.92
20.07
17.28
14.7
12.3
9.9
7.28
4.29
0.92
-2.69
-6.29
-9.65
-12.62
-15.2
-17.6
-20.16
-23.26
-27.26
-32.29
-38.15
-44.16
-49.26
-52.2
-51.85
-47.64
-39.73
-29.06
-17.03
-5.14
5.42
13.99
20.4
24.75
27.27
28.15
27.59
25.93
23.62
21.26
19.4
18.41
18.38
19.19
20.6
22.39
24.37
26.39
28.28
29.83
30.8
30.99
30.28
28.69
26.4
23.63
20.63
17.55
14.47
11.39
8.32
5.28
2.36
-0.35
-2.87
-5.3
-7.8
-10.52
-13.47
-16.49
-19.39
-22.01
-24.39
-26.7
-29.27
-32.51
-36.77
-42.23
-48.77
-55.79
-62.22
-66.65
-67.69
-64.45
-56.84
-45.69
-32.46
-18.81
-6.13
4.66
13.16
19.35
23.43
25.68
26.46
26.18
25.28
24.26
23.51
23.35
23.92
25.21
27.07
29.3
31.65
33.9
35.88
37.42
38.36
38.57
37.95
36.52
34.42
31.87
29.15
26.43
23.79
21.23
18.67
16.03
13.26
10.36
7.41
4.49
1.67
-1.05
-3.74
-6.51
-9.42
-12.46
-15.56
-18.6
-21.5
-24.29
-27.08
-30.11
-33.64
-37.98
-43.35
-49.71
-56.56
-62.9
-67.32
-68.4
-65.15
-57.49
-46.28
-33.09
-19.66
-7.43
2.75
10.64
16.38
20.32
22.81
24.13
24.52
24.22
23.46
22.51
21.71
21.36
21.72
22.87
24.72
27.02
29.48
31.84
33.97
35.78
37.14
37.86
37.69
36.47
34.21
31.18
27.8
24.46
21.4
18.6
15.91
13.14
10.24
7.32
4.55
2.09
-0.08
-2.13
-4.35
-7.0
-10.12
-13.6
-17.12
-20.36
-23.13
-25.5
-27.83
-30.67
-34.54
-39.73
-46.09
-52.93
-59.13
-63.32
-64.25
-61.09
-53.75
-42.9
-29.89
-16.33
-3.74
6.81
14.84
20.39
23.79
25.44
25.68
24.8
23.12
21.01
18.91
17.28
16.44
16.57
17.65
19.46
21.7
23.99
26.03
27.63
28.78
29.49
29.74
29.41
28.27
26.16
23.08
19.33
15.36
11.68
8.54
5.95
3.64
1.29
-1.4
-4.49
-7.9
-11.36
-14.6
-17.42
-19.77
-21.81
-23.87
-26.35
-29.67
-34.12
-39.74
-46.26
-52.96
-58.74
-62.25
-62.26
-58.07
-49.74
-38.19
-24.91
-11.55
0.52
10.48
18.09
23.43
26.75
28.27
28.26
27.07
25.22
23.3
21.86
21.22
21.47
22.47
23.98
25.77
27.68
29.59
31.39
32.88
33.89
34.21
33.73
32.43
30.33
27.55
24.23
20.54
16.65
12.73
8.92
5.36
2.15
-0.72
-3.3
-5.78
-8.36
-11.18
-14.27
-17.46
-20.48
-23.12
-25.32
-27.26
-29.36
-32.13
-36.06
-41.36
-47.87
-54.86
-61.16
-65.3
-65.94
-62.22
-54.13
-42.53
-28.92
-15.0
-2.27
8.33
16.45
22.18
25.83
27.73
28.15
27.37
25.74
23.72
21.84
20.61
20.34
21.1
22.69
24.8
27.05
29.19
31.07
32.61
33.75
34.43
34.54
34.01
32.79
30.92
28.53
25.76
22.78
19.76
16.8
13.99
11.29
8.59
5.74
2.63
-0.71
-4.15
-7.5
-10.58
-13.35
-15.92
-18.55
-21.57
-25.3
-29.95
-35.54
-41.79
-48.07
-53.4
-56.62
-56.67
-52.92
-45.41
-34.88
-22.61
-10.05
1.48
11.08
18.34
23.22
25.91
26.69
25.89
23.87
21.08
18.08
15.45
13.72
13.2
13.99
15.9
18.6
21.64
24.63
27.22
29.11
30.11
30.03
28.81
26.52
23.38
19.74
16.0
12.48
9.33
6.48
3.73
0.8
-2.44
-6.02
-9.75
-13.36
-16.62
-19.45
-21.95
-24.43
-27.37
-31.22
-36.31
-42.68
-49.87
-56.94
-62.55
-65.21
-63.78
-57.81
-47.81
-35.08
-21.4
-8.44
2.65
11.4
17.9
22.49
25.5
27.1
27.39
26.58
25.04
23.34
22.08
21.73
22.51
24.32
26.87
29.72
32.47
34.82
36.6
37.71
38.14
37.86
36.8
34.9
32.17
28.71
24.71
20.43
16.15
12.09
8.38
4.98
1.76
-1.54
-5.11
-9.04
-13.2
-17.27
-20.93
-24.0
-26.56
-28.99
-31.81
-35.54
-40.54
-46.88
-54.31
-62.09
-69.07
-73.78
-74.75
-71.03
-62.53
-50.16
-35.53
-20.5
-6.6
5.27
14.81
22.14
27.54
31.25
33.52
34.66
35.04
35.03
34.94
34.92
35.01
35.19
35.46
35.89
36.54
37.4
38.38
39.28
39.89
40.01
39.51
38.36
36.59
34.29
31.57
28.54
25.31
22.0
18.69
15.45
12.3
9.24
6.23
3.25
0.29
-2.68
-5.71
-8.82
-12.05
-15.36
-18.64
-21.82
-24.86
-27.88
-31.12
-34.96
-39.74
-45.64
-52.5
-59.7
-66.19
-70.64
-71.74
-68.63
-61.15
-50.01
-36.55
-22.4
-9.04
2.51
11.74
18.56
23.15
25.8
26.88
26.8
26.02
25.01
24.17
23.8
24.09
25.07
26.72
28.91
31.44
34.01
36.28
37.92
38.72
38.63
37.77
36.34
34.51
32.33
29.78
26.81
23.51
20.05
16.66
13.56
10.82
8.41
6.17
3.93
1.54
-1.07
-3.91
-6.88
-9.81
-12.53
-14.95
-17.18
-19.47
-22.18
-25.62
-29.95
-35.16
-41.02
-47.12
-52.74
-56.95
-58.64
-56.87
-51.21
-41.99
-30.27
-17.58
-5.41
5.14
13.51
19.6
23.57
25.63
26.01
25.02
23.12
20.87
18.86
17.55
17.2
17.81
19.26
21.31
23.71
26.23
28.64
30.69
32.12
32.69
32.26
30.82
28.53
25.71
22.7
19.78
17.08
14.56
12.11
9.61
7.03
4.4
1.82
-0.64
-2.98
-5.25
-7.56
-10.02
-12.7
-15.58
-18.59
-21.62
-24.57
-27.46
-30.39
-33.62
-37.47
-42.19
-47.87
-54.25
-60.58
-65.71
-68.3
-67.2
-61.88
-52.66
-40.69
-27.53
-14.71
-3.36
6.01
13.31
18.7
22.33
24.33
24.86
24.24
22.95
21.53
20.51
20.18
20.64
21.81
23.5
25.5
27.6
29.62
31.37
32.66
33.32
33.26
32.46
30.95
28.83
26.25
23.37
20.37
17.4
14.55
11.82
9.14
6.37
3.53
0.71
-1.9
-4.17
-6.1
-7.87
-9.75
-11.98
-14.61
-17.57
-20.68
-23.82
-26.89
-29.91
-32.98
-36.28
-40.08
-44.67
-50.12
-56.13
-61.81
-65.86
-66.91
-63.95
-56.79
-46.11
-33.26
-19.86
-7.34
3.33
11.74
17.86
21.94
24.27
25.13
24.82
23.75
22.41
21.3
20.84
21.16
22.14
23.51
25.05
26.69
28.47
30.38
32.26
33.75
34.48
34.23
33.09
31.34
29.36
27.38
25.42
23.31
20.83
17.9
14.55
11.02
7.59
4.54
2.01
-0.04
-1.85
-3.72
-5.93
-8.59
-11.6
-14.72
-17.73
-20.58
-23.4
-26.48
-30.15
-34.67
-40.12
-46.3
-52.74
-58.65
-62.99
-64.69
-62.92
-57.36
-48.37
-36.94
-24.48
-12.44
-1.98
6.19
11.87
15.22
16.65
16.65
15.68
14.22
12.72
11.57
11.15
11.68
13.2
15.57
18.49
21.57
24.47
26.95
28.88
30.18
30.84
30.77
29.93
28.26
25.78
22.66
19.19
15.72
12.55
9.79
7.34
4.98
2.43
-0.47
-3.67
-7.0
-10.18
-12.98
-15.27
-17.11
-18.73
-20.55
-23.05
-26.67
-31.63
-37.83
-44.75
-51.46
-56.78
-59.5
-58.68
-53.91
-45.46
-34.28
-21.77
-9.4
1.62
10.59
17.27
21.8
24.45
25.52
25.33
24.24
22.73
21.28
20.34
20.17
20.82
22.16
23.98
26.04
28.16
30.19
32.0
33.43
34.29
34.42
33.71
32.17
29.95
27.27
24.41
21.5
18.59
15.64
12.62
9.56
6.63
3.97
1.6
-0.63
-3.01
-5.81
-9.12
-12.76
-16.45
-19.88
-22.95
-25.76
-28.61
-31.89
-35.95
-41.09
-47.42
-54.77
-62.48
-69.35
-73.88
-74.61
-70.64
-61.97
-49.6
-35.19
-20.6
-7.36
3.65
12.14
18.33
22.6
25.36
26.95
27.64
27.74
27.53
27.31
27.36
27.91
29.05
30.79
33.04
35.6
38.21
40.57
42.4
43.47
43.6
42.7
40.81
38.08
34.8
31.31
27.92
24.81
22.0
19.39
16.84
14.26
11.69
9.19
6.82
4.54
2.21
-0.34
-3.25
-6.58
-10.27
-14.18
-18.1
-21.83
-25.25
-28.47
-31.81
-35.82
-40.98
-47.49
-54.97
-62.37
-68.19
-70.88
-69.28
-63.05
-52.75
-39.71
-25.6
-12.02
-0.14
9.4
16.51
21.39
24.38
25.85
26.16
25.7
24.9
24.18
23.89
24.21
25.15
26.58
28.3
30.12
31.91
33.56
34.92
35.83
36.14
35.77
34.69
32.97
30.64
27.73
24.32
20.52
16.59
12.86
9.62
6.96
4.76
2.71
0.46
-2.18
-5.17
-8.26
-11.11
-13.49
-15.41
-17.07
-18.82
-21.05
-24.08
-28.08
-33.05
-38.73
-44.54
-49.59
-52.75
-52.98
-49.59
-42.61
-32.77
-21.42
-10.09
-0.04
7.98
13.79
17.62
19.82
20.65
20.29
18.98
17.08
15.15
13.83
13.55
14.46
16.36
18.82
21.41
23.83
25.94
27.69
29.03
29.91
30.25
29.96
28.99
27.28
24.81
21.66
18.03
14.23
10.61
7.4
4.64
2.17
-0.26
-2.82
-5.59
-8.47
-11.35
-14.09
-16.65
-19.04
-21.41
-23.95
-26.92
-30.63
-35.32
-41.05
-47.56
-54.16
-59.77
-63.12
-63.07
-59.0
-51.04
-40.11
-27.6
-15.03
-3.59
5.99
13.49
18.94
22.49
24.35
24.79
24.23
23.18
22.22
21.82
22.18
23.29
24.9
26.71
28.44
29.89
31.0
31.78
32.27
32.49
32.42
31.95
30.92
29.21
26.74
23.61
20.04
16.36
12.88
9.82
7.23
5.04
3.06
1.09
-1.07
-3.59
-6.57
-9.97
-13.63
-17.27
-20.57
-23.35
-25.61
-27.68
-30.06
-33.35
-38.0
-44.07
-51.04
-57.83
-62.97
-64.99
-62.83
-56.26
-45.95
-33.27
-19.88
-7.22
3.75
12.66
19.53
24.59
28.07
30.14
31.02
31.0
30.45
29.79
29.38
29.45
30.02
30.97
32.06
33.05
33.79
34.21
34.35
34.24
33.89
33.25
32.18
30.56
28.32
25.5
22.26
18.8
15.36
12.14
9.27
6.79
4.58
2.45
0.14
-2.58
-5.77
-9.33
-12.96
-16.37
-19.38
-22.03
-24.61
-27.54
-31.22
-35.88
-41.5
-47.78
-54.08
-59.53
-63.08
-63.72
-60.82
-54.27
-44.69
-33.22
-21.24
-10.01
-0.41
7.19
12.76
16.47
18.56
19.24
18.8
17.6
16.16
14.99
14.56
15.1
16.57
18.76
21.34
24.02
26.55
28.74
30.35
31.12
30.83
29.43
27.05
24.03
20.72
17.43
14.26
11.19
8.16
5.15
2.14
-0.89
-3.94
-7.02
-10.06
-12.92
-15.44
-17.64
-19.78
-22.33
-25.78
-30.39
-35.89
-41.49
-46.0
-48.19
-47.16
-42.6
-34.9
-24.99
-14.1
-3.41
6.1
13.88
19.73
23.69
25.96
26.8
26.54
25.55
24.26
23.08
22.35
22.22
22.69
23.59
24.67
25.71
26.57
27.2
27.6
27.77
27.64
27.09
25.97
24.16
21.68
18.67
15.41
12.19
9.22
6.52
3.98
1.4
-1.41
-4.5
-7.8
-11.14
-14.32
-17.18
-19.67
-21.94
-24.26
-27.05
-30.76
-35.68
-41.77
-48.48
-54.77
-59.36
-61.01
-58.95
-53.09
-44.06
-33.01
-21.26
-10.04
-0.25
7.64
13.53
17.6
20.17
21.61
22.24
22.38
22.34
22.44
22.98
24.11
25.76
27.7
29.57
31.13
32.36
33.36
34.3
35.14
35.66
35.48
34.29
31.99
28.76
25.01
21.18
17.64
14.61
12.09
9.87
7.59
4.88
1.46
-2.65
-7.11
-11.44
-15.19
-18.22
-20.7
-23.06
-25.81
-29.36
-33.95
-39.56
-45.87
-52.18
-57.43
-60.37
-59.92
-55.55
-47.57
-37.02
-25.37
-14.08
-4.2
3.74
9.7
13.9
16.68
18.38
19.29
19.69
19.81
19.84
19.95
20.22
20.71
21.34
22.04
22.71
23.3
23.85
24.42
24.99
25.41
25.41
24.71
23.15
20.8
17.9
14.81
11.8
8.99
6.35
3.75
1.08
-1.66
-4.41
-7.02
-9.35
-11.32
-12.95
-14.4
-15.93
-17.88
-20.57
-24.2
-28.69
-33.62
-38.2
-41.39
-42.18
-39.91
-34.57
-26.82
-17.79
-8.73
-0.6
6.08
11.22
14.95
17.39
18.64
18.78
18.02
16.75
15.46
14.6
14.46
15.1
16.42
18.16
20.08
21.94
23.55
24.79
25.54
25.66
25.02
23.55
21.23
18.24
14.83
11.32
7.97
4.9
2.08
-0.6
-3.28
-6.06
-8.91
-11.78
-14.53
-17.07
-19.34
-21.42
-23.55
-26.08
-29.41
-33.81
-39.25
-45.24
-50.85
-54.88
-56.19
-54.02
-48.29
-39.63
-29.17
-18.2
-7.83
1.21
8.58
14.2
18.19
20.76
22.16
22.68
22.69
22.51
22.42
22.6
23.13
23.98
25.05
26.19
27.29
28.27
29.09
29.75
30.18
30.21
29.63
28.21
25.87
22.72
19.05
15.3
11.87
8.98
6.6
4.46
2.19
-0.56
-3.89
-7.66
-11.48
-14.96
-17.81
-20.01
-21.83
-23.68
-26.05
-29.34
-33.78
-39.28
-45.33
-51.0
-55.06
-56.28
-53.83
-47.63
-38.35
-27.23
-15.69
-4.93
4.32
11.78
17.46
21.52
24.12
25.42
25.63
25.06
24.09
23.11
22.49
22.48
23.15
24.34
25.75
27.02
27.9
28.34
28.46
28.4
28.2
27.72
26.66
24.8
22.09
18.8
15.33
12.12
9.4
7.15
5.12
3.01
0.59
-2.18
-5.19
-8.23
-11.15
-13.91
-16.58
-19.32
-22.29
-25.61
-29.44
-33.92
-39.11
-44.86
-50.58
-55.27
-57.71
-56.81
-52.13
-44.03
-33.6
-22.34
-11.65
-2.54
4.5
9.41
12.33
13.57
13.45
12.35
10.75
9.13
7.97
7.66
8.39
10.14
12.64
15.52
18.31
20.69
22.44
23.51
23.95
23.77
22.96
21.48
19.29
16.38
12.83
8.79
4.42
-0.02
-4.28
-8.11
-11.35
-14.0
-16.18
-18.16
-20.29
-22.89
-26.24
-30.46
-35.44
-40.68
-45.31
-48.19
-48.23
-44.71
-37.68
-27.93
-16.8
-5.81
3.85
11.52
17.11
20.9
23.28
24.52
24.74
24.01
22.53
20.69
18.99
17.94
17.8
18.53
19.85
21.43
23.03
24.53
25.87
26.92
27.41
27.02
25.54
22.97
19.56
15.75
11.93
8.35
5.02
1.77
-1.61
-5.28
-9.19
-13.15
-16.9
-20.24
-23.11
-25.71
-28.39
-31.6
-35.72
-40.97
-47.22
-53.93
-60.1
-64.41
-65.57
-62.64
-55.47
-44.76
-31.94
-18.68
-6.51
3.62
11.41
17.05
20.95
23.56
25.18
25.99
26.16
25.93
25.59
25.49
25.93
27.05
28.81
30.99
33.31
35.52
37.48
39.07
40.22
40.74
40.34
38.8
35.99
32.07
27.45
22.65
18.1
14.01
10.26
6.59
2.74
-1.37
-5.59
-9.61
-13.21
-16.36
-19.26
-22.35
-26.1
-30.9
-36.9
-43.85
-51.05
-57.33
-61.32
-61.75
-57.89
-49.84
-38.57
-25.59
-12.56
-0.79
8.98
16.51
21.92
25.45
27.33
27.79
27.14
25.81
24.28
23.04
22.45
22.67
23.64
25.12
26.8
28.4
29.72
30.67
31.2
31.26
30.71
29.41
27.29
24.41
20.95
17.19
13.35
9.56
5.83
2.21
-1.26
-4.45
-7.28
-9.77
-12.06
-14.4
-17.08
-20.39
-24.48
-29.35
-34.68
-39.76
-43.54
-44.89
-42.96
-37.55
-29.17
-18.95
-8.19
1.97
10.8
17.95
23.28
26.74
28.32
28.12
26.48
23.91
21.06
18.54
16.81
16.14
16.57
17.97
20.05
22.46
24.78
26.6
27.59
27.56
26.5
24.59
22.08
19.25
16.22
12.96
9.34
5.27
0.84
-3.7
-8.0
-11.79
-15.04
-17.91
-20.7
-23.66
-27.03
-30.97
-35.62
-40.97
-46.68
-51.96
-55.68
-56.59
-53.84
-47.29
-37.65
-26.24
-14.53
-3.78
5.25
12.31
17.44
20.83
22.69
23.25
22.8
21.73
20.48
19.43
18.89
18.99
19.74
21.05
22.75
24.61
26.35
27.66
28.29
28.11
27.11
25.37
23.08
20.39
17.48
14.47
11.43
8.33
5.12
1.7
-1.93
-5.67
-9.27
-12.47
-15.11
-17.25
-19.19
-21.42
-24.42
-28.49
-33.58
-39.18
-44.38
-48.0
-48.92
-46.42
-40.36
-31.34
-20.47
-9.11
1.51
10.51
17.51
22.48
25.66
27.37
27.96
27.77
27.11
26.31
25.6
25.17
25.08
25.28
25.69
26.23
26.86
27.52
28.15
28.6
28.61
27.95
26.44
24.09
21.09
17.74
14.36
11.12
8.04
5.06
2.04
-1.1
-4.36
-7.67
-10.91
-13.95
-16.69
-19.13
-21.46
-24.05
-27.32
-31.57
-36.74
-42.2
-46.89
-49.61
-49.36
-45.77
-39.18
-30.52
-21.04
-11.91
-3.99
2.34
7.05
10.35
12.51
13.69
14.0
13.56
12.62
11.61
11.0
11.18
12.27
14.02
15.99
17.69
18.8
19.23
19.13
18.69
18.05
17.13
15.73
13.58
10.52
6.62
2.19
-2.3
-6.36
-9.68
-12.23
-14.25
-16.16
-18.35
-21.12
-24.56
-28.57
-32.79
-36.67
-39.49
-40.47
-38.97
-34.73
-27.98
-19.42
-10.11
-1.1
6.78
13.12
17.88
21.15
23.04
23.58
22.84
21.06
18.75
16.59
15.23
15.03
15.94
17.56
19.38
20.98
22.1
22.65
22.61
21.93
20.55
18.45
15.7
12.48
9.04
5.57
2.17
-1.18
-4.56
-8.01
-11.51
-14.9
-18.01
-20.74
-23.16
-25.57
-28.41
-32.09
-36.82
-42.37
-48.07
-52.87
-55.65
-55.49
-51.94
-45.14
-35.87
-25.25
-14.53
-4.74
3.5
10.01
14.96
18.67
21.44
23.43
24.71
25.36
25.55
25.53
25.63
26.09
26.99
28.26
29.73
31.22
32.56
33.58
34.13
34.09
33.38
32.02
30.08
27.68
24.87
21.7
18.19
14.38
10.36
6.26
2.22
-1.62
-5.18
-8.5
-11.71
-15.05
-18.86
-23.47
-29.09
-35.61
-42.51
-48.87
-53.46
-55.14
-53.16
-47.47
-38.77
-28.33
-17.55
-7.62
0.78
7.52
12.82
16.97
20.18
22.48
23.84
24.29
24.04
23.41
22.8
22.51
22.68
23.26
24.08
24.93
25.61
26.0
25.97
25.42
24.31
22.6
20.38
17.73
14.77
11.57
8.18
4.65
1.11
-2.31
-5.46
-8.26
-10.74
-13.07
-15.46
-18.17
-21.38
-25.2
-29.55
-34.12
-38.36
-41.47
-42.61
-41.11
-36.7
-29.68
-20.87
-11.4
-2.4
5.26
11.13
15.15
17.47
18.36
18.07
16.91
15.24
13.5
12.14
11.52
11.8
12.9
14.59
16.54
18.44
20.02
21.06
21.43
21.08
20.04
18.46
16.45
14.13
11.47
8.38
4.78
0.75
-3.46
-7.47
-10.96
-13.83
-16.27
-18.68
-21.49
-25.07
-29.53
-34.74
-40.3
-45.58
-49.79
-52.08
-51.73
-48.35
-42.04
-33.39
-23.39
-13.13
-3.57
4.64
11.25
16.29
19.95
22.42
23.81
24.2
23.74
22.76
21.76
21.24
21.53
22.58
24.08
25.6
26.78
27.49
27.71
27.49
26.77
25.46
23.47
20.82
17.72
14.42
11.18
8.12
5.21
2.27
-0.86
-4.29
-7.97
-11.67
-15.09
-17.98
-20.31
-22.36
-24.67
-27.8
-32.11
-37.55
-43.56
-49.22
-53.4
-55.1
-53.66
-48.9
-41.2
-31.37
-20.48
-9.66
0.13
8.31
14.63
19.18
22.18
23.91
24.64
24.62
24.2
23.75
23.68
24.24
25.49
27.23
29.13
30.85
32.19
33.08
33.55
33.58
33.09
31.91
29.9
27.06
23.53
19.67
15.84
12.33
9.21
6.32
3.34
-0.0
-3.78
-7.79
-11.66
-15.03
-17.78
-20.07
-22.31
-25.04
-28.66
-33.32
-38.84
-44.7
-50.09
-53.99
-55.42
-53.67
-48.54
-40.47
-30.43
-19.68
-9.42
-0.52
6.58
11.86
15.52
17.87
19.19
19.74
19.72
19.37
18.93
18.62
18.61
19.0
19.72
20.68
21.75
22.85
23.96
25.05
25.98
26.54
26.42
25.38
23.36
20.49
17.04
13.34
9.59
5.94
2.44
-0.82
-3.76
-6.3
-8.49
-10.52
-12.71
-15.41
-18.9
-23.22
-28.19
-33.29
-37.78
-40.78
-41.47
-39.29
-34.15
-26.54
-17.35
-7.71
1.31
8.91
14.64
18.39
20.25
20.47
19.41
17.49
15.18
12.99
11.32
10.49
10.62
11.63
13.3
15.32
17.36
19.14
20.47
21.2
21.24
20.51
19.01
16.86
14.23
11.31
8.24
5.01
1.59
-2.04
-5.77
-9.38
-12.67
-15.53
-18.07
-20.55
-23.28
-26.58
-30.67
-35.65
-41.36
-47.34
-52.71
-56.33
-57.05
-54.12
-47.45
-37.71
-26.17
-14.29
-3.33
5.88
13.03
18.19
21.67
23.77
24.8
24.98
24.51
23.65
22.69
21.94
21.68
22.06
23.07
24.52
26.12
27.53
28.45
28.73
28.29
27.14
25.37
23.05
20.29
17.2
13.88
10.39
6.75
2.99
-0.87
-4.73
-8.42
-11.8
-14.8
-17.46
-20.0
-22.74
-26.08
-30.37
-35.78
-42.12
-48.74
-54.55
-58.24
-58.6
-54.96
-47.42
-36.82
-24.59
-12.23
-1.0
8.41
15.83
21.44
25.56
28.41
30.1
30.69
30.33
29.39
28.38
27.78
27.86
28.59
29.75
31.05
32.32
33.53
34.66
35.59
36.07
35.73
34.3
31.72
28.2
24.13
19.96
16.04
12.54
9.37
6.25
2.89
-0.9
-5.07
-9.29
-13.15
-16.32
-18.77
-20.84
-23.08
-26.06
-30.19
-35.56
-41.92
-48.69
-54.91
-59.4
-60.92
-58.56
-52.08
-42.09
-29.93
-17.24
-5.53
4.25
11.73
17.01
20.42
22.3
22.91
22.53
21.46
20.03
18.6
17.5
16.96
17.13
17.99
19.39
21.04
22.62
23.84
24.54
24.68
24.27
23.34
21.82
19.65
16.83
13.43
9.62
5.62
1.6
-2.3
-6.02
-9.49
-12.66
-15.51
-18.14
-20.75
-23.65
-27.13
-31.31
-36.01
-40.67
-44.43
-46.25
-45.25
-41.02
-33.72
-24.16
-13.48
-2.93
6.5
14.18
19.85
23.47
25.16
25.13
23.71
21.45
18.97
16.93
15.8
15.77
16.74
18.43
20.47
22.53
24.35
25.72
26.48
26.56
25.94
24.66
22.78
20.38
17.48
14.11
10.31
6.18
1.85
-2.53
-6.86
-11.08
-15.08
-18.74
-21.96
-24.7
-27.19
-29.91
-33.49
-38.37
-44.52
-51.15
-56.89
-60.11
-59.48
-54.43
-45.33
-33.43
-20.37
-7.72
3.39
12.41
19.26
24.14
27.27
28.91
29.3
28.75
27.72
26.65
25.92
25.74
26.1
26.88
27.94
29.15
30.39
31.51
32.28
32.47
31.83
30.27
27.83
24.65
20.96
16.99
12.95
8.91
4.87
0.75
-3.48
-7.76
-11.91
-15.68
-18.93
-21.67
-24.2
-26.96
-30.46
-35.0
-40.53
-46.54
-52.11
-56.04
-57.19
-54.72
-48.43
-38.85
-27.13
-14.71
-2.94
7.23
15.34
21.34
25.42
27.79
28.68
28.35
27.17
25.59
24.09
23.05
22.65
22.86
23.49
24.32
25.17
25.96
26.66
27.21
27.52
27.42
26.75
25.35
23.19
20.31
16.84
12.93
8.73
4.4
0.11
-3.95
-7.61
-10.77
-13.48
-15.99
-18.66
-21.91
-26.05
-31.16
-36.93
-42.71
-47.47
-50.1
-49.6
-45.47
-37.86
-27.61
-16.0
-4.43
5.94
14.41
20.71
24.91
27.16
27.68
26.7
24.56
21.75
18.89
16.6
15.29
15.1
15.84
17.14
18.58
19.87
20.81
21.35
21.54
21.35
20.74
19.6
17.76
15.14
11.74
7.79
3.61
-0.39
-3.93
-6.9
-9.41
-11.72
-14.17
-17.12
-20.89
-25.7
-31.54
-38.01
-44.25
-49.06
-51.26
-50.02
-45.22
-37.42
-27.68
-17.16
-6.92
2.29
9.94
15.72
19.53
21.43
21.71
20.77
19.09
17.13
15.35
14.16
13.91
14.8
16.74
19.37
22.14
24.41
25.7
25.83
24.87
23.11
20.87
18.44
15.96
13.43
10.76
7.79
4.43
0.7
-3.24
-7.13
-10.73
-13.9
-16.73
-19.47
-22.46
-26.09
-30.59
-36.0
-42.0
-47.94
-52.83
-55.54
-55.11
-50.99
-43.3
-32.79
-20.68
-8.29
3.27
13.26
21.39
27.7
32.39
35.7
37.85
38.95
39.09
38.41
37.16
35.7
34.43
33.71
33.66
34.17
34.86
35.31
35.15
34.17
32.38
29.89
26.91
23.61
20.15
16.58
12.9
9.08
5.11
1.07
-2.92
-6.71
-10.17
-13.31
-16.25
-19.17
-22.2
-25.48
-29.09
-33.1
-37.52
-42.11
-46.31
-49.18
-49.75
-47.34
-41.94
-34.26
-25.43
-16.57
-8.4
-1.12
5.39
11.21
16.19
19.96
22.17
22.76
22.04
20.59
19.04
17.9
17.4
17.55
18.24
19.32
20.71
22.33
24.13
25.92
27.41
28.17
27.78
26.05
23.04
19.19
15.05
11.15
7.74
4.83
2.13
-0.71
-4.05
-8.17
-13.18
-19.02
-25.3
-31.31
-36.06
-38.56
-38.06
-34.34
-27.83
-19.44
-10.35
-1.64
5.93
11.94
16.28
19.01
20.22
20.07
18.83
16.85
14.6
12.54
11.04
10.31
10.38
11.09
12.14
13.21
14.04
14.48
14.48
14.09
13.34
12.22
10.62
8.37
5.38
1.63
-2.68
-7.22
-11.57
-15.39
-18.51
-20.96
-23.04
-25.2
-27.98
-31.79
-36.78
-42.64
-48.62
-53.58
-56.24
-55.58
-51.17
-43.37
-33.26
-22.29
-11.9
-3.07
