0
-86.75
-87.78
-83.0
-72.19
-56.34
-37.39
-17.68
0.59
15.86
27.36
35.01
39.17
40.44
39.37
36.51
32.45
27.9
23.69
20.65
19.35
19.91
21.93
24.78
27.83
30.72
33.35
35.73
37.68
38.82
38.55
36.51
32.69
27.59
22.0
16.67
11.99
7.9
4.0
-0.17
-4.86
-9.99
-15.21
-19.99
-23.9
-26.73
-28.62
-30.12
-32.0
-35.08
-40.01
-46.93
-55.29
-63.74
-70.35
-73.09
-70.44
-61.87
-48.07
-30.77
-12.19
5.5
20.61
32.16
39.88
43.97
45.0
43.71
40.91
37.39
33.81
30.68
28.31
26.88
26.47
27.03
28.39
30.26
32.28
34.07
35.28
35.64
34.99
33.3
30.65
27.22
23.22
18.85
14.27
9.59
4.86
0.07
-4.83
-9.88
-15.1
-20.44
-25.75
-30.82
-35.6
-40.29
-45.49
-51.94
-60.11
-69.65
-79.18
-86.52
-89.29
-85.81
-75.72
-60.14
-41.26
-21.68
-3.61
11.51
23.07
31.1
36.0
38.19
38.21
36.59
33.94
30.94
28.32
26.62
26.17
26.83
28.19
29.68
30.84
31.51
31.81
32.02
32.3
32.51
32.23
30.91
28.2
24.12
19.08
13.75
8.67
4.09
-0.13
-4.39
-9.09
-14.39
-20.17
-26.02
-31.42
-35.96
-39.49
-42.2
-44.62
-47.54
-51.72
-57.72
-65.45
-74.01
-81.73
-86.53
-86.47
-80.42
-68.42
-51.71
-32.36
-12.73
5.16
19.9
30.84
37.96
41.65
42.52
41.34
38.91
36.09
33.59
31.89
31.15
31.21
31.7
32.26
32.73
33.1
33.5
34.02
34.56
34.88
34.61
33.43
31.18
27.93
23.91
19.49
14.99
10.63
6.38
2.06
-2.6
-7.74
-13.27
-18.89
-24.17
-28.8
-32.74
-36.21
-39.72
-43.82
-49.04
-55.7
-63.6
-72.03
-79.51
-84.23
-84.4
-78.93
-67.77
-52.04
-33.66
-14.89
2.28
16.5
27.08
33.95
37.46
38.13
36.6
33.57
29.75
25.85
22.52
20.28
19.43
19.98
21.65
23.98
26.46
28.69
30.45
31.62
32.14
31.91
30.79
28.64
25.4
21.09
15.89
10.05
3.88
-2.27
-8.09
-13.34
-17.97
-22.12
-26.19
-30.74
-36.36
-43.41
-51.77
-60.69
-68.71
-74.08
-75.15
-70.84
-61.0
-46.52
-29.01
-10.49
7.06
22.12
33.71
41.53
45.81
47.18
46.41
44.27
41.36
38.15
35.02
32.34
30.46
29.69
30.17
31.85
34.44
37.5
40.42
42.55
43.32
42.34
39.5
35.0
29.26
22.91
16.51
10.47
4.96
-0.15
-5.2
-10.56
-16.46
-22.79
-29.16
-34.97
-39.83
-43.62
-46.69
-49.68
-53.4
-58.64
-65.85
-74.93
-84.93
-94.09
-100.04
-100.5
-94.06
-80.7
-61.95
-40.3
-18.5
1.23
17.49
29.76
38.05
42.77
44.57
44.24
42.72
40.83
39.21
38.11
37.59
37.57
37.95
38.74
39.95
41.57
43.5
45.5
47.23
48.24
48.09
46.45
43.24
38.64
33.09
27.1
21.08
15.26
9.63
4.08
-1.54
-7.28
-13.12
-18.9
-24.44
-29.48
-33.86
-37.59
-41.02
-44.81
-49.81
-56.77
-65.8
-76.1
-85.86
-92.65
-94.16
-88.96
-76.96
-59.49
-38.83
-17.53
2.18
18.76
31.46
40.18
45.24
47.26
46.96
45.14
42.57
39.94
37.79
36.52
36.27
36.92
38.15
39.54
40.83
41.98
43.16
44.49
45.89
46.92
46.87
45.1
41.31
35.78
29.24
22.54
16.3
10.66
5.33
-0.25
-6.47
-13.42
-20.73
-27.77
-33.95
-38.91
-42.81
-46.24
-50.07
-55.15
-62.0
-70.48
-79.58
-87.56
-92.26
-91.74
-84.85
-71.72
-53.68
-32.97
-12.03
7.05
22.91
34.89
42.81
46.84
47.39
45.08
40.83
35.71
30.75
26.73
24.16
23.18
23.67
25.31
27.6
29.97
31.92
33.12
33.51
33.27
32.53
31.24
29.08
25.61
20.57
14.07
6.69
-0.76
-7.45
-12.95
-17.25
-20.76
-24.12
-28.09
-33.32
-40.23
-48.78
-58.23
-67.15
-73.53
-75.38
-71.28
-60.94
-45.33
-26.49
-6.88
11.24
26.29
37.57
45.1
49.29
50.74
49.94
47.42
43.73
39.58
35.77
33.02
31.73
31.84
32.96
34.52
36.05
37.28
38.14
38.56
38.4
37.39
35.23
31.8
27.11
21.39
14.9
7.87
0.54
-6.78
-13.77
-20.09
-25.55
-30.17
-34.22
-38.19
-42.68
-48.29
-55.52
-64.49
-74.76
-85.04
-93.3
-97.2
-94.75
-85.14
-69.06
-48.56
-26.38
-5.19
13.09
27.52
38.07
45.21
49.57
51.75
52.25
51.54
50.11
48.45
46.97
45.96
45.5
45.49
45.8
46.35
47.16
48.25
49.56
50.75
51.28
50.53
48.08
43.91
38.39
32.18
25.94
20.1
14.77
9.69
4.5
-1.18
-7.48
-14.21
-20.9
-26.95
-31.95
-35.86
-39.13
-42.6
-47.29
-53.94
-62.74
-73.03
-83.26
-91.24
-94.65
-91.75
-81.91
-65.87
-45.59
-23.65
-2.6
15.66
30.14
40.63
47.41
50.98
51.86
50.66
48.1
44.99
42.1
39.99
38.92
38.85
39.55
40.75
42.2
43.7
45.01
45.89
46.0
45.11
43.07
39.99
36.12
31.82
27.38
22.88
18.17
13.02
7.26
0.97
-5.49
-11.68
-17.2
-21.95
-26.15
-30.21
-34.59
-39.7
-45.87
-53.26
-61.71
-70.52
-78.3
-83.14
-83.15
-77.1
-64.94
-47.96
-28.38
-8.75
8.83
23.06
33.52
40.39
44.1
45.13
43.92
41.03
37.16
33.14
29.86
28.01
27.92
29.49
32.19
35.31
38.15
40.27
41.51
41.95
41.77
41.01
39.58
37.19
33.51
28.33
21.75
14.21
6.31
-1.3
-8.15
-14.1
-19.29
-24.12
-29.12
-34.87
-41.83
-50.23
-59.88
-69.94
-78.95
-84.97
-86.07
-80.92
-69.33
-52.34
-32.06
-11.05
8.32
24.36
36.27
44.06
48.22
49.48
48.64
46.46
43.71
41.12
39.26
38.53
38.97
40.35
42.29
44.34
46.24
47.85
49.12
49.99
50.2
49.35
47.06
43.09
37.54
30.88
23.74
16.76
10.35
4.56
-0.78
-6.03
-11.49
-17.26
-23.25
-29.19
-34.71
-39.54
-43.61
-47.13
-50.72
-55.25
-61.57
-70.05
-80.16
-90.29
-98.02
-100.78
-96.67
-85.19
-67.42
-45.69
-22.86
-1.59
16.33
30.1
39.69
45.57
48.41
48.89
47.71
45.6
43.34
41.6
40.86
41.22
42.39
43.86
45.11
45.86
46.14
46.23
46.42
46.82
47.22
47.15
46.02
43.33
38.92
32.98
26.13
19.13
12.7
7.21
2.63
-1.47
-5.65
-10.33
-15.54
-20.96
-26.07
-30.43
-33.88
-36.61
-39.1
-41.97
-45.88
-51.43
-58.92
-68.14
-78.0
-86.6
-91.52
-90.58
-82.66
-68.21
-49.21
-28.42
-8.6
8.37
21.58
31.02
37.08
40.21
40.82
39.3
36.15
32.01
27.62
23.67
20.74
19.18
19.15
20.57
23.22
26.64
30.27
33.47
35.62
36.24
35.1
32.29
28.16
23.25
18.05
12.88
7.77
2.56
-2.94
-8.77
-14.68
-20.31
-25.22
-29.17
-32.2
-34.66
-37.19
-40.51
-45.25
-51.68
-59.48
-67.53
-74.03
-76.91
-74.44
-65.85
-51.64
-33.56
-13.95
4.83
21.02
33.67
42.58
48.02
50.44
50.37
48.31
44.85
40.69
36.61
33.31
31.29
30.7
31.31
32.69
34.32
35.84
36.98
37.64
37.75
37.2
35.82
33.39
29.73
24.66
18.19
10.51
2.05
-6.52
-14.48
-21.33
-26.91
-31.48
-35.63
-40.07
-45.48
-52.32
-60.74
-70.33
-79.97
-87.86
-91.82
-89.98
-81.38
-66.52
-47.27
-26.26
-6.13
11.2
24.77
34.45
40.51
43.46
43.83
42.23
39.41
36.17
33.21
31.01
29.77
29.44
29.86
30.87
32.31
34.04
35.82
37.34
38.22
38.11
36.83
34.39
30.99
26.93
22.44
17.54
12.12
6.07
-0.59
-7.61
-14.59
-21.1
-26.9
-31.96
-36.55
-41.03
-45.92
-51.73
-58.82
-67.13
-76.04
-84.16
-89.59
-90.3
-84.83
-72.91
-55.63
-35.2
-14.31
4.64
20.09
31.51
39.18
43.7
45.71
45.67
44.03
41.29
38.11
35.2
33.13
32.15
32.17
32.92
34.03
35.25
36.34
37.08
37.26
36.69
35.24
32.92
29.82
26.05
21.62
16.5
10.67
4.22
-2.6
-9.48
-16.1
-22.22
-27.75
-32.69
-37.17
-41.46
-46.01
-51.35
-57.9
-65.57
-73.51
-80.08
-83.19
-81.01
-72.62
-58.46
-40.22
-20.34
-1.31
15.02
27.67
36.5
41.78
43.94
43.4
40.57
36.09
30.86
26.01
22.59
21.24
22.01
24.32
27.27
29.98
31.96
33.2
34.02
34.75
35.42
35.66
34.8
32.18
27.49
20.88
13.04
4.86
-2.83
-9.56
-15.27
-20.28
-25.12
-30.38
-36.61
-44.12
-52.74
-61.6
-69.16
-73.43
-72.63
-65.74
-52.92
-35.62
-16.04
3.36
20.49
34.05
43.55
49.24
51.75
51.84
50.18
47.36
43.88
40.26
37.07
34.82
33.83
34.08
35.24
36.76
38.16
39.1
39.42
39.05
37.9
35.84
32.66
28.27
22.7
16.12
8.85
1.23
-6.4
-13.79
-20.71
-26.99
-32.5
-37.22
-41.35
-45.31
-49.73
-55.27
-62.41
-71.11
-80.58
-89.22
-94.88
-95.44
-89.45
-76.73
-58.53
-37.24
-15.69
3.66
19.36
31.05
39.16
44.39
47.3
48.25
47.5
45.51
42.94
40.55
38.95
38.38
38.74
39.72
41.04
42.59
44.32
46.15
47.78
48.72
48.41
46.42
42.64
37.31
30.93
24.1
17.25
10.6
4.07
-2.53
-9.33
-16.25
-22.96
-29.06
-34.23
-38.44
-42.04
-45.74
-50.43
-56.81
-65.16
-74.96
-84.85
-92.76
-96.48
-94.25
-85.39
-70.59
-51.68
-31.17
-11.52
5.42
18.67
28.12
34.22
37.67
39.18
39.36
38.71
37.69
36.7
36.05
35.92
36.36
37.28
38.53
39.91
41.23
42.23
42.69
42.43
41.34
39.5
37.01
33.93
30.16
25.52
19.9
13.42
6.49
-0.37
-6.72
-12.37
-17.4
-22.08
-26.67
-31.45
-36.73
-42.95
-50.48
-59.34
-68.8
-77.2
-82.3
-81.94
-74.89
-61.34
-42.99
-22.43
-2.37
15.11
28.86
38.65
44.81
47.86
48.32
46.67
43.39
39.1
34.55
30.5
27.65
26.45
26.96
28.88
31.62
34.51
36.94
38.53
39.07
38.48
36.75
33.91
30.05
25.36
20.08
14.39
8.43
2.23
-4.22
-10.83
-17.4
-23.58
-29.06
-33.79
-38.14
-42.83
-48.73
-56.47
-65.98
-76.31
-85.59
-91.55
-92.1
-86.09
-73.58
-55.95
-35.46
-14.59
4.54
20.52
32.74
41.18
46.17
48.25
48.1
46.47
44.17
41.93
40.18
39.1
38.56
38.34
38.28
38.38
38.77
39.52
40.57
41.59
42.11
41.68
40.01
37.07
33.15
28.63
23.91
19.2
14.45
9.4
3.74
-2.67
-9.68
-16.86
-23.64
-29.62
-34.64
-38.95
-43.07
-47.7
-53.55
-61.06
-70.2
-80.12
-89.16
-95.04
-95.52
-89.11
-75.74
-56.82
-34.87
-12.78
6.96
22.79
34.21
41.51
45.46
46.9
46.52
44.86
42.31
39.26
36.15
33.5
31.79
31.29
31.93
33.37
35.09
36.64
37.75
38.34
38.43
37.97
36.83
34.76
31.55
27.18
21.79
15.65
9.05
2.21
-4.73
-11.57
-18.09
-24.0
-29.13
-33.53
-37.59
-41.97
-47.41
-54.3
-62.42
-70.71
-77.3
-80.0
-76.97
-67.35
-51.81
-32.3
-11.53
7.84
23.93
35.88
43.77
48.11
49.54
48.61
45.79
41.65
36.92
32.4
28.82
26.67
26.09
26.92
28.77
31.14
33.47
35.3
36.27
36.21
35.08
32.96
29.97
26.17
21.59
16.27
10.33
3.99
-2.42
-8.63
-14.47
-19.92
-25.15
-30.29
-35.5
-40.94
-46.87
-53.6
-61.26
-69.54
-77.41
-83.16
-84.78
-80.68
-70.27
-54.34
-34.87
-14.43
4.52
20.25
31.97
39.72
43.95
45.29
44.32
41.59
37.72
33.45
29.58
26.86
25.75
26.3
28.18
30.8
33.58
36.11
38.2
39.77
40.7
40.74
39.58
37.01
33.04
27.98
22.28
16.37
10.47
4.56
-1.52
-7.94
-14.64
-21.36
-27.71
-33.24
-37.66
-40.96
-43.48
-45.91
-49.18
-54.19
-61.45
-70.7
-80.72
-89.43
-94.43
-93.69
-86.23
-72.45
-53.99
-33.19
-12.46
6.28
21.88
33.84
42.19
47.19
49.24
48.87
46.74
43.67
40.56
38.23
37.24
37.76
39.55
42.07
44.73
47.03
48.68
49.6
49.81
49.38
48.31
46.54
43.97
40.46
35.97
30.63
24.69
18.57
12.62
7.08
1.94
-3.0
-7.97
-13.11
-18.35
-23.4
-27.98
-31.91
-35.21
-38.08
-40.96
-44.34
-48.78
-54.83
-62.82
-72.54
-83.08
-92.69
-99.17
-100.38
-95.03
-83.07
-65.8
-45.45
-24.47
-4.98
11.59
24.56
33.8
39.5
42.05
41.93
39.74
36.23
32.21
28.51
25.76
24.38
24.46
25.82
28.12
30.95
33.89
36.55
38.54
39.48
39.12
37.43
34.61
31.01
26.94
22.56
17.78
12.4
6.24
-0.67
-8.01
-15.26
-21.84
-27.32
-31.56
-34.88
-37.92
-41.58
-46.72
-53.73
-62.2
-70.85
-77.62
-80.36
-77.41
-68.19
-53.41
-34.83
-14.77
4.52
21.24
34.28
43.23
48.23
49.77
48.6
45.51
41.29
36.66
32.21
28.49
25.89
24.68
24.9
26.37
28.67
31.25
33.57
35.26
36.12
36.1
35.15
33.13
29.84
25.08
18.81
11.29
3.06
-5.18
-12.81
-19.51
-25.34
-30.6
-35.75
-41.25
-47.51
-54.84
-63.31
-72.51
-81.42
-88.36
-91.43
-89.01
-80.39
-66.03
-47.48
-26.91
-6.53
11.85
27.07
38.54
46.14
50.04
50.69
48.75
45.07
40.67
36.5
33.36
31.74
31.7
32.95
34.94
37.06
38.79
39.77
39.83
38.94
37.19
34.72
31.73
28.39
24.72
20.62
15.85
10.21
3.69
-3.41
-10.6
-17.36
-23.39
-28.58
-33.04
-36.96
-40.62
-44.5
-49.3
-55.79
-64.33
-74.38
-84.24
-91.34
-93.1
-87.82
-75.45
-57.56
-36.72
-15.7
3.34
19.09
31.07
39.32
44.15
46.09
45.77
43.91
41.25
38.47
36.08
34.38
33.52
33.47
34.1
35.23
36.7
38.32
39.92
41.27
42.07
41.88
40.34
37.27
32.77
27.29
21.43
15.76
10.59
5.81
1.1
-3.94
-9.47
-15.39
-21.35
-26.98
-32.1
-36.84
-41.71
-47.36
-54.45
-63.17
-73.01
-82.6
-89.9
-92.71
-89.38
-79.41
-63.74
-44.38
-23.8
-4.28
12.58
25.92
35.41
41.11
43.26
42.36
39.2
34.79
30.2
26.35
23.79
22.68
22.86
24.0
25.73
27.72
29.72
31.59
33.16
34.3
34.78
34.28
32.46
29.04
23.93
17.34
9.75
1.83
-5.71
-12.36
-17.86
-22.35
-26.27
-30.27
-35.08
-41.23
-48.81
-57.16
-64.93
-70.3
-71.46
-67.2
-57.34
-42.84
-25.46
-7.32
9.69
24.23
35.6
43.6
48.33
50.15
49.58
47.28
44.01
40.51
37.4
35.08
33.72
33.25
33.46
34.03
34.67
35.18
35.46
35.46
35.08
34.21
32.55
29.87
25.97
20.81
14.58
7.62
0.35
-6.73
-13.26
-19.03
-24.03
-28.47
-32.73
-37.26
-42.56
-49.1
-57.12
-66.39
-76.02
-84.37
-89.39
-89.18
-82.57
-69.71
-52.02
-31.8
-11.56
6.67
21.69
33.17
41.26
46.41
49.04
49.57
48.5
46.36
43.81
41.45
39.72
38.85
38.87
39.71
41.24
43.3
45.61
47.76
49.22
49.5
48.28
45.52
41.45
36.47
31.03
25.46
19.95
14.49
8.93
3.03
-3.3
-9.95
-16.64
-22.9
-28.4
-33.05
-37.11
-41.11
-45.76
-51.68
-59.26
-68.42
-78.39
-87.7
-94.32
-96.14
-91.56
-80.12
-62.73
-41.49
-19.18
1.61
18.97
31.99
40.72
45.84
48.25
48.82
48.18
46.79
45.06
43.41
42.22
41.78
42.09
42.95
44.0
44.99
45.83
46.59
47.37
48.05
48.27
47.45
45.07
40.92
35.19
28.46
21.46
14.84
8.9
3.63
-1.27
-6.15
-11.25
-16.59
-21.96
-26.96
-31.28
-34.74
-37.53
-40.12
-43.3
-47.9
-54.5
-63.17
-73.1
-82.62
-89.54
-91.67
-87.57
-76.93
-60.8
-41.21
-20.62
-1.31
15.1
27.71
36.34
41.26
43.07
42.53
40.53
37.88
35.29
33.2
31.83
31.23
31.33
32.07
33.33
34.99
36.83
38.6
39.94
40.51
40.07
38.43
35.55
31.57
26.71
21.21
15.29
9.06
2.53
-4.21
-10.99
-17.46
-23.23
-27.98
-31.71
-34.73
-37.66
-41.19
-45.95
-52.26
-59.98
-68.35
-76.01
-81.13
-81.87
-76.9
-65.89
-49.79
-30.6
-10.84
7.2
22.0
33.01
40.47
45.0
47.16
47.41
46.03
43.38
40.01
36.63
33.99
32.6
32.65
33.89
35.87
38.05
40.04
41.58
42.49
42.57
41.54
39.16
35.41
30.53
25.03
19.43
14.05
8.88
3.6
-2.12
-8.5
-15.4
-22.45
-29.13
-35.07
-40.16
-44.67
-49.21
-54.57
-61.47
-70.13
-79.92
-89.28
-95.99
-97.76
-93.02
-81.45
-64.11
-43.17
-21.31
-0.99
16.03
28.88
37.56
42.63
44.87
45.06
43.86
41.8
39.4
37.2
35.72
35.34
36.16
37.91
40.12
42.29
44.06
45.37
46.22
46.63
46.39
45.18
42.65
38.73
33.63
27.88
22.03
16.45
11.15
5.89
0.36
-5.63
-12.02
-18.48
-24.64
-30.17
-34.97
-39.16
-43.15
-47.51
-52.96
-60.15
-69.35
-80.08
-90.89
-99.49
-103.31
-100.31
-89.75
-72.53
-50.98
-28.09
-6.65
11.4
25.21
34.88
40.99
44.21
45.15
44.32
42.2
39.35
36.35
33.73
31.87
30.94
30.96
31.76
33.16
34.9
36.75
38.5
39.89
40.65
40.47
39.05
36.2
31.94
26.55
20.52
14.34
8.38
2.69
-2.96
-8.84
-15.06
-21.47
-27.62
-33.01
-37.37
-40.85
-44.13
-48.17
-53.93
-61.74
-70.98
-79.98
-86.39
-87.89
-83.01
-71.6
-54.95
-35.3
-15.13
3.45
19.06
31.08
39.4
44.18
45.69
44.35
40.74
35.71
30.32
25.69
22.73
21.85
22.86
25.06
27.52
29.5
30.72
31.27
31.48
31.55
31.37
30.57
28.6
25.1
19.98
13.51
6.23
-1.22
-8.23
-14.43
-19.72
-24.31
-28.72
-33.62
-39.68
-47.27
-56.21
-65.52
-73.51
-78.09
-77.37
-70.34
-57.24
-39.53
-19.52
0.38
18.25
32.95
44.1
51.79
56.39
58.31
58.04
56.1
53.08
49.5
45.82
42.42
39.63
37.74
37.0
37.45
38.85
40.62
42.04
42.37
41.18
38.45
34.48
29.69
24.45
18.94
13.15
7.02
0.51
-6.3
-13.21
-20.01
-26.46
-32.35
-37.66
-42.55
-47.5
-53.2
-60.31
-69.12
-79.13
-88.88
-96.23
-98.83
-94.9
-83.85
-66.49
-44.89
-21.79
0.14
18.83
33.13
42.83
48.38
50.65
50.58
49.08
46.95
44.82
43.18
42.26
42.11
42.56
43.41
44.48
45.7
47.07
48.59
50.04
51.01
50.98
49.44
46.15
41.2
35.05
28.35
21.73
15.61
10.05
4.82
-0.5
-6.21
-12.37
-18.75
-24.99
-30.79
-36.07
-41.07
-46.23
-52.15
-59.35
-68.08
-77.95
-87.8
-95.64
-99.15
-96.31
-86.21
-69.41
-47.89
-24.45
-1.92
17.5
32.63
43.18
49.59
52.6
53.08
51.78
49.31
46.19
42.84
39.74
37.33
35.98
35.81
36.65
38.0
39.31
40.12
40.16
39.41
37.92
35.67
32.63
28.67
23.8
18.11
11.82
5.13
-1.75
-8.65
-15.37
-21.67
-27.3
-32.18
-36.41
-40.32
-44.39
-49.19
-55.15
-62.37
-70.32
-77.75
-82.79
-83.37
-77.87
-65.78
-48.05
-26.92
-5.22
14.41
30.21
41.47
48.36
51.52
51.64
49.4
45.38
40.26
34.81
29.84
26.09
23.98
23.58
24.57
26.37
28.4
30.18
31.44
32.1
32.2
31.71
30.46
28.19
24.57
19.48
12.98
5.48
-2.37
-9.87
-16.46
-21.94
-26.52
-30.79
-35.51
-41.49
-49.25
-58.76
-69.29
-79.32
-86.77
-89.49
-85.89
-75.5
-59.17
-38.86
-17.14
3.53
21.27
35.1
44.84
50.83
53.7
54.11
52.69
50.03
46.74
43.42
40.66
38.85
38.14
38.41
39.36
40.62
41.92
43.11
44.06
44.53
44.21
42.73
39.84
35.58
30.27
24.4
18.43
12.55
6.7
0.6
-6.0
-13.13
-20.5
-27.62
-34.02
-39.5
-44.26
-48.92
-54.36
-61.38
-70.28
-80.52
-90.57
-98.15
-100.78
-96.62
-85.09
-67.19
-45.2
-21.93
0.01
18.79
33.49
43.9
50.23
52.96
52.72
50.39
46.94
43.32
40.22
37.97
36.53
35.76
35.51
35.72
36.36
37.32
38.34
39.08
39.17
38.42
36.72
34.13
30.72
26.56
21.66
16.03
9.73
2.86
-4.32
-11.45
-18.17
-24.19
-29.38
-33.86
-37.99
-42.27
-47.33
-53.68
-61.49
-70.34
-79.03
-85.71
-88.33
-85.24
-75.76
-60.55
-41.43
-20.82
-1.13
15.82
29.06
38.31
43.76
45.77
44.8
41.41
36.38
30.69
25.4
21.48
19.54
19.68
21.53
24.38
27.42
30.04
31.93
33.07
33.61
33.57
32.68
30.44
26.26
19.88
11.6
2.24
-7.12
-15.56
-22.63
-28.43
-33.53
-38.67
-44.55
-51.53
-59.53
-67.85
-75.15
-79.67
-79.66
-73.92
-62.33
-45.93
-26.74
-7.1
10.9
25.87
37.2
44.85
49.11
50.4
49.22
46.14
41.9
37.34
33.27
30.31
28.74
28.47
29.04
29.89
30.49
30.58
30.2
29.49
28.54
27.16
24.91
21.24
15.81
8.74
0.62
-7.72
-15.49
-22.27
-28.08
-33.3
-38.54
-44.38
-51.37
-59.88
-69.8
-80.34
-89.87
-96.17
-97.0
-90.88
-77.68
-58.79
-36.72
-14.34
5.91
22.47
34.78
43.02
47.78
49.78
49.75
48.31
46.12
43.72
41.62
40.23
39.77
40.27
41.54
43.21
44.86
46.14
46.75
46.57
45.44
43.28
40.07
35.87
30.85
25.2
19.05
12.4
5.25
-2.32
-10.05
-17.55
-24.37
-30.24
-35.21
-39.57
-43.94
-48.96
-55.29
-63.36
-73.03
-83.46
-92.91
-99.11
-99.82
-93.57
-80.26
-61.27
-39.06
-16.38
4.43
21.84
35.22
44.61
50.39
53.19
53.73
52.85
51.37
49.95
49.0
48.57
48.53
48.61
48.63
48.55
48.42
48.32
48.23
48.06
47.56
46.4
44.24
40.86
36.28
30.78
24.81
18.88
13.27
7.94
2.6
-3.18
-9.65
-16.73
-23.94
-30.59
-36.01
-39.91
-42.51
-44.64
-47.5
-52.32
-59.8
-69.75
-80.79
-90.59
-96.4
-95.86
-87.79
-72.61
-52.24
-29.53
-7.44
11.74
26.81
37.59
44.6
48.6
50.19
49.77
47.61
44.11
39.9
35.85
32.81
31.38
31.71
33.44
35.92
38.45
40.5
41.79
42.25
41.84
40.54
38.32
35.13
31.04
26.13
20.57
14.51
8.13
1.6
-4.88
-11.1
-16.88
-22.07
-26.64
-30.76
-34.85
-39.54
-45.5
-53.12
-62.08
-71.14
-78.29
-81.27
-78.29
-68.69
-53.22
-33.77
-12.88
7.01
24.02
37.11
46.01
51.0
52.74
52.07
49.85
46.9
43.91
41.37
39.6
38.73
38.68
39.29
40.33
41.59
42.86
43.96
44.65
44.64
43.58
41.22
37.46
32.46
26.66
20.55
14.51
8.67
2.85
-3.28
-9.95
-17.13
-24.4
-31.14
-36.8
-41.19
-44.67
-48.14
-52.74
-59.41
-68.49
-79.27
-90.0
-98.12
-101.06
-96.98
-85.43
-67.51
-45.58
-22.54
-1.02
17.15
31.24
41.36
48.08
52.01
53.71
53.63
52.26
50.27
48.34
47.07
46.73
47.22
48.17
49.14
49.87
50.36
50.72
51.1
51.4
51.39
50.68
48.87
45.67
40.98
34.97
28.08
21.01
14.45
8.91
4.49
0.8
-2.84
-7.09
-12.26
-18.19
-24.32
-29.97
-34.67
-38.4
-41.55
-44.83
-49.05
-54.94
-62.95
-72.92
-83.97
-94.4
-101.94
-104.32
-99.96
-88.5
-71.07
-49.89
-27.62
-6.73
11.12
25.1
35.08
41.35
44.37
44.69
43.05
40.36
37.58
35.59
34.83
35.25
36.34
37.49
38.24
38.53
38.64
38.91
39.55
40.41
41.09
41.1
40.06
37.73
34.1
29.38
23.95
18.33
13.04
8.4
4.38
0.6
-3.5
-8.29
-13.7
-19.24
-24.22
-28.18
-31.13
-33.55
-36.33
-40.33
-46.2
-54.16
-63.82
-74.04
-83.03
-88.61
-88.79
-82.39
-69.54
-51.66
-31.1
-10.42
8.24
23.53
34.91
42.41
46.41
47.44
46.16
43.25
39.45
35.42
31.73
28.75
26.74
25.79
25.88
26.98
28.91
31.41
34.02
36.17
37.21
36.62
34.18
30.11
24.98
19.47
14.14
9.17
4.36
-0.7
-6.35
-12.61
-19.18
-25.54
-31.21
-35.88
-39.59
-42.73
-45.94
-50.0
-55.57
-62.87
-71.38
-79.7
-85.7
-87.23
-82.72
-71.82
-55.47
-35.67
-14.82
4.92
22.0
35.56
45.28
51.22
53.66
53.07
50.17
45.85
41.15
36.99
34.09
32.74
32.79
33.8
35.21
36.62
37.9
39.14
40.47
41.86
42.96
43.26
42.18
39.38
34.92
29.22
22.9
16.52
10.41
4.59
-1.14
-7.04
-13.25
-19.69
-26.1
-32.08
-37.3
-41.59
-45.12
-48.37
-52.1
-57.12
-64.02
-72.83
-82.76
-92.15
-98.78
-100.47
-95.7
-84.18
-66.89
-45.91
-23.78
-2.96
14.72
28.26
37.4
42.53
44.46
44.13
42.45
40.19
37.87
35.89
34.54
34.0
34.36
35.52
37.15
38.82
40.2
41.14
41.66
41.87
41.69
40.85
38.91
35.57
30.9
25.33
19.54
14.09
9.22
4.75
0.26
-4.69
-10.34
-16.56
-22.99
-29.08
-34.34
-38.47
-41.55
-44.07
-46.9
-51.01
-57.19
-65.61
-75.46
-85.04
-92.05
-94.24
-90.03
-79.02
-62.12
-41.35
-19.26
1.65
19.44
32.98
41.97
46.7
47.8
46.02
42.15
37.02
31.56
26.69
23.19
21.48
21.48
22.69
24.48
26.35
28.06
29.56
30.84
31.77
32.01
31.23
29.19
25.87
21.43
16.14
10.21
3.79
-2.94
-9.72
-16.25
-22.24
-27.56
-32.32
-36.96
-42.13
-48.5
-56.31
-65.09
-73.53
-79.67
-81.44
-77.33
-66.94
-51.12
-31.74
-11.17
8.33
25.01
37.85
46.49
51.08
52.1
50.25
46.32
41.18
35.71
30.77
27.1
25.16
25.08
26.55
28.95
31.55
33.68
34.95
35.24
34.68
33.48
31.73
29.39
26.22
21.97
16.49
9.88
2.51
-5.01
-12.12
-18.39
-23.74
-28.4
-32.88
-37.79
-43.77
-51.3
-60.54
-71.01
-81.46
-89.98
-94.29
-92.5
-83.81
-68.78
-49.33
-28.07
-7.6
10.18
24.23
34.3
40.67
43.87
44.61
43.62
41.72
39.62
37.85
36.64
36.01
35.86
36.07
36.55
37.22
38.0
38.73
39.22
39.26
38.69
37.41
35.39
32.54
28.77
23.99
18.16
11.37
3.91
-3.77
-11.2
-18.0
-24.01
-29.31
-34.24
-39.26
-44.86
-51.49
-59.45
-68.59
-78.17
-86.72
-92.26
-92.8
-86.96
-74.52
-56.63
-35.5
-13.79
6.04
22.31
34.26
41.91
45.84
46.9
45.92
43.69
40.82
37.79
34.98
32.69
31.16
30.51
30.71
31.49
32.49
33.29
33.64
33.5
32.99
32.24
31.24
29.73
27.35
23.72
18.65
12.27
4.93
-2.87
-10.64
-17.99
-24.68
-30.63
-35.9
-40.81
-45.87
-51.7
-58.78
-67.04
-75.63
-82.9
-86.75
-85.28
-77.47
-63.61
-45.26
-24.84
-4.92
12.41
25.92
35.28
40.71
42.77
42.05
39.23
35.01
30.27
25.9
22.71
21.2
21.48
23.24
25.92
28.9
31.7
34.05
35.83
36.96
37.25
36.34
33.82
29.44
23.22
15.61
7.36
-0.73
-8.08
-14.52
-20.31
-26.07
-32.56
-40.33
-49.42
-59.1
-67.83
-73.58
-74.35
-68.85
-56.95
-39.81
-19.6
1.13
20.09
35.69
47.29
54.9
59.03
60.24
59.04
55.89
51.32
46.03
40.88
36.74
34.16
33.26
33.65
34.65
35.55
35.93
35.68
34.93
33.86
32.41
30.32
27.07
22.26
15.73
7.77
-0.98
-9.73
-17.78
-24.79
-30.76
-36.17
-41.71
-48.17
-56.2
-66.01
-77.12
-88.09
-96.87
-101.05
-98.74
-89.14
-72.95
-52.16
-29.48
-7.53
11.72
27.17
38.6
46.27
50.74
52.68
52.79
51.75
50.2
48.65
47.47
46.88
46.94
47.61
48.71
50.0
51.21
52.07
52.37
51.91
50.53
48.06
44.41
39.58
33.69
27.01
19.82
12.41
4.96
-2.44
-9.73
-16.86
-23.68
-30.06
-35.88
-41.18
-46.26
-51.62
-57.86
-65.45
-74.36
-83.71
-91.79
-96.3
-95.1
-86.91
-71.9
-51.73
-29.07
-6.81
12.69
28.15
39.23
46.28
49.96
50.91
49.75
47.1
43.64
40.08
37.02
34.89
33.79
33.65
34.2
35.2
36.4
37.61
38.57
38.98
38.53
37.0
34.31
30.57
25.91
20.45
14.2
7.15
-0.59
-8.65
-16.46
-23.47
-29.4
-34.29
-38.54
-42.74
-47.43
-53.08
-59.86
-67.52
-75.25
-81.54
-84.53
-82.39
-74.04
-59.62
-40.57
-19.25
1.69
20.1
34.68
45.06
51.51
54.64
55.1
53.49
50.41
46.49
42.46
38.99
36.6
35.49
35.5
36.22
37.16
37.87
38.08
37.77
36.98
35.78
34.15
31.88
28.61
24.0
17.89
10.49
2.38
-5.66
-12.92
-19.13
-24.5
-29.7
-35.51
-42.56
-51.13
-60.99
-71.38
-80.99
-88.1
-90.85
-87.74
-78.15
-62.68
-43.04
-21.68
-1.07
16.82
30.89
40.83
46.99
49.97
50.5
49.27
46.9
43.9
40.76
37.92
35.73
34.48
34.24
34.94
36.3
37.98
39.65
40.97
41.69
41.48
40.14
37.51
33.66
28.84
23.53
18.21
13.17
8.39
3.5
-1.92
-8.17
-15.13
-22.3
-28.96
-34.56
-38.99
-42.7
-46.64
-51.88
-59.24
-68.85
-79.91
-90.68
-98.82
-101.95
-98.3
-87.34
-69.94
-48.19
-24.83
-2.55
16.61
31.52
41.89
48.14
51.01
51.34
49.88
47.29
44.14
40.97
38.26
36.33
35.35
35.26
35.83
36.85
38.08
39.34
40.41
40.95
40.57
38.95
35.99
31.89
27.08
22.03
17.1
12.31
7.47
2.31
-3.36
-9.53
-15.95
-22.29
-28.17
-33.33
-37.77
-41.79
-46.06
-51.41
-58.61
-67.73
-77.97
-87.45
-93.71
-94.44
-88.29
-75.33
-57.07
-35.99
-14.74
4.51
20.39
32.41
40.64
45.44
47.28
46.68
44.24
40.69
36.87
33.55
31.33
30.48
30.91
32.3
34.23
36.34
38.33
39.94
40.92
41.01
39.99
37.76
34.34
29.85
24.44
18.37
11.89
5.37
-0.83
-6.51
-11.62
-16.35
-20.98
-25.76
-30.91
-36.68
-43.4
-51.34
-60.38
-69.68
-77.55
-81.83
-80.53
-72.62
-58.49
-39.83
-19.12
1.11
18.87
33.02
43.19
49.61
52.78
53.39
52.13
49.7
46.78
43.95
41.65
40.14
39.44
39.41
39.83
40.54
41.46
42.61
43.88
45.0
45.47
44.76
42.45
38.45
33.03
26.66
19.91
13.24
6.88
0.86
-4.95
-10.8
-16.82
-23.02
-29.18
-34.94
-40.0
-44.31
-48.2
-52.37
-57.7
-64.81
-73.74
-83.59
-92.66
-98.69
-99.54
-93.84
-81.51
-63.74
-42.7
-20.89
-0.53
16.84
30.47
40.19
46.2
48.92
48.98
47.21
44.56
42.01
40.28
39.71
40.24
41.5
43.04
44.52
45.76
46.7
47.33
47.57
47.23
46.12
44.1
41.12
37.18
32.32
26.67
20.49
14.14
8.01
2.36
-2.86
-7.92
-13.24
-19.06
-25.29
-31.51
-37.15
-41.84
-45.65
-49.2
-53.39
-59.2
-67.29
-77.55
-89.0
-99.77
-107.43
-109.68
-104.98
-93.08
-75.07
-53.17
-30.02
-8.14
10.57
25.07
35.15
41.19
43.99
44.44
43.34
41.35
38.9
36.35
34.06
32.4
31.67
31.95
33.15
35.01
37.31
39.76
42.16
44.2
45.41
45.31
43.54
40.07
35.2
29.52
23.64
17.99
12.64
7.38
1.88
-4.15
-10.71
-17.55
-24.17
-30.12
-35.06
-39.04
-42.44
-45.91
-50.3
-56.29
-64.14
-73.36
-82.63
-89.93
-92.99
-90.04
-80.34
-64.48
-44.26
-22.17
-0.72
18.01
32.78
43.12
49.24
51.76
51.44
49.06
45.32
40.86
36.38
32.6
30.18
29.49
30.49
32.74
35.58
38.36
40.62
42.14
42.78
42.47
41.05
38.42
34.6
29.71
23.98
17.63
10.84
3.76
-3.43
-10.55
-17.32
-23.52
-29.02
-33.87
-38.33
-42.8
-47.84
-53.95
-61.45
-70.09
-78.93
-86.33
-90.22
-88.69
-80.65
-66.25
-46.94
-25.12
-3.4
16.0
31.76
43.4
51.08
55.19
56.2
54.65
51.25
46.92
42.72
39.56
37.96
37.9
38.93
40.49
42.15
43.77
45.35
46.91
48.22
48.9
48.48
46.61
43.24
38.62
33.14
27.27
21.31
15.37
9.46
3.46
-2.7
-9.07
-15.61
-22.15
-28.39
-34.01
-38.78
-42.72
-46.13
