0
24.82
19.8
14.78
10.24
6.22
2.27
-2.4
-8.64
-16.9
-26.96
-37.77
-47.59
-54.35
-56.21
-52.12
-42.29
-28.14
-11.96
3.79
17.12
26.95
33.11
36.04
36.35
34.65
31.56
27.76
24.16
21.69
21.05
22.41
25.25
28.62
31.49
33.13
33.35
32.43
30.81
28.75
26.17
22.66
17.77
11.26
3.34
-5.36
-14.02
-21.89
-28.57
-34.12
-39.0
-43.96
-49.76
-56.88
-65.21
-73.9
-81.37
-85.63
-84.91
-78.23
-65.78
-48.99
-30.02
-11.23
5.47
18.87
28.51
34.42
36.99
36.76
34.44
31.02
27.56
25.07
24.22
25.16
27.47
30.32
32.86
34.44
34.86
34.28
33.04
31.42
29.42
26.76
23.04
18.04
11.84
4.92
-2.07
-8.52
-14.15
-19.16
-24.14
-29.81
-36.76
-45.2
-54.73
-64.37
-72.55
-77.4
-77.24
-71.05
-58.99
-42.45
-23.71
-5.26
10.9
23.67
32.8
38.6
41.5
41.94
40.39
37.48
34.16
31.41
30.0
30.25
31.86
34.16
36.32
37.73
38.06
37.43
36.12
34.43
32.48
30.08
26.85
22.4
16.62
9.79
2.55
-4.39
-10.53
-15.76
-20.39
-25.02
-30.38
-37.08
-45.41
-55.11
-65.19
-73.93
-79.21
-79.11
-72.62
-60.1
-43.22
-24.52
-6.51
8.9
20.73
28.85
33.61
35.54
35.24
33.38
30.8
28.45
27.22
27.63
29.7
32.87
36.25
38.91
40.32
40.46
39.77
38.77
37.75
36.5
34.4
30.76
25.22
18.04
9.97
2.01
-4.99
-10.68
-15.18
-19.06
-23.1
-28.06
-34.45
-42.32
-51.01
-59.19
-65.02
-66.62
-62.65
-52.83
-38.13
-20.5
-2.37
14.08
27.32
36.68
42.15
44.09
43.05
39.69
34.84
29.5
24.8
21.64
20.48
21.16
23.0
25.12
26.69
27.27
26.75
25.36
23.34
20.85
17.81
13.99
9.17
3.35
-3.22
-10.04
-16.55
-22.41
-27.62
-32.53
-37.71
-43.74
-50.98
-59.44
-68.58
-77.3
-83.96
-86.75
-84.16
-75.58
-61.63
-44.05
-25.25
-7.54
7.44
18.97
27.14
32.43
35.36
36.32
35.63
33.72
31.25
29.08
28.01
28.45
30.26
32.72
34.91
36.09
36.04
35.06
33.69
32.29
30.77
28.6
25.15
20.1
13.67
6.57
-0.31
-6.25
-10.99
-14.8
-18.31
-22.28
-27.42
-34.15
-42.5
-51.93
-61.29
-68.86
-72.75
-71.36
-63.95
-50.96
-34.04
-15.57
1.95
16.62
27.44
34.34
37.86
38.72
37.58
35.01
31.58
28.07
25.37
24.22
24.92
27.16
30.11
32.78
34.44
34.82
34.17
32.91
31.41
29.72
27.56
24.51
20.26
14.78
8.43
1.83
-4.33
-9.61
-13.99
-17.88
-22.01
-27.13
-33.81
-42.2
-51.88
-61.8
-70.35
-75.64
-76.01
-70.5
-59.32
-43.84
-26.23
-8.83
6.44
18.45
26.86
31.81
33.75
33.2
30.85
27.6
24.5
22.58
22.54
24.49
27.89
31.79
35.12
37.14
37.65
36.95
35.58
34.01
32.33
30.2
27.07
22.49
16.45
9.38
2.07
-4.67
-10.35
-14.98
-19.05
-23.28
-28.42
-34.93
-42.81
-51.42
-59.52
-65.4
-67.29
-63.9
-54.83
-40.89
-23.86
-6.08
10.29
23.73
33.51
39.62
42.42
42.41
40.1
36.22
31.65
27.45
24.55
23.5
24.23
26.16
28.49
30.5
31.83
32.42
32.39
31.77
30.44
28.06
24.3
19.04
12.48
5.2
-2.07
-8.68
-14.32
-19.14
-23.78
-29.05
-35.67
-43.93
-53.5
-63.39
-72.07
-77.75
-78.78
-74.11
-63.68
-48.55
-30.76
-12.67
3.62
16.77
26.34
32.54
35.77
36.43
34.93
31.84
28.0
24.44
22.01
21.15
21.69
23.04
24.48
25.53
26.02
26.08
25.92
25.6
24.96
23.58
20.93
16.7
10.91
4.08
-2.97
-9.42
-14.78
-19.11
-22.93
-27.03
-32.14
-38.78
-47.04
-56.41
-65.71
-73.14
-76.62
-74.44
-65.93
-51.85
-34.19
-15.58
1.57
15.67
26.08
32.83
36.3
36.92
35.24
32.05
28.32
25.12
23.3
23.19
24.55
26.66
28.62
29.71
29.65
28.63
27.14
25.65
24.3
22.85
20.74
17.44
12.72
6.78
0.16
-6.49
-12.59
-17.93
-22.61
-27.03
-31.79
-37.55
-44.71
-53.14
-61.94
-69.48
-73.75
-72.96
-66.26
-54.06
-38.0
-20.4
-3.57
10.84
21.97
29.69
34.19
35.74
34.67
31.51
27.14
22.74
19.51
18.22
18.94
21.07
23.69
25.85
27.06
27.18
26.39
24.91
22.86
20.17
16.64
12.09
6.56
0.29
-6.21
-12.38
-17.76
-22.23
-26.06
-29.84
-34.28
-39.97
-47.08
-55.25
-63.54
-70.51
-74.5
-74.04
-68.29
-57.38
-42.53
-25.65
-8.96
5.65
16.96
24.51
28.43
29.27
27.75
24.69
20.92
17.25
14.37
12.74
12.57
13.74
15.92
18.61
21.3
23.58
25.18
25.96
25.8
24.54
21.99
18.03
12.82
6.83
0.74
-4.76
-9.3
-12.95
-16.24
-19.94
-24.81
-31.33
-39.4
-48.26
-56.45
-62.08
-63.3
-58.9
-48.8
-34.16
-17.11
-0.07
14.89
26.46
34.22
38.41
39.58
38.43
35.7
32.2
28.72
26.07
24.77
25.02
26.55
28.75
30.86
32.27
32.68
32.19
31.08
29.56
27.54
24.68
20.56
15.05
8.4
1.28
-5.6
-11.72
-17.02
-21.91
-27.03
-33.04
-40.38
-49.02
-58.34
-67.09
-73.53
-75.87
-72.83
-64.11
-50.58
-34.11
-16.95
-1.18
11.83
21.45
27.71
30.98
31.81
30.8
28.66
26.23
24.35
23.65
24.4
26.4
29.09
31.75
33.82
35.01
35.39
35.16
34.44
33.12
30.85
27.26
22.16
15.78
8.69
1.59
-5.0
-10.96
-16.54
-22.24
-28.57
-35.95
-44.49
-53.96
-63.56
-71.92
-77.18
-77.53
-71.79
-60.0
-43.56
-24.9
-6.66
9.06
21.17
29.54
34.61
36.99
37.22
35.82
33.43
30.88
29.04
28.54
29.54
31.65
34.14
36.22
37.41
37.58
36.95
35.83
34.37
32.41
29.58
25.49
20.02
13.47
6.48
-0.21
-6.05
-10.94
-15.2
-19.42
-24.29
-30.33
-37.76
-46.37
-55.34
-63.26
-68.31
-68.76
-63.53
-52.7
-37.57
-20.27
-3.15
11.87
23.63
31.7
36.23
37.64
36.56
33.82
30.46
27.5
25.78
25.69
27.12
29.55
32.28
34.68
36.31
37.0
36.78
35.71
33.88
31.2
27.53
22.75
16.92
10.35
3.6
-2.77
-8.35
-13.12
-17.5
-22.2
-27.92
-35.13
-43.73
-52.85
-61.0
-66.24
-66.83
-61.72
-51.06
-36.19
-19.29
-2.69
11.73
22.96
30.74
35.33
37.16
36.7
34.55
31.47
28.43
26.36
25.89
27.11
29.54
32.41
34.89
36.46
36.96
36.51
35.35
33.6
31.18
27.85
23.33
17.53
10.67
3.29
-3.92
-10.4
-15.9
-20.63
-25.16
-30.24
-36.61
-44.66
-54.21
-64.37
-73.43
-79.29
-79.95
-74.3
-62.55
-46.27
-27.91
-9.94
5.77
18.32
27.58
33.8
37.3
38.33
37.25
34.72
31.74
29.38
28.48
29.29
31.43
34.07
36.28
37.4
37.27
36.16
34.56
32.82
30.96
28.66
25.42
20.88
15.07
8.42
1.62
-4.67
-10.09
-14.67
-18.81
-23.08
-28.08
-34.27
-41.86
-50.57
-59.51
-67.15
-71.61
-71.15
-64.83
-52.9
-36.83
-18.87
-1.36
13.88
25.86
34.33
39.51
41.83
41.8
40.02
37.26
34.4
32.32
31.65
32.62
34.91
37.79
40.33
41.79
41.86
40.76
39.04
37.2
35.44
33.5
30.8
26.79
21.24
14.42
7.0
-0.25
-6.78
-12.36
-17.19
-21.77
-26.76
-32.78
-40.15
-48.71
-57.56
-65.23
-69.87
-69.89
-64.44
-53.75
-39.13
-22.54
-6.09
8.5
20.13
28.38
33.25
35.08
34.37
31.86
28.46
25.26
23.19
22.89
24.42
27.29
30.63
33.55
35.4
36.02
35.65
34.66
33.34
31.64
29.28
25.87
21.21
15.45
9.03
2.59
-3.32
-8.4
-12.68
-16.58
-20.7
-25.77
-32.31
-40.35
-49.25
-57.7
-63.93
-66.23
-63.46
-55.43
-43.04
-28.0
-12.42
1.79
13.29
21.51
26.45
28.46
28.01
25.63
21.93
17.76
14.11
11.9
11.68
13.34
16.19
19.22
21.61
22.97
23.43
23.37
23.03
22.3
20.8
18.03
13.72
8.05
1.56
-4.96
-10.8
-15.56
-19.29
-22.5
-26.02
-30.78
-37.47
-46.23
-56.46
-66.74
-75.03
-79.22
-77.68
-69.83
-56.38
-39.14
-20.5
-2.82
12.2
23.66
31.37
35.64
36.97
35.97
33.33
29.92
26.68
24.5
23.96
25.09
27.39
30.06
32.22
33.3
33.16
32.03
30.32
28.3
26.03
23.28
19.69
14.99
9.15
2.45
-4.58
-11.38
-17.5
-22.8
-27.49
-32.11
-37.33
-43.74
-51.54
-60.32
-68.95
-75.77
-78.94
-76.99
-69.32
-56.46
-39.99
-22.16
-5.17
9.3
20.37
27.9
32.2
33.77
33.13
30.92
27.97
25.26
23.72
23.94
25.92
29.06
32.35
34.81
35.79
35.21
33.44
31.13
28.79
26.65
24.53
21.99
18.53
13.87
8.08
1.6
-4.93
-10.96
-16.19
-20.75
-25.15
-30.13
-36.37
-44.24
-53.46
-62.99
-71.08
-75.72
-75.23
-68.84
-56.97
-41.21
-23.78
-6.91
7.7
19.11
27.04
31.67
33.38
32.67
30.26
27.05
24.03
22.13
21.92
23.48
26.39
29.87
33.03
35.18
36.0
35.54
34.14
32.13
29.67
26.68
22.91
18.15
12.49
6.3
0.2
-5.25
-9.8
-13.61
-17.23
-21.39
-26.79
-33.81
-42.33
-51.56
-60.09
-66.09
-67.8
-64.12
-54.99
-41.53
-25.69
-9.64
4.82
16.59
25.26
30.84
33.55
33.64
31.54
27.93
23.82
20.3
18.29
18.21
19.85
22.5
25.31
27.54
28.83
29.23
29.0
28.41
27.49
26.0
23.54
19.71
14.44
8.03
1.15
-5.45
-11.22
-16.1
-20.47
-25.01
-30.48
-37.35
-45.71
-55.09
-64.44
-72.21
-76.57
-75.89
-69.29
-57.07
-40.78
-22.8
-5.64
8.81
19.67
26.97
31.29
33.26
33.37
32.02
29.72
27.17
25.27
24.74
25.92
28.56
31.91
34.93
36.75
36.96
35.74
33.69
31.49
29.49
27.54
25.03
21.27
15.9
9.09
1.53
-5.93
-12.57
-18.13
-22.8
-27.07
-31.55
-36.8
-43.27
-51.09
-59.93
-68.86
-76.3
-80.35
-79.39
-72.63
-60.46
-44.5
-27.01
-10.29
3.96
14.98
22.75
27.72
30.45
31.35
30.81
29.34
27.67
26.68
27.07
29.14
32.57
36.58
40.17
42.56
43.42
42.86
41.33
39.34
37.2
34.97
32.49
29.41
25.41
20.35
14.35
7.82
1.4
-4.36
-9.12
-12.96
-16.34
-19.96
-24.52
-30.56
-38.27
-47.3
-56.68
-64.9
-70.07
-70.5
-65.2
-54.38
-39.47
-22.71
-6.47
7.42
18.01
25.23
29.49
31.35
31.3
29.83
27.5
25.08
23.39
23.09
24.37
26.93
30.01
32.76
34.48
34.9
34.17
32.78
31.22
29.74
28.22
26.22
23.21
18.92
13.52
7.59
1.92
-2.9
-6.73
-9.94
-13.24
-17.42
-23.09
-30.48
-39.39
-49.1
-58.4
-65.66
-69.17
-67.61
-60.51
-48.53
-33.33
-17.12
-2.01
10.53
19.82
25.9
29.18
30.12
29.18
26.84
23.78
20.89
19.08
19.02
20.8
23.91
27.39
30.26
31.89
32.15
31.37
29.99
28.33
26.37
23.85
20.48
16.14
11.01
5.46
-0.07
-5.24
-9.92
-14.18
-18.29
-22.7
-27.87
-34.26
-42.04
-50.92
-60.0
-67.81
-72.61
-72.85
-67.65
-57.14
-42.53
-25.77
-9.0
5.98
18.09
27.07
33.14
36.72
38.08
37.41
34.99
31.48
27.84
25.16
24.22
25.14
27.42
30.15
32.42
33.64
33.65
32.64
30.88
28.65
26.06
23.05
19.45
15.1
9.93
4.08
-2.06
-7.98
-13.24
-17.67
-21.48
-25.16
-29.3
-34.47
-41.02
-49.06
-58.29
-67.92
-76.54
-82.28
-83.31
-78.42
-67.61
-52.21
-34.52
-17.03
-1.72
10.38
19.15
25.05
28.67
30.45
30.72
29.82
28.25
26.74
26.03
26.66
28.77
31.98
35.55
38.58
40.38
40.66
39.61
37.69
35.41
33.02
30.48
27.53
23.9
19.52
14.49
9.08
3.56
-1.91
-7.28
-12.57
-17.79
-23.0
-28.33
-34.11
-40.71
-48.41
-57.01
-65.62
-72.71
-76.42
-75.2
-68.37
-56.45
-40.98
-24.09
-7.84
6.24
17.36
25.39
30.58
33.37
34.19
33.52
31.9
29.98
28.45
27.96
28.87
31.1
34.15
37.21
39.56
40.73
40.68
39.72
38.29
36.71
35.02
32.99
30.21
26.38
21.44
15.69
9.7
4.09
-0.76
-4.85
-8.54
-12.39
-16.92
-22.51
-29.32
-37.37
-46.36
-55.52
-63.54
-68.62
-69.03
-63.72
-52.85
-37.81
-20.85
-4.29
10.14
21.61
30.04
35.72
38.98
40.02
39.06
36.5
33.1
29.89
27.84
27.55
29.05
31.75
34.69
36.92
37.83
37.25
35.41
32.71
29.52
26.07
22.39
18.42
14.07
9.28
4.12
-1.23
-6.52
-11.49
-16.0
-20.12
-24.07
-28.14
-32.59
-37.68
-43.62
-50.58
-58.38
-66.37
-73.12
-76.76
-75.49
-68.39
-55.87
-39.69
-22.33
-6.2
7.11
16.99
23.65
27.67
29.63
30.0
29.25
27.92
26.64
25.96
26.3
27.73
30.07
32.97
35.97
38.58
40.41
41.15
40.65
38.93
36.17
32.67
28.7
24.45
19.97
15.16
9.91
4.23
-1.69
-7.5
-12.81
-17.4
-21.29
-24.87
-28.71
-33.41
-39.45
-47.03
-56.06
-65.96
-75.67
-83.67
-88.14
-87.48
-80.8
-68.37
-51.66
-32.98
-14.76
1.07
13.52
22.48
28.38
31.89
33.56
33.87
33.3
32.35
31.57
31.44
32.19
33.78
35.93
38.24
40.31
41.83
42.64
42.65
41.9
40.43
38.27
35.47
32.06
28.08
23.61
18.7
13.46
8.03
2.57
-2.74
-7.73
-12.3
-16.5
-20.51
-24.63
-29.29
-34.9
-41.81
-50.1
-59.29
-68.27
-75.28
-78.35
-75.92
-67.41
-53.58
-36.32
-18.17
-1.52
12.05
21.92
28.35
31.99
33.53
33.57
32.55
30.98
29.47
28.65
28.99
30.56
33.06
35.87
38.37
40.09
40.84
40.7
39.83
38.42
36.56
34.24
31.4
27.95
23.86
19.18
14.11
8.92
3.89
-0.78
-5.05
-9.06
-13.02
-17.21
-21.93
-27.49
-34.22
-42.26
-51.31
-60.47
-68.21
-72.64
-72.16
-65.96
-54.43
-39.13
-22.32
-6.32
7.16
17.27
24.07
28.08
29.99
30.29
29.32
27.39
25.0
22.84
21.64
21.93
23.76
26.7
30.04
33.11
35.41
36.77
37.14
36.54
34.98
32.51
29.3
25.59
21.66
17.67
13.64
9.42
4.9
0.09
-4.87
-9.8
-14.59
-19.3
-24.22
-29.76
-36.33
-44.21
-53.3
-62.96
-71.91
-78.4
-80.62
-77.28
-68.08
-53.98
-36.92
-19.26
-3.19
9.88
19.32
25.28
28.28
28.96
28.01
26.12
23.99
22.29
21.61
22.25
24.18
27.06
30.33
33.4
35.77
37.2
37.67
37.31
36.32
34.86
32.97
30.56
27.5
23.7
19.09
13.78
7.97
1.92
-4.09
-9.83
-15.22
-20.27
-25.17
-30.19
-35.64
-41.88
-49.16
-57.5
-66.52
-75.2
-81.99
-85.05
-82.83
-74.65
-61.06
-43.76
-25.1
-7.39
7.72
19.49
27.92
33.46
36.63
37.89
37.68
36.45
34.8
33.35
32.59
32.84
34.06
35.96
38.02
39.73
40.69
40.69
39.77
38.1
35.89
33.25
30.19
26.66
22.6
18.0
12.96
7.63
2.18
-3.25
-8.51
-13.51
-18.21
-22.69
-27.08
-31.65
-36.74
-42.69
-49.75
-57.86
-66.46
-74.35
-79.8
-80.97
-76.54
-66.31
-51.35
-33.75
-15.99
-0.18
12.39
21.3
26.8
29.41
29.73
28.35
25.95
23.27
21.11
20.16
20.86
23.19
26.73
30.68
34.12
36.31
36.91
36.05
34.19
31.91
29.59
27.31
24.87
21.91
18.17
13.56
8.25
2.59
-2.95
-8.0
-12.42
-16.32
-20.12
-24.37
-29.58
-36.1
-43.95
-52.74
-61.56
-69.01
-73.38
-73.07
-67.07
-55.49
-39.62
-21.61
-3.93
11.39
23.17
31.11
35.61
37.34
37.01
35.25
32.69
29.92
27.61
26.33
26.44
27.97
30.52
33.4
35.78
36.98
36.7
35.08
32.59
29.76
26.89
23.93
20.5
16.19
10.79
4.46
-2.28
-8.82
-14.7
-19.83
-24.41
-28.88
-33.69
-39.23
-45.81
-53.54
-62.28
-71.42
-79.73
-85.54
-87.09
-83.11
-73.31
-58.63
-40.97
-22.72
-6.02
7.63
17.65
24.19
27.86
29.39
29.44
28.54
27.22
26.02
25.52
26.18
28.16
31.21
34.7
37.86
40.01
40.85
40.4
38.93
36.78
34.16
31.13
27.66
23.65
19.04
13.85
8.17
2.18
-3.84
-9.61
-14.94
-19.79
-24.33
-28.92
-33.95
-39.86
-46.95
-55.28
-64.51
-73.65
-81.14
-85.13
-83.96
-76.83
-64.14
-47.44
-29.02
-11.25
4.07
15.91
24.09
28.93
31.05
31.16
29.94
27.99
25.91
24.23
23.42
23.78
25.38
27.9
30.75
33.14
34.34
33.84
31.48
27.37
21.9
15.55
8.82
2.22
-3.88
-9.26
-13.89
-17.83
-21.13
-23.71
-25.45
-26.28
-26.35
-26.14
-26.35
-27.71
-30.83
-36.09
-43.48
-52.51
-62.0
-70.13
-74.74
-73.95
-66.85
-54.0
-37.29
-19.31
-2.51
11.44
21.97
29.34
34.19
37.2
38.84
39.46
39.36
39.0
38.92
39.72
41.79
45.12
49.27
53.37
56.53
58.11
57.98
56.46
54.12
51.52
48.92
46.28
43.4
40.02
36.02
31.39
26.34
21.2
16.32
11.93
8.04
4.32
0.21
-4.95
-11.65
-20.04
-29.76
-39.91
-49.12
-55.68
-57.91
-54.66
-45.69
-31.99
-15.52
1.32
16.33
28.12
36.28
41.11
43.19
43.15
41.46
38.58
35.15
31.98
29.95
29.69
31.4
34.68
38.68
42.37
44.9
45.82
45.19
43.43
41.07
38.41
35.39
31.69
26.88
20.8
13.66
6.03
-1.38
-8.0
-13.56
-18.17
-22.19
-26.11
-30.49
-35.83
-42.52
-50.62
-59.63
-68.4
-75.18
-78.12
-75.82
-67.77
-54.73
-38.44
-21.16
-5.09
8.25
18.14
24.67
28.33
29.79
29.6
28.24
26.16
23.96
22.34
21.93
23.07
25.65
29.13
32.74
35.75
37.65
38.29
37.74
36.14
33.66
30.44
26.59
22.23
17.51
12.55
7.47
2.35
-2.76
-7.8
-12.73
-17.5
-22.1
-26.54
-30.97
-35.71
-41.22
-48.0
-56.2
-65.3
-73.99
-80.29
-82.14
-78.07
-67.78
-52.34
-33.85
-14.83
2.43
16.36
26.33
32.46
35.4
35.95
34.97
33.19
31.24
29.68
28.92
29.26
30.77
33.29
36.42
39.66
42.49
44.54
45.56
45.48
44.33
42.24
39.37
35.88
31.95
27.7
23.19
18.5
13.72
8.93
4.22
-0.45
-5.17
-10.05
-15.14
-20.45
-25.99
-31.95
-38.66
-46.48
-55.49
-65.16
-74.16
-80.61
-82.56
-78.61
-68.5
-53.26
-34.97
-16.1
1.09
15.11
25.43
32.27
36.28
38.18
38.55
37.86
36.53
35.04
33.88
33.52
34.19
35.85
38.18
40.66
42.7
43.83
43.76
42.48
40.14
37.06
33.51
29.74
25.83
21.83
17.71
13.46
9.07
4.57
-0.01
-4.64
-9.26
-13.85
-18.39
-22.91
-27.59
-32.72
-38.68
-45.82
-54.19
-63.28
-71.89
-78.26
-80.48
-77.16
-67.95
-53.77
-36.61
-18.96
-3.02
9.75
18.88
24.64
27.68
28.64
28.0
26.18
23.68
21.21
19.6
19.54
21.32
24.61
28.6
32.27
34.75
35.56
34.75
32.68
29.9
26.84
23.69
20.36
16.6
12.14
6.91
1.14
-4.74
-10.2
-14.89
-18.76
-22.08
-25.37
-29.19
-34.02
-40.17
-47.64
-56.05
-64.47
-71.48
-75.32
-74.47
-68.06
-56.36
-40.75
-23.4
-6.64
7.71
18.61
25.88
29.92
31.36
30.86
29.01
26.42
23.81
21.87
21.24
22.25
24.79
28.35
32.1
35.26
37.26
37.88
37.2
35.42
32.79
29.48
25.62
21.35
16.81
12.12
7.26
2.17
-3.19
-8.73
-14.22
-19.4
-24.1
-28.41
-32.64
-37.25
-42.71
-49.35
-57.25
-66.01
-74.62
-81.48
-84.7
-82.67
-74.69
-61.35
-44.52
-26.69
-10.24
3.3
13.38
20.25
24.53
26.81
27.57
27.17
26.09
24.92
24.31
24.81
26.65
29.72
33.54
37.45
40.77
42.92
43.6
42.75
40.57
37.41
33.68
29.74
25.77
21.78
17.62
13.1
8.06
2.55
-3.26
-9.09
-14.73
-20.06
-25.14
-30.16
-35.42
-41.29
-48.13
-56.11
-64.96
-73.7
-80.68
-83.92
-81.72
-73.39
-59.63
-42.38
-24.23
-7.56
6.09
16.23
23.17
27.55
29.96
30.84
30.53
29.49
28.35
27.84
28.52
30.6
33.78
37.44
40.82
43.31
44.59
44.68
43.81
42.24
40.21
37.75
34.77
31.12
26.63
21.21
14.99
8.25
1.47
-4.86
-10.34
-14.85
-18.66
-22.37
-26.77
-32.6
-40.33
-49.87
-60.49
-70.78
-78.9
-82.97
-81.6
-74.35
-61.93
-46.11
-29.18
-13.38
-0.29
9.45
15.98
19.9
21.83
22.24
21.45
19.86
18.05
16.77
16.73
18.26
21.22
24.93
28.57
31.42
33.08
33.51
32.88
31.42
29.2
26.21
22.34
17.53
11.84
5.51
-1.09
-7.56
-13.62
-19.14
-24.17
-28.85
-33.39
-37.99
-42.91
-48.51
-55.07
-62.5
-70.14
-76.53
-79.83
-78.29
-70.95
-58.03
-40.97
-22.01
-3.49
12.71
25.56
34.83
40.83
44.13
45.25
44.66
42.85
40.48
38.32
37.18
37.57
39.56
42.69
46.11
48.98
50.66
50.9
49.77
47.53
44.5
40.91
36.98
32.84
28.5
23.87
18.82
13.21
7.08
0.6
-5.93
-12.22
-18.11
-23.56
-28.76
-34.04
-39.9
-46.88
-55.29
-64.87
-74.49
-82.29
-86.09
-84.15
-75.84
-62.01
-44.68
-26.37
-9.35
4.9
15.83
23.55
28.54
31.28
32.31
32.13
31.35
30.64
30.59
31.61
33.75
36.76
40.12
43.28
45.75
47.3
47.82
47.33
45.86
43.48
40.32
36.59
32.54
28.38
24.14
19.71
14.9
9.63
3.95
-1.89
-7.65
-13.1
-18.16
-22.92
-27.69
-32.98
-39.43
-47.55
-57.35
-68.0
-77.71
-84.16
-85.17
-79.54
-67.51
-50.75
-31.81
-13.3
2.8
15.4
24.29
29.79
32.48
32.99
31.99
30.13
28.17
26.81
26.58
27.78
30.41
34.12
38.34
42.36
45.5
47.29
47.6
46.58
44.61
42.05
39.1
35.83
32.12
27.9
23.13
17.91
12.36
6.6
0.79
-4.91
-10.29
-15.22
-19.73
-24.07
-28.68
-34.15
-40.92
-49.11
-58.3
-67.36
-74.57
-78.01
-76.07
-68.14
-54.88
-38.04
-20.04
-3.18
10.87
21.25
27.83
30.97
31.28
29.51
26.52
23.24
20.56
19.19
19.54
21.59
24.99
28.97
32.67
35.32
36.47
36.18
34.87
33.11
31.3
29.51
27.52
24.94
21.44
16.95
11.61
5.79
-0.04
-5.47
-10.23
-14.33
-17.98
-21.64
-25.81
-30.99
-37.47
-45.26
-53.93
-62.49
-69.41
-72.91
-71.45
-64.26
-51.78
-35.6
-18.06
-1.54
12.17
22.09
28.1
30.64
30.51
28.59
25.85
23.18
21.31
20.71
21.5
23.51
26.38
29.63
32.75
35.26
36.82
37.24
36.57
35.04
32.95
30.45
27.58
24.21
20.17
15.36
9.78
3.6
-2.87
-9.29
-15.31
-20.75
-25.61
-30.18
-34.89
-40.26
-46.7
-54.41
-63.28
-72.74
-81.64
-88.41
-91.25
-88.7
-80.2
-66.46
-49.33
-31.3
-14.69
-1.08
8.95
15.65
19.68
21.66
22.15
21.6
20.49
19.36
18.8
19.23
20.84
23.46
26.7
29.99
32.8
34.71
35.55
35.37
34.37
32.73
30.59
27.94
24.77
21.12
17.09
12.8
8.34
3.68
-1.22
-6.3
-11.38
-16.15
-20.4
-24.16
-27.76
-31.77
-36.81
-43.32
-51.28
-60.11
-68.51
-74.73
-76.92
-73.69
-64.63
-50.58
-33.37
-15.35
1.28
15.06
25.39
32.4
36.64
38.81
39.52
39.35
38.78
38.3
38.29
38.99
40.43
42.44
44.71
46.88
48.68
49.99
50.84
51.25
51.1
50.18
48.22
45.14
41.13
36.66
32.26
28.3
24.77
21.33
17.44
12.75
7.18
1.02
-5.26
-11.27
-16.82
-22.04
-27.29
-33.09
-39.92
-48.02
-57.14
-66.34
-74.0
-78.18
-77.18
-70.28
-58.01
-42.06
-24.78
-8.39
5.57
16.44
24.19
29.16
31.79
32.52
31.92
30.67
29.47
28.95
29.42
30.93
33.26
36.04
38.93
41.59
43.71
45.02
45.29
44.42
42.45
39.64
36.35
32.89
29.47
26.06
22.47
18.45
13.88
8.88
3.74
-1.15
-5.57
-9.5
-13.16
-16.91
-21.12
-26.15
-32.28
-39.63
-47.95
-56.44
-63.73
-68.11
-68.06
-62.81
-52.68
-39.02
-23.81
-9.06
3.66
13.44
20.01
23.52
24.41
23.28
20.82
17.82
15.06
13.26
12.91
14.19
16.87
20.4
24.0
26.91
28.62
29.0
28.25
26.8
25.04
23.2
21.3
19.21
16.74
13.77
10.25
6.24
1.89
-2.55
-6.8
-10.62
-13.88
-16.66
-19.3
-22.32
-26.39
-32.09
-39.67
-48.78
-58.34
-66.57
-71.49
-71.45
-65.72
-54.77
-40.19
-24.12
-8.69
4.48
14.54
21.3
25.03
26.28
25.73
24.15
22.33
20.97
20.64
21.66
24.11
27.78
32.19
36.7
40.64
43.51
45.12
45.58
45.17
44.12
42.48
40.12
36.89
32.78
27.96
22.74
17.34
11.81
6.12
0.24
-5.73
-11.56
-17.04
-22.14
-27.21
-32.85
-39.75
-48.37
-58.65
-69.76
-80.23
-88.14
-91.64
-89.54
-81.63
-68.93
-53.3
-36.99
-21.98
-9.53
-0.12
6.43
10.6
12.97
14.03
14.26
14.14
14.17
14.78
16.31
18.88
22.39
26.59
31.05
35.26
38.68
40.89
41.63
40.98
39.2
36.68
33.78
30.75
27.68
24.52
21.15
17.43
13.24
8.54
3.46
-1.75
-6.78
-11.41
-15.68
-19.9
-24.59
-30.31
-37.44
-45.89
-55.03
-63.58
-69.81
-71.97
-68.8
-60.06
-46.72
-30.69
-14.22
0.73
12.96
22.09
28.27
31.87
33.33
33.16
31.99
30.6
29.77
30.03
31.57
34.19
37.41
40.69
43.51
45.52
46.56
46.64
45.86
44.34
42.16
39.34
35.93
32.0
27.73
23.25
18.62
13.79
8.69
3.35
-2.04
-7.15
-11.8
-16.04
-20.16
-24.64
-29.91
-36.3
-43.89
-52.45
-61.3
-69.21
-74.55
-75.64
-71.38
-61.79
-48.13
-32.52
-17.27
-4.12
6.13
13.51
18.52
21.7
23.41
23.91
23.51
22.71
22.11
22.31
23.68
26.21
29.55
33.09
36.16
38.26
39.12
38.74
37.28
34.97
32.0
28.51
24.64
20.48
16.17
11.75
7.23
2.61
-2.07
-6.69
-11.08
-15.11
-18.87
-22.71
-27.17
-32.88
-40.2
-49.01
-58.53
-67.39
-73.86
-76.28
-73.59
-65.6
-53.2
-38.11
-22.39
-7.9
4.11
13.13
19.26
22.97
24.8
25.24
24.75
23.76
22.75
22.2
22.45
23.62
25.59
28.01
30.47
32.62
34.28
35.38
35.91
35.75
34.76
32.79
29.79
25.93
21.55
17.07
12.78
8.77
4.93
1.02
-3.13
-7.56
-12.18
-16.89
-21.69
-26.73
-32.36
-38.93
-46.7
-55.6
-65.1
-74.14
-81.2
-84.64
-83.1
-76.02
-63.94
-48.43
-31.72
-15.93
-2.56
7.81
15.36
20.61
24.07
26.08
26.88
26.85
26.53
26.55
27.36
29.1
31.59
34.45
37.31
39.89
41.95
43.25
43.53
42.61
40.43
37.11
32.98
28.41
23.77
19.34
15.28
11.55
7.94
4.16
-0.1
-4.98
-10.44
-16.18
-21.91
-27.45
-32.85
-38.42
-44.6
-51.82
-60.29
-69.76
-79.31
-87.39
-92.07
-91.63
-85.24
-73.31
-57.54
-40.34
-24.07
-10.39
-0.02
7.1
11.53
13.85
14.69
14.59
14.19
14.1
14.86
16.75
19.78
23.7
28.15
32.7
37.02
40.86
44.12
46.76
48.76
50.07
50.54
50.04
48.58
46.33
43.61
40.72
37.72
34.43
30.49
25.55
19.53
12.64
5.31
-1.92
-8.67
-14.8
-20.46
-26.15
-32.57
-40.42
-50.09
-61.3
-72.92
-83.07
-89.55
-90.52
-85.1
-73.73
-58.06
-40.46
-23.3
-8.41
3.25
11.55
16.89
19.91
21.27
21.58
21.41
21.34
21.94
23.61
26.45
30.23
34.44
38.48
41.86
44.31
45.77
46.3
45.96
44.79
42.76
39.95
36.43
32.34
27.76
22.73
17.3
11.57
5.71
-0.04
-5.5
-10.57
-15.28
-19.78
-24.27
-29.04
-34.48
-41.02
-48.91
-57.94
-67.27
-75.36
-80.32
-80.55
-75.22
-64.7
-50.37
-34.25
-18.29
-3.98
7.86
17.0
23.52
27.64
29.65
29.97
29.3
28.53
28.54
29.92
32.75
36.53
40.44
43.64
45.6
46.21
45.7
44.46
42.85
41.06
39.19
37.22
34.97
32.25
28.77
24.32
18.89
12.69
6.09
-0.5
-6.82
-12.76
-18.4
-23.88
-29.46
-35.49
-42.37
-50.4
-59.48
-68.76
-76.72
-81.44
-81.31
-75.54
-64.57
-49.97
-33.88
-18.4
-5.05
5.5
13.27
18.75
22.54
25.11
26.78
27.85
28.62
29.52
30.95
33.16
36.18
39.71
43.36
46.75
49.7
52.12
53.91
54.88
54.75
53.33
50.63
46.88
42.49
37.83
33.1
28.32
23.39
18.19
12.63
6.7
0.48
-5.89
-12.24
-18.48
-24.6
-30.87
-37.7
-45.53
-54.56
-64.49
-74.38
-82.73
-87.83
-88.2
-83.07
-72.69
-58.33
-41.95
-25.65
-11.08
0.85
9.98
16.6
21.14
23.97
25.44
25.97
26.12
26.55
27.76
29.97
33.03
36.57
40.1
43.21
45.58
46.94
47.14
46.08
43.8
40.52
36.54
32.12
27.48
22.67
17.71
12.57
7.25
1.76
-3.88
-9.58
-15.25
-20.76
-26.02
-31.11
-36.24
-41.81
-48.24
-55.9
-64.88
-74.84
-84.82
-93.29
-98.41
-98.53
-92.76
-81.41
-65.96
-48.67
-31.77
-16.94
-4.87
4.5
11.64
17.06
21.07
23.92
25.89
27.42
29.09
31.39
34.55
38.43
42.57
46.39
49.38
51.21
51.82
51.28
49.78
47.53
44.69
41.41
37.77
33.81
29.52
24.86
19.8
14.42
8.83
3.23
-2.19
-7.34
-12.2
-16.91
-21.75
-27.1
-33.42
-41.12
-50.29
-60.45
-70.38
-78.26
-82.09
-80.37
-72.62
-59.66
-43.42
-26.29
-10.46
2.62
12.43
19.14
23.29
25.46
26.13
25.74
24.85
24.12
24.19
25.5
28.11
31.65
35.5
38.99
41.59
43.03
43.29
42.53
41.04
39.05
36.69
33.86
30.33
25.86
20.36
14.08
7.47
1.06
-4.81
-10.06
-14.87
-19.55
-24.41
-29.76
-35.94
-43.28
-51.88
-61.33
-70.52
-77.74
-81.08
-79.12
-71.44
-58.84
-43.14
-26.61
-11.35
1.27
10.65
16.96
20.75
22.66
23.28
23.13
22.74
22.66
23.42
25.36
28.55
32.62
36.99
40.94
43.97
45.79
46.41
46.04
44.97
43.45
41.63
39.54
37.04
33.93
30.0
25.18
19.59
13.6
7.67
2.18
-2.67
-6.9
-10.82
-14.88
-19.67
-25.76
-33.62
-43.32
-54.28
-65.08
-73.62
-77.62
-75.37
-66.4
-51.77
-33.75
-15.14
1.55
14.77
24.08
29.9
33.08
34.47
34.69
34.24
33.56
33.14
33.47
34.84
37.25
40.32
43.47
46.1
47.83
48.58
48.48
47.69
46.29
44.18
41.22
37.35
32.64
27.28
21.47
15.33
8.88
2.16
-4.67
-11.31
-17.43
-22.85
-27.68
-32.33
-37.42
-43.61
-51.33
-60.71
-71.34
-82.24
-91.91
-98.59
-100.66
-97.11
-87.89
-73.99
-57.17
-39.59
-23.17
-9.34
1.27
8.69
13.46
16.34
18.11
19.33
20.39
21.51
22.88
24.7
27.13
30.21
33.73
37.28
40.36
42.61
43.83
44.04
43.33
41.8
39.51
36.51
32.95
29.06
25.03
20.96
16.79
12.31
7.34
1.79
-4.25
-10.6
-17.02
-23.35
-29.53
-35.7
-42.16
-49.4
-57.89
-67.77
-78.5
-88.77
-96.61
-99.89
-97.08
-87.78
-72.98
-54.74
-35.58
-17.76
-2.76
8.95
17.61
23.81
28.12
30.9
32.44
33.06
33.33
33.94
35.58
38.55
42.66
47.24
51.41
54.43
55.94
56.0
54.96
53.22
51.04
48.52
45.59
42.05
37.75
32.63
26.86
20.78
14.83
9.36
4.54
0.22
-3.94
-8.34
-13.31
-19.07
-25.8
-33.55
-42.14
-50.86
-58.4
-62.99
-62.95
-57.33
-46.33
-31.4
-14.73
1.38
15.19
25.81
33.16
37.63
39.77
40.12
39.19
37.54
35.81
34.65
34.59
35.87
38.36
41.58
44.89
47.62
49.25
49.54
48.51
46.38
43.44
39.91
35.9
31.44
26.5
21.09
15.29
9.22
3.11
-2.86
-8.45
