0
-37.27
-48.55
-58.92
-66.91
-71.91
-74.45
-76.06
-78.76
-84.42
-94.17
-107.9
-124.01
-139.47
-150.19
-151.93
-141.51
-117.96
-83.09
-41.22
1.99
41.12
72.36
94.05
106.45
110.83
108.66
101.16
89.46
74.9
59.42
45.29
34.72
29.17
28.89
32.94
39.6
47.06
53.94
59.63
64.15
67.65
70.14
71.18
70.01
65.89
58.62
48.66
37.15
25.51
14.97
6.06
-1.52
-8.66
-16.42
-25.49
-35.77
-46.41
-56.11
-63.77
-68.93
-72.12
-74.7
-78.48
-85.22
-96.12
-111.31
-129.51
-147.87
-162.23
-167.85
-160.75
-139.04
-103.85
-59.32
-11.5
33.39
70.62
97.87
115.13
123.73
125.36
121.35
112.67
100.34
85.88
71.37
59.09
50.84
47.45
48.6
53.11
59.45
66.27
72.71
78.38
83.07
86.46
87.98
86.85
82.43
74.49
63.54
50.74
37.58
25.42
14.96
6.07
-2.13
-10.81
-20.86
-32.39
-44.67
-56.31
-65.91
-72.69
-76.9
-79.8
-83.28
-89.29
-99.27
-113.6
-131.35
-150.02
-165.72
-173.84
-170.19
-152.4
-121.07
-79.94
-34.91
7.68
42.89
68.17
83.34
89.7
88.89
82.29
70.97
56.11
39.38
23.07
9.57
0.88
-2.02
0.7
7.88
17.92
29.24
40.64
51.22
60.26
66.96
70.49
70.22
66.06
58.66
49.26
39.19
29.45
20.24
11.13
1.35
-9.67
-21.87
-34.5
-46.32
-56.16
-63.46
-68.69
-73.27
-79.17
-88.23
-101.26
-117.56
-134.63
-148.52
-154.69
-149.23
-130.18
-98.31
-57.16
-12.29
30.37
66.01
91.96
107.83
114.76
114.47
108.46
97.86
83.77
67.7
51.67
37.95
28.44
24.13
24.87
29.61
36.89
45.33
53.94
62.03
68.98
73.98
76.09
74.42
68.57
58.92
46.69
33.61
21.32
10.8
1.99
-6.04
-14.55
-24.43
-35.67
-47.27
-57.71
-65.63
-70.53
-73.06
-74.92
-78.35
-85.39
-97.21
-113.53
-132.27
-149.62
-160.7
-160.82
-146.92
-118.79
-79.44
-34.28
10.38
49.19
78.9
98.6
109.07
111.82
108.26
99.59
86.98
72.01
56.77
43.62
34.6
30.86
32.38
38.08
46.22
55.02
63.12
69.86
75.08
78.84
81.07
81.38
79.17
73.96
65.79
55.43
44.17
33.49
24.46
17.31
11.38
5.48
-1.58
-10.32
-20.36
-30.49
-39.29
-45.7
-49.59
-51.9
-54.34
-58.85
-66.99
-79.49
-95.88
-114.28
-131.42
-143.05
-144.81
-133.53
-108.42
-71.75
-28.43
15.42
54.18
84.26
104.53
115.83
119.76
117.78
110.76
99.36
84.6
68.28
52.86
40.83
33.93
32.67
36.26
43.02
51.15
59.19
66.29
72.06
76.24
78.34
77.66
73.51
65.64
54.47
41.22
27.47
14.8
4.1
-4.6
-12.14
-19.74
-28.55
-38.98
-50.54
-61.97
-71.73
-78.67
-82.6
-84.48
-86.1
-89.6
-96.7
-108.15
-123.38
-140.21
-155.14
-163.86
-162.21
-147.53
-119.69
-81.44
-37.8
5.4
43.07
72.07
91.39
101.54
103.69
99.07
88.87
74.56
58.13
42.03
28.75
20.18
17.17
19.44
25.85
34.86
44.97
54.96
63.93
71.08
75.71
77.12
74.77
68.6
59.16
47.62
35.52
24.23
14.45
5.99
-2.03
-10.67
-20.59
-31.61
-42.76
-52.69
-60.31
-65.34
-68.54
-71.59
-76.51
-85.1
-98.19
-114.98
-132.8
-147.37
-153.67
-147.41
-126.61
-92.51
-49.47
-3.72
38.48
72.56
96.48
110.48
116.07
114.99
108.51
97.62
83.42
67.53
52.17
39.66
31.75
29.09
31.12
36.38
43.19
50.21
56.75
62.61
67.69
71.58
73.42
72.18
67.14
58.31
46.63
33.73
21.35
10.73
2.13
-5.13
-12.37
-20.86
-31.19
-42.97
-54.87
-65.19
-72.63
-76.86
-78.78
-80.28
-83.59
-90.61
-102.31
-118.24
-136.34
-152.97
-163.49
-163.29
-149.23
-120.91
-81.1
-35.22
10.29
49.79
79.89
99.75
110.41
113.68
111.14
103.88
92.84
79.25
65.06
52.54
43.79
39.98
41.06
45.87
52.7
59.93
66.59
72.34
77.2
81.18
83.85
84.44
82.04
76.12
66.79
54.91
41.92
29.35
18.35
9.29
1.65
-5.66
-13.88
-23.77
-35.23
-47.31
-58.59
-67.75
-74.17
-78.2
-81.12
-84.75
-90.95
-101.11
-115.65
-133.66
-152.61
-168.54
-176.75
-173.04
-155.2
-123.96
-83.12
-38.57
3.43
38.02
62.62
76.96
82.26
80.21
72.35
59.95
44.48
27.81
12.31
0.33
-6.37
-7.08
-2.3
6.57
17.75
29.6
40.82
50.51
57.96
62.54
63.7
61.17
55.19
46.63
36.77
26.95
18.08
10.3
3.08
-4.42
-12.9
-22.52
-32.75
-42.6
-51.09
-57.66
-62.56
-66.88
-72.33
-80.69
-93.13
-109.42
-127.46
-143.35
-152.2
-149.52
-132.82
-102.64
-62.62
-18.35
24.18
60.31
87.45
105.08
113.9
115.1
109.89
99.48
85.46
69.86
55.06
43.26
35.97
33.71
35.94
41.41
48.54
55.97
62.76
68.38
72.57
75.06
75.37
72.9
67.26
58.56
47.64
35.84
24.57
14.67
6.08
-2.02
-10.75
-20.85
-32.23
-43.92
-54.54
-62.9
-68.52
-71.92
-74.49
-78.11
-84.65
-95.47
-110.76
-129.08
-147.19
-160.43
-163.8
-153.57
-128.7
-91.44
-46.84
-1.21
39.79
72.49
95.63
109.81
116.47
117.01
112.51
103.96
92.66
80.41
69.35
61.45
57.92
58.85
63.29
69.7
76.54
82.8
88.1
92.52
96.13
98.54
98.89
96.13
89.6
79.51
67.1
54.23
42.63
33.23
25.71
18.78
10.8
0.61
-11.84
-25.52
-38.72
-49.84
-58.07
-63.72
-68.05
-72.86
-80.02
-90.93
-106.07
-124.64
-144.21
-160.82
-169.63
-166.33
-148.6
-117.3
-76.49
-32.29
9.0
42.62
66.27
79.94
84.94
82.89
75.19
63.06
47.9
31.6
16.42
4.54
-2.46
-3.96
-0.35
7.22
17.22
28.08
38.46
47.37
54.11
58.21
59.41
57.64
53.13
46.41
38.3
29.58
20.84
12.18
3.3
-6.22
-16.55
-27.35
-37.75
-46.78
-53.81
-58.99
-63.34
-68.52
-76.25
-87.68
-102.7
-119.55
-134.8
-144.0
-142.87
-128.67
-101.33
-63.78
-21.23
20.42
56.18
83.09
100.42
109.05
110.47
106.07
96.98
84.32
69.61
54.92
42.59
34.59
31.93
34.38
40.66
48.99
57.76
65.89
72.86
78.28
81.62
82.0
78.49
70.6
58.74
44.34
29.35
15.61
4.12
-5.17
-13.28
-21.5
-30.79
-41.29
-52.28
-62.57
-71.03
-77.2
-81.51
-85.25
-90.19
-98.12
-110.18
-126.36
-145.02
-162.8
-175.04
-176.91
-164.95
-138.43
-99.88
-54.62
-9.11
30.91
61.91
82.92
94.94
99.86
99.35
94.66
86.71
76.66
66.24
57.58
52.67
52.63
57.31
65.28
74.48
82.93
89.47
93.96
96.92
98.95
100.12
99.87
97.22
91.38
82.35
71.0
58.81
47.37
37.71
29.96
23.42
16.85
9.13
-0.33
-11.27
-22.64
-33.04
-41.28
-46.92
-50.49
-53.37
-57.34
-64.13
-74.96
-90.2
-108.99
-128.96
-146.25
-156.08
-154.04
-137.7
-107.74
-68.18
-25.19
14.88
47.33
70.11
83.54
89.13
88.52
82.82
72.8
59.55
44.84
31.07
20.64
15.14
14.89
18.92
25.52
32.83
39.53
44.95
48.97
51.64
52.86
52.21
49.12
43.16
34.39
23.61
12.19
1.63
-6.93
-13.29
-18.19
-23.03
-29.18
-37.2
-46.57
-55.81
-63.19
-67.56
-68.94
-68.63
-68.73
-71.43
-78.28
-89.71
-104.73
-120.92
-134.63
-141.66
-138.19
-122.09
-93.76
-56.37
-15.06
24.54
57.86
82.42
97.81
105.05
105.53
100.49
90.94
78.02
63.4
49.3
38.07
31.55
30.52
34.46
41.83
50.58
58.87
65.56
70.31
73.36
74.99
75.12
73.2
68.45
60.45
49.54
36.97
24.51
13.86
5.83
0.05
-4.85
-10.63
-18.52
-28.7
-40.12
-51.15
-60.26
-66.77
-71.08
-74.53
-78.87
-85.78
-96.47
-111.3
-129.42
-148.42
-164.26
-171.99
-167.08
-147.14
-113.07
-69.16
-21.83
22.35
58.54
84.62
100.88
108.97
110.71
107.46
100.13
89.63
77.3
64.97
54.59
47.72
45.13
46.63
51.29
57.81
64.88
71.46
76.86
80.71
82.79
83.06
81.44
77.9
72.4
65.01
55.96
45.72
34.93
24.35
14.59
6.01
-1.4
-7.98
-14.3
-20.94
-28.19
-35.98
-43.74
-50.62
-55.89
-59.26
-61.2
-62.91
-66.11
-72.58
-83.56
-99.27
-118.4
-137.96
-153.46
-159.83
-152.8
-130.47
-94.24
-48.8
-0.87
42.86
77.52
101.09
114.11
118.6
116.71
110.05
99.65
86.44
71.77
57.51
45.71
37.92
34.8
35.93
40.14
45.98
52.17
57.91
62.82
66.71
69.36
70.42
69.37
65.77
59.4
50.43
39.46
27.36
15.19
3.92
-5.81
-13.89
-20.88
-27.7
-35.38
-44.47
-54.75
-65.28
-74.79
-82.24
-87.31
-90.51
-93.02
-96.32
-101.86
-110.76
-123.5
-139.52
-156.78
-171.65
-179.43
-175.58
-157.35
-125.03
-82.22
-34.89
10.42
48.49
76.51
94.15
102.63
103.64
98.59
88.57
74.73
58.77
42.96
29.75
21.11
17.93
19.85
25.46
32.95
40.77
47.93
54.16
59.53
64.05
67.4
68.85
67.56
62.97
55.18
45.06
33.97
23.28
13.83
5.65
-1.99
-10.13
-19.62
-30.66
-42.63
-54.3
-64.28
-71.61
-76.17
-78.85
-81.27
-85.43
-93.12
-105.3
-121.64
-140.25
-157.69
-169.48
-171.02
-158.95
-132.37
-93.41
-47.01
0.47
42.99
76.34
98.93
111.36
115.49
113.31
106.33
95.64
82.21
67.46
53.28
41.78
34.63
32.61
35.38
41.69
49.9
58.56
66.75
74.08
80.44
85.64
89.13
90.14
88.0
82.45
73.9
63.4
52.29
41.86
32.92
25.51
19.0
12.28
4.24
-5.77
-17.55
-30.09
-41.88
-51.58
-58.61
-63.49
-67.69
-73.06
-81.35
-93.58
-109.69
-128.35
-146.91
-161.5
-167.66
-161.47
-140.8
-106.43
-62.24
-14.27
30.99
68.42
95.43
111.87
119.16
119.16
113.3
102.58
87.93
70.77
53.17
37.42
25.5
18.4
16.07
17.59
21.73
27.41
33.89
40.7
47.31
52.86
56.24
56.33
52.45
44.69
33.98
21.82
9.76
-1.06
-10.38
-18.75
-27.25
-36.87
-48.01
-60.08
-71.71
-81.31
-87.8
-91.14
-92.49
-93.86
-97.32
-104.4
-115.43
-129.24
-143.16
-153.36
-155.63
-146.47
-124.27
-90.1
-47.73
-2.6
39.58
74.35
99.34
114.16
119.78
117.68
109.32
96.06
79.43
61.27
43.78
29.08
18.81
13.77
13.83
18.14
25.44
34.39
43.77
52.46
59.43
63.73
64.72
62.19
56.53
48.65
39.63
30.32
20.97
11.28
0.62
-11.45
-24.9
-39.03
-52.76
-64.96
-74.99
-82.87
-89.45
-96.23
-104.92
-116.93
-132.75
-151.2
-169.23
-182.11
-184.67
-172.85
-145.32
-104.35
-55.28
-5.02
40.01
75.46
99.7
113.24
117.72
114.95
106.51
93.9
78.87
63.43
49.63
39.13
32.78
30.67
32.28
36.85
43.59
51.72
60.48
68.96
76.11
80.83
82.21
79.75
73.58
64.58
54.05
43.34
33.29
24.0
14.87
5.13
-5.67
-17.27
-28.78
-39.14
-47.58
-54.07
-59.31
-64.64
-71.59
-81.47
-94.82
-110.84
-127.0
-139.22
-142.72
-133.51
-109.89
-73.41
-28.69
17.93
60.24
93.81
116.78
129.5
133.57
130.76
122.49
109.85
94.07
76.8
60.15
46.19
36.49
31.69
31.55
35.23
41.55
49.42
57.77
65.61
71.95
75.8
76.39
73.33
66.78
57.49
46.56
35.09
23.8
12.79
1.61
-10.42
-23.79
-38.35
-53.24
-67.28
-79.37
-89.03
-96.65
-103.38
-110.85
-120.65
-133.68
-149.49
-165.86
-178.92
-183.85
-176.34
-154.19
-118.35
-73.0
-24.33
21.19
58.67
85.68
102.19
109.58
109.62
103.8
93.24
79.1
63.01
47.15
33.92
25.32
22.37
24.85
31.48
40.41
49.8
58.22
64.71
68.73
70.01
68.49
64.35
58.08
50.32
41.63
32.32
22.34
11.44
-0.55
-13.43
-26.55
-39.08
-50.34
-60.12
-68.84
-77.49
-87.36
-99.63
-114.82
-132.16
-149.18
-161.84
-165.31
-155.52
-130.74
-92.57
-45.78
3.04
47.46
82.89
107.33
121.07
125.65
122.84
114.17
101.0
84.89
67.87
52.23
40.05
32.7
30.45
32.63
38.01
45.25
53.22
61.06
68.13
73.75
77.27
78.01
75.49
69.65
60.94
50.35
39.2
28.63
19.25
10.82
2.47
-6.87
-17.79
-29.94
-42.14
-52.86
-60.9
-66.06
-69.27
-72.33
-77.37
-86.19
-99.6
-116.8
-135.09
-150.04
-156.37
-149.53
-127.35
-91.09
-45.39
3.11
47.72
83.6
108.64
123.17
128.89
127.7
121.04
109.91
95.44
79.23
63.49
50.49
41.9
38.27
38.98
42.71
48.09
54.15
60.44
66.76
72.66
77.27
79.34
77.74
71.89
62.18
49.84
36.66
24.28
13.67
4.77
-3.35
-12.12
-22.68
-35.39
-49.51
-63.52
-75.7
-84.94
-91.27
-95.87
-100.74
-108.1
-119.54
-135.51
-154.74
-174.15
-189.23
-194.92
-187.08
-163.98
-127.15
-81.24
-32.83
11.53
47.01
71.47
85.15
89.8
87.42
79.62
67.58
52.56
36.33
21.22
9.7
3.66
3.82
9.52
19.14
30.53
41.75
51.3
58.31
62.37
63.41
61.58
57.25
50.9
43.05
34.06
24.11
13.22
1.34
-11.32
-24.27
-36.84
-48.31
-58.25
-66.68
-74.05
-81.31
-89.67
-100.35
-114.06
-130.34
-147.04
-160.24
-165.03
-157.01
-133.99
-97.13
-50.88
-1.73
43.77
80.79
107.09
122.79
129.32
128.46
121.7
110.26
95.49
79.14
63.27
49.95
40.71
36.26
36.34
40.03
46.06
53.21
60.43
66.92
71.89
74.52
74.06
70.04
62.58
52.51
41.17
29.95
19.7
10.42
1.33
-8.67
-20.35
-33.59
-47.37
-60.13
-70.46
-77.74
-82.45
-86.16
-91.02
-99.12
-111.69
-128.4
-146.92
-162.95
-171.1
-166.36
-145.86
-110.14
-63.41
-12.32
36.0
75.98
104.84
122.55
130.72
131.43
126.3
116.51
103.2
88.03
73.17
60.95
53.07
50.15
51.68
56.4
62.96
70.3
77.8
85.08
91.64
96.7
99.15
97.93
92.33
82.41
69.17
54.28
39.7
26.94
16.55
7.9
-0.51
-10.23
-22.11
-35.76
-49.69
-61.99
-71.29
-77.32
-81.09
-84.5
-89.72
-98.57
-112.02
-129.68
-149.44
-167.39
-178.44
-177.52
-161.4
-130.08
-87.2
-39.07
7.19
45.8
73.62
90.25
97.1
96.11
88.9
76.64
60.45
41.97
23.55
7.89
-2.62
-6.61
-4.02
3.95
15.34
28.0
40.01
49.92
56.78
60.13
59.95
56.59
50.69
42.93
33.85
23.77
12.81
1.09
-11.14
-23.41
-35.11
-45.67
-54.7
-62.15
-68.36
-74.08
-80.39
-88.61
-99.76
-114.01
-129.99
-144.48
-152.95
-150.76
-134.78
-104.71
-63.54
-16.76
29.23
68.92
98.83
117.95
127.03
127.77
122.05
111.53
97.8
82.43
67.19
53.86
44.01
38.55
37.68
40.83
46.85
54.33
61.94
68.58
73.36
75.65
75.01
71.17
64.28
54.89
43.9
32.23
20.56
9.08
-2.53
-14.69
-27.58
-40.81
-53.55
-64.8
-73.88
-80.85
-86.57
-92.63
-100.88
-112.82
-128.85
-147.68
-166.0
-178.89
-181.04
-168.52
-140.26
-98.85
-49.94
-0.51
43.18
77.15
100.22
113.32
118.3
116.99
110.73
100.63
88.06
74.95
63.58
56.09
53.72
56.47
63.14
71.84
80.69
88.4
94.42
98.76
101.55
102.64
101.51
97.45
89.94
79.1
65.82
51.63
38.22
26.82
17.74
10.21
2.73
-6.22
-17.4
-30.42
-43.84
-55.85
-65.09
-71.33
-75.59
-79.8
-86.12
-96.36
-111.36
-130.7
-152.29
-172.36
-185.9
-187.75
-174.3
-144.93
-102.7
-53.61
-4.89
37.18
68.78
88.94
98.82
100.46
95.74
86.11
72.83
57.44
42.07
29.14
20.67
17.71
19.97
26.07
34.08
42.26
49.46
55.19
59.36
61.85
62.29
60.14
54.98
46.93
36.76
25.82
15.51
6.74
-0.46
-6.88
-13.74
-21.98
-31.72
-42.12
-51.81
-59.48
-64.61
-67.75
-70.31
-74.23
-81.24
-92.37
-107.47
-124.77
-140.86
-151.07
-150.63
-136.15
-107.09
-66.39
-19.75
26.03
65.19
94.4
113.05
122.41
124.33
120.31
111.35
98.42
83.07
67.67
54.92
47.01
44.89
47.99
54.54
62.27
69.25
74.38
77.44
78.85
79.17
78.65
77.03
73.64
67.85
59.44
48.93
37.5
26.59
17.32
10.01
4.09
-1.68
-8.59
-17.35
-27.82
-38.99
-49.48
-58.06
-64.27
-68.57
-72.28
-77.11
-84.73
-96.34
-112.27
-131.54
-151.62
-168.34
-176.61
-171.68
-150.9
-114.97
-68.13
-17.11
30.95
70.55
99.01
116.43
124.63
125.86
121.98
114.34
104.21
93.12
82.97
75.6
72.22
73.07
77.34
83.6
90.32
96.31
100.89
103.78
104.9
104.13
101.25
96.05
88.57
79.15
68.45
57.3
46.39
36.18
26.86
18.43
10.84
4.04
-2.05
-7.65
-13.22
-19.37
-26.68
-35.4
-45.28
-55.59
-65.36
-73.81
-80.68
-86.42
-92.13
-99.38
-109.74
-124.37
-143.29
-164.78
-185.14
-199.02
-200.88
-186.78
-156.17
-112.59
-62.72
-14.28
26.39
55.99
74.34
83.3
85.09
81.27
72.62
59.85
44.4
28.76
15.88
8.34
7.34
12.39
21.66
32.76
43.59
52.85
60.19
65.74
69.67
71.75
71.32
67.64
60.32
49.75
37.25
24.62
13.61
5.19
-0.87
-5.85
-11.5
-19.21
-29.35
-41.0
-52.37
-61.61
-67.67
-70.67
-72.03
-73.9
-78.48
-87.39
-101.12
-118.68
-137.38
-153.05
-160.74
-156.07
-136.68
-103.35
-60.08
-13.02
31.38
68.2
95.0
111.68
119.54
120.17
114.91
104.86
91.34
76.21
61.76
50.32
43.5
41.89
44.9
51.09
58.66
65.99
72.01
76.27
78.8
79.76
79.26
77.12
72.98
66.56
57.89
47.35
35.73
24.01
13.11
3.64
-4.26
-11.0
-17.38
-24.28
-32.27
-41.34
-50.79
-59.58
-66.71
-71.71
-74.88
-77.19
-79.99
-84.73
-92.71
-104.75
-120.74
-139.11
-156.5
-168.04
-168.43
-153.73
-123.0
-79.09
-27.99
22.92
67.12
100.59
122.41
133.92
137.42
135.0
128.0
117.3
103.96
89.56
76.19
65.88
59.95
58.58
60.91
65.49
70.92
76.18
80.7
84.14
86.12
86.17
83.87
79.16
72.37
64.19
55.29
46.09
36.65
26.81
16.47
5.85
-4.57
-14.3
-23.08
-31.05
-38.74
-46.69
-55.2
-64.12
-72.9
-80.76
-87.11
-91.78
-95.14
-98.17
-102.31
-109.21
-120.3
-136.13
-155.63
-175.67
-191.26
-196.73
-187.54
-161.99
-122.23
-73.76
-23.83
20.85
55.77
79.34
92.31
96.51
93.84
85.65
73.05
57.35
40.57
25.2
13.73
7.88
8.05
13.32
21.91
31.79
41.41
49.9
57.01
62.8
67.16
69.6
69.35
65.65
58.23
47.7
35.46
23.32
12.84
4.59
-1.97
-8.21
-15.65
-25.12
-36.4
-48.32
-59.31
-68.08
-74.12
-77.86
-80.47
-83.62
-89.1
-98.38
-112.08
-129.38
-147.63
-162.51
-168.84
-162.18
-140.39
-104.57
-59.1
-10.31
35.27
72.73
99.62
115.9
123.08
123.06
117.44
107.35
93.8
78.14
62.24
48.24
38.04
32.75
32.44
36.22
42.61
50.1
57.44
63.86
68.97
72.54
74.31
73.87
70.81
64.88
56.22
45.45
33.59
21.79
11.06
1.94
-5.62
-12.26
-18.91
-26.53
-35.68
-46.3
-57.58
-68.27
-77.13
-83.42
-87.31
-89.88
-92.8
-97.91
-106.74
-120.01
-137.22
-156.19
-173.11
-182.89
-180.43
-162.28
-128.18
-81.54
-28.75
22.73
66.55
99.04
119.56
129.67
131.75
127.91
119.68
108.19
94.77
81.14
69.27
60.86
56.82
57.04
60.6
66.19
72.61
78.99
84.83
89.85
93.76
96.2
96.73
94.98
90.69
83.84
74.64
63.58
51.46
39.2
27.7
17.53
8.67
0.5
-7.96
-17.64
-28.9
-41.35
-53.96
-65.42
-74.74
-81.61
-86.56
-90.91
-96.31
-104.51
-116.72
-133.18
-152.63
-172.13
-187.21
-192.92
-185.16
-162.18
-125.48
-79.6
-30.95
14.11
50.8
76.74
91.75
97.01
94.14
84.71
70.32
52.76
34.24
17.27
4.14
-3.56
-5.31
-1.64
6.1
16.22
27.16
37.75
47.25
55.09
60.69
63.33
62.26
57.19
48.56
37.62
26.03
15.18
5.56
-3.3
-12.51
-23.06
-35.12
-47.88
-59.9
-69.73
-76.58
-80.74
-83.47
-86.77
-92.69
-102.76
-117.15
-134.35
-150.87
-161.86
-162.28
-148.46
-119.57
-78.15
-29.62
19.36
62.65
96.3
118.9
131.12
134.69
131.36
122.55
109.43
93.43
76.49
60.91
48.75
41.25
38.58
39.98
44.26
50.37
57.53
65.22
72.92
79.77
84.64
86.31
83.77
76.72
65.73
52.25
38.16
25.21
14.31
5.25
-3.16
-12.46
-23.71
-36.84
-50.68
-63.51
-73.84
-81.27
-86.63
-91.73
-98.72
-109.41
-124.53
-143.27
-163.05
-179.67
-188.08
-183.6
-163.48
-128.11
-81.26
-29.17
21.23
64.23
96.62
117.81
129.0
132.06
128.61
119.91
107.18
92.08
76.88
64.03
55.54
52.32
54.1
59.59
67.13
75.24
82.88
89.56
95.03
99.03
101.03
100.29
96.11
88.23
77.12
64.05
50.75
38.76
28.82
20.55
12.64
3.52
-7.83
-21.28
-35.56
-48.82
-59.45
-66.82
-71.59
-75.48
-80.75
-89.47
-102.9
-121.0
-142.01
-162.35
-177.11
-181.05
-170.16
-143.24
-102.63
-53.78
-3.73
40.98
75.94
99.46
112.08
115.47
111.48
101.64
87.37
70.38
52.81
37.02
25.06
18.13
16.38
19.02
24.75
32.24
40.37
48.3
55.33
60.79
63.91
63.99
60.63
53.94
44.63
33.87
22.9
12.64
3.31
-5.51
-14.59
-24.57
-35.47
-46.64
-56.88
-65.1
-70.8
-74.43
-77.38
-81.58
-88.87
-100.32
-115.64
-132.7
-147.69
-155.7
-152.13
-134.19
-102.13
-59.56
-12.49
32.47
70.0
97.23
113.81
121.06
120.78
114.44
103.17
88.14
71.07
54.29
40.32
31.18
27.72
29.55
35.34
43.41
52.27
60.89
68.54
74.52
78.0
78.14
74.33
66.63
55.91
43.62
31.34
20.11
10.15
0.82
-8.97
-20.11
-32.76
-46.23
-59.19
-70.23
-78.48
-84.08
-88.24
-92.99
-100.53
-112.51
-129.24
-149.11
-168.47
-182.14
-184.75
-172.36
-143.97
-102.19
-52.58
-2.06
43.07
78.69
103.29
117.5
123.03
121.77
115.3
105.1
92.73
80.14
69.38
62.23
59.66
61.61
67.09
74.61
82.71
90.4
97.24
103.08
107.67
110.36
110.13
106.03
97.72
85.83
71.87
57.69
44.72
33.41
23.2
12.93
1.56
-11.24
-24.88
-38.13
-49.68
-58.67
-65.19
-70.26
-75.67
-83.47
-95.38
-112.06
-132.56
-153.93
-171.56
-180.0
-174.66
-153.35
-117.37
-71.35
-22.07
23.69
60.88
87.17
102.7
109.03
108.01
101.11
89.46
74.35
57.58
41.41
28.07
19.24
15.55
16.65
21.44
28.49
36.44
44.05
50.26
54.22
55.21
52.86
47.25
38.97
29.05
18.67
8.8
-0.17
-8.5
-16.87
-25.93
-35.84
-46.12
-55.82
-63.89
-69.82
-73.87
-77.15
-81.33
-88.14
-98.7
-112.88
-128.79
-142.76
-150.03
-146.05
-128.09
-96.42
-54.53
-8.26
36.03
73.16
100.25
116.81
123.94
123.25
116.26
104.17
88.29
70.5
53.26
39.28
30.71
28.53
32.22
40.01
49.67
59.23
67.58
74.38
79.67
83.31
84.8
83.26
78.04
69.16
57.52
44.71
32.38
21.61
12.44
3.96
-5.2
-16.2
-29.33
-43.8
-57.94
-69.98
-78.67
-83.97
-87.16
-90.47
-96.43
-107.08
-123.17
-143.61
-165.29
-183.38
-192.3
-187.15
-165.3
-127.55
-78.19
-23.98
27.71
70.95
102.45
121.82
130.68
131.45
126.29
116.75
104.05
89.56
75.17
63.15
55.48
53.28
56.32
63.21
71.89
80.43
87.53
92.68
95.95
97.51
97.28
94.86
89.64
81.19
69.53
55.43
40.29
25.81
13.5
4.08
-2.74
-8.2
-13.91
-21.25
-30.69
-41.56
-52.39
-61.48
-67.77
-71.37
-73.54
-76.35
-82.06
-92.44
-108.27
-128.99
-152.35
-174.39
-189.8
-193.06
-180.04
-149.61
-104.62
-51.33
2.3
49.06
84.37
106.95
118.09
120.26
115.71
105.98
92.2
75.73
58.68
43.63
33.07
28.48
29.87
35.89
44.46
53.52
61.61
68.06
72.87
76.17
77.87
77.52
74.39
67.84
57.81
44.96
30.66
16.56
4.12
-5.96
-13.91
-20.82
-28.03
-36.67
-47.02
-58.38
-69.36
-78.45
-84.72
-88.28
-90.23
-92.37
-96.62
-104.5
-116.8
-133.2
-152.04
-170.06
-182.68
-184.91
-172.88
-145.36
-104.63
-56.06
-6.53
37.64
72.35
96.16
109.72
114.54
112.17
103.88
90.95
75.21
59.12
45.47
36.62
33.84
37.01
44.76
55.04
65.81
75.52
83.31
88.89
92.11
92.71
90.25
84.31
74.9
62.73
49.29
36.4
25.56
17.32
11.03
5.07
-2.4
-12.55
-25.2
-38.87
-51.38
-60.87
-66.65
-69.59
-71.82
-76.0
-84.5
-98.59
-117.89
-140.02
-160.62
-174.06
-174.75
-158.96
-126.38
-80.72
-28.75
21.7
64.12
94.98
113.97
122.94
124.38
120.28
111.82
99.8
85.41
70.49
57.36
48.12
43.9
44.6
48.97
55.24
61.75
67.43
71.88
75.12
77.23
78.03
77.04
73.62
67.41
58.44
47.41
35.41
23.78
13.57
5.34
-1.14
-6.74
-12.69
-20.05
-29.24
-39.84
-50.73
-60.53
-68.19
-73.37
-76.63
-79.25
-82.92
-89.39
-100.03
-115.37
-134.49
-154.57
-170.89
-177.72
-169.95
-144.98
-104.1
-52.41
2.55
53.09
93.61
121.62
137.51
143.35
141.45
133.58
121.01
104.96
87.18
69.97
55.8
46.58
43.14
45.05
50.85
58.56
66.35
72.86
77.4
79.82
80.26
78.9
75.75
70.64
63.45
54.23
43.41
31.71
20.06
9.21
-0.38
-8.66
-15.93
-22.68
-29.46
-36.72
-44.71
-53.34
-62.23
-70.62
-77.78
-83.27
-87.24
-90.61
-94.88
-101.8
-112.83
-128.6
-148.35
-169.46
-187.55
-197.26
-193.67
-173.95
-138.68
-92.05
-40.73
8.08
48.73
78.21
96.19
104.03
103.63
96.66
84.5
68.64
51.12
34.53
21.59
14.44
13.92
19.43
29.17
40.86
52.51
62.9
71.57
78.45
83.3
85.44
83.89
77.95
67.75
54.53
40.3
27.19
16.55
8.44
1.68
-5.55
-14.93
-27.11
-41.46
-56.27
-69.42
-79.31
-85.51
-88.94
-91.7
-96.44
-105.52
-120.19
-139.84
-161.55
-180.34
-190.14
-185.48
-163.43
-124.88
-74.57
-19.82
31.64
73.93
104.12
122.17
129.81
129.25
122.27
110.12
93.99
75.55
57.12
41.33
30.37
25.37
26.03
30.94
38.09
45.72
52.74
58.86
64.2
68.82
72.3
73.72
71.95
66.24
56.62
44.15
30.51
17.5
6.4
-2.47
-9.82
-17.05
-25.58
-36.23
-48.82
-62.16
-74.54
-84.4
-91.0
-94.73
-97.02
-99.93
-105.66
-115.87
-131.18
-150.52
-170.88
-187.38
-194.28
-186.56
-161.61
-120.52
-68.09
-11.5
41.75
85.85
117.82
137.48
146.48
147.0
140.94
129.66
114.41
96.82
79.1
63.81
53.09
48.04
48.43
52.87
59.58
66.95
74.06
80.57
86.36
91.23
94.58
95.61
93.53
87.94
78.95
67.24
53.89
40.11
26.93
14.93
4.08
-6.3
-17.11
-29.08
-42.27
-55.97
-68.83
-79.48
-87.13
-91.94
-95.1
-98.4
-103.81
-112.98
-126.77
-144.81
-165.14
-184.06
-196.52
-197.32
-182.71
-151.99
-108.17
-57.32
-6.71
37.31
70.89
93.1
104.99
108.36
104.7
94.99
80.23
61.96
42.49
24.67
10.99
3.04
1.23
4.98
13.1
24.13
36.54
48.73
59.11
66.23
69.14
67.63
62.28
54.22
44.77
34.89
24.96
14.74
3.68
-8.68
-22.41
-37.0
-51.58
-65.15
-76.91
-86.64
-94.75
-102.4
-111.2
-122.71
-137.6
-154.76
-170.96
-181.18
-179.97
-163.37
-130.47
-84.2
-30.53
23.27
70.73
107.66
132.58
146.11
149.88
145.63
134.9
119.12
100.04
79.82
60.89
45.48
35.1
30.29
30.64
35.09
42.29
50.93
59.88
68.08
74.52
78.2
78.33
74.57
67.3
57.53
46.64
35.8
25.55
15.65
5.27
-6.34
-19.46
-33.51
-47.31
-59.53
-69.38
-77.01
-83.62
-91.19
-101.82
-116.88
-136.22
-157.52
-176.32
-186.89
-183.75
-163.5
-126.36
-76.42
-20.63
33.29
79.0
112.93
134.51
145.16
147.06
142.14
131.92
117.8
101.52
85.23
71.27
61.5
56.79
56.97
61.05
67.73
75.83
84.36
92.47
99.25
103.57
104.33
100.8
92.93
81.6
68.3
54.68
41.85
30.12
18.96
7.41
-5.28
-19.29
-34.02
-48.37
-61.17
-71.73
-80.19
-87.56
-95.57
-106.14
-120.83
-139.94
-161.96
-183.26
-198.59
-202.31
-190.09
-160.63
-116.47
-63.52
-9.46
38.48
75.36
99.37
111.37
113.64
108.55
97.83
82.66
64.25
44.48
25.95
11.48
3.33
2.34
7.76
17.53
29.02
39.81
48.26
53.63
55.9
55.41
52.61
47.79
41.13
32.69
22.56
10.97
-1.66
-14.66
-27.25
-38.68
-48.53
-56.87
-64.23
-71.49
-79.65
-89.67
-102.19
-117.32
-134.17
-150.48
-162.52
-165.76
-156.19
-131.86
-94.05
-47.27
1.95
46.97
82.93
107.62
121.29
125.57
122.35
113.15
99.17
81.76
62.86
44.99
30.68
21.85
19.22
22.21
29.35
38.8
48.89
58.27
66.01
71.24
73.3
71.77
66.7
58.72
48.92
38.43
27.98
17.69
7.09
-4.43
-17.19
-30.87
-44.57
-57.15
-67.75
-76.18
-83.13
-90.03
-98.76
-110.97
-127.4
-147.02
-166.72
-181.54
-185.87
-175.16
-147.7
-105.48
-53.85
-0.03
49.0
88.22
115.39
130.68
135.79
132.87
123.97
110.92
95.61
80.14
66.74
57.37
53.19
54.26
59.45
67.03
75.23
82.79
89.16
94.28
98.13
100.27
99.88
96.09
88.54
77.78
65.24
52.69
41.53
32.09
23.62
14.7
4.03
-8.83
-23.19
-37.46
-49.88
-59.35
-65.87
-70.71
-75.97
-83.97
-96.5
-114.13
-135.63
-157.65
-175.13
-182.27
-174.33
-149.39
-109.36
-59.79
-8.1
38.63
75.59
101.05
115.76
121.64
120.55
113.77
102.3
87.44
71.19
56.1
44.57
38.14
37.03
40.27
46.19
53.18
60.08
66.34
71.82
76.31
79.26
79.76
76.86
70.0
59.43
46.31
32.36
19.28
8.1
-1.16
-9.47
-18.19
-28.43
-40.34
-52.98
-64.73
-73.97
-79.95
-83.13
-85.08
-87.93
-93.81
-104.13
-119.14
-137.56
-156.33
-170.87
-175.94
-167.13
-142.59
-103.98
-56.35
-6.68
38.29
73.91
98.42
112.41
117.58
115.62
107.67
94.71
78.13
60.2
43.83
31.78
25.8
26.11
31.42
39.63
48.62
56.98
64.18
70.27
75.45
79.52
81.75
81.14
76.89
68.86
57.88
45.54
33.65
23.63
15.85
9.56
3.14
-5.08
-16.09
-29.62
-44.28
-58.11
-69.43
-77.54
-83.0
-87.4
-92.89
-101.61
-115.01
-133.32
-154.97
-176.39
-192.34
-197.05
-185.98
-157.56
-114.17
-61.72
-7.91
40.0
77.21
102.1
115.72
120.44
118.64
112.01
101.73
88.93
75.23
62.71
53.45
48.86
49.2
53.54
60.25
67.56
74.14
79.36
83.19
85.84
87.46
87.82
86.34
82.31
75.22
65.14
52.85
39.71
27.22
16.46
7.72
0.41
-6.61
-14.5
-23.83
-34.32
-44.95
-54.37
-61.48
-65.96
-68.37
-70.07
-72.84
-78.55
-88.65
-103.79
-123.3
-144.67
-163.59
-174.52
-172.2
-153.48
-118.73
-72.15
-20.61
28.46
69.32
99.04
117.57
126.5
127.88
123.24
113.65
100.1
84.07
67.66
53.22
42.8
37.51
37.36
41.35
47.84
55.15
61.96
67.56
71.84
74.98
77.05
77.66
76.03
71.23
62.82
51.19
37.65
23.96
11.69
1.56
-6.76
-14.43
-22.86
-33.04
-45.17
-58.57
-71.96
-83.9
-93.31
-99.78
-103.77
-106.51
-109.74
-115.37
-124.87
-138.77
-155.99
-173.58
-186.98
-190.93
-181.08
-155.57
-115.96
-67.05
-15.54
32.02
70.85
98.73
115.65
122.85
121.78
113.76
100.08
82.48
63.42
45.78
32.21
24.42
22.65
25.83
32.06
39.46
46.77
53.43
59.41
64.63
68.58
70.25
68.5
62.67
53.0
40.78
27.88
16.16
6.65
-0.77
-7.26
-14.44
-23.6
-35.07
-48.02
-60.74
-71.49
-79.22
-84.11
-87.58
-91.95
-99.6
-112.24
-130.07
-151.29
-172.02
-186.92
-190.41
-178.36
-149.61
-106.64
-55.11
-2.23
45.27
82.79
108.58
123.26
128.68
126.81
119.16
106.88
91.27
74.19
58.08
45.41
38.02
36.53
40.17
47.24
55.76
64.11
71.45
77.6
82.59
86.26
88.03
87.0
82.39
73.97
62.34
48.83
35.09
22.57
12.02
