0
-47.1
-35.7
-22.64
-9.64
1.89
11.1
17.76
22.06
24.37
25.03
24.46
23.19
21.84
21.07
21.31
22.66
24.83
27.28
29.4
30.71
30.96
30.19
28.6
26.5
24.06
21.31
18.04
14.04
9.24
3.89
-1.42
-6.05
-9.59
-12.08
-14.08
-16.35
-19.65
-24.43
-30.71
-38.11
-45.79
-52.67
-57.48
-59.1
-56.73
-50.2
-40.11
-27.69
-14.55
-2.29
7.92
15.47
20.36
22.97
23.89
23.74
23.09
22.56
22.73
24.15
27.05
31.15
35.65
39.41
41.4
41.13
38.82
35.19
31.1
27.08
23.18
19.12
14.57
9.46
4.09
-1.08
-5.68
-9.56
-12.92
-16.1
-19.5
-23.46
-28.16
-33.64
-39.61
-45.42
-50.05
-52.3
-51.15
-46.12
-37.48
-26.27
-13.89
-1.8
8.87
17.42
23.57
27.29
28.72
28.19
26.23
23.66
21.39
20.26
20.73
22.68
25.5
28.33
30.37
31.19
30.8
29.52
27.7
25.53
22.95
19.79
15.92
11.4
6.51
1.67
-2.71
-6.42
-9.48
-12.17
-14.95
-18.27
-22.48
-27.68
-33.65
-39.79
-45.16
-48.57
-48.89
-45.34
-37.84
-27.11
-14.49
-1.64
9.95
19.3
26.0
30.13
31.99
32.0
30.63
28.45
26.12
24.34
23.61
24.16
25.78
27.93
29.97
31.26
31.42
30.34
28.18
25.24
21.85
18.22
14.43
10.42
6.07
1.4
-3.37
-7.93
-11.9
-15.13
-17.7
-20.02
-22.62
-26.0
-30.56
-36.3
-42.92
-49.63
-55.29
-58.58
-58.35
-53.95
-45.55
-34.13
-21.19
-8.35
3.1
12.36
19.22
23.77
26.35
27.34
27.17
26.37
25.49
25.07
25.46
26.77
28.79
31.08
33.13
34.47
34.88
34.34
33.01
31.08
28.68
25.79
22.29
18.12
13.29
8.05
2.73
-2.3
-6.8
-10.73
-14.17
-17.33
-20.43
-23.71
-27.42
-31.9
-37.36
-43.69
-50.21
-55.71
-58.66
-57.78
-52.52
-43.31
-31.48
-18.73
-6.62
3.86
12.27
18.58
22.85
25.12
25.49
24.26
22.11
19.91
18.54
18.53
19.93
22.26
24.72
26.56
27.31
26.91
25.69
24.06
22.34
20.6
18.57
15.86
12.21
7.64
2.5
-2.67
-7.35
-11.21
-14.19
-16.49
-18.46
-20.6
-23.45
-27.47
-32.77
-38.94
-45.01
-49.58
-51.26
-49.14
-43.05
-33.6
-22.01
-9.67
2.14
12.42
20.57
26.26
29.42
30.2
29.0
26.43
23.37
20.74
19.29
19.38
20.82
23.02
25.21
26.77
27.38
27.11
26.19
24.88
23.29
21.37
18.96
15.87
11.96
7.26
2.06
-3.21
-8.05
-12.09
-15.24
-17.76
-20.1
-22.78
-26.21
-30.56
-35.82
-41.63
-47.25
-51.51
-53.09
-50.86
-44.37
-34.1
-21.39
-8.02
4.29
14.33
21.5
25.74
27.36
26.92
25.11
22.75
20.56
19.12
18.69
19.3
20.77
22.77
24.84
26.49
27.24
26.82
25.22
22.82
20.1
17.47
15.03
12.55
9.65
6.06
1.74
-3.03
-7.83
-12.25
-16.03
-19.14
-21.73
-24.15
-26.81
-30.16
-34.49
-39.84
-45.89
-51.86
-56.63
-58.89
-57.53
-52.01
-42.65
-30.53
-17.27
-4.52
6.49
15.11
21.24
25.05
26.83
26.87
25.61
23.67
21.79
20.72
20.91
22.45
25.0
27.95
30.59
32.32
32.77
31.9
29.93
27.28
24.31
21.21
17.93
14.29
10.15
5.58
0.86
-3.59
-7.48
-10.76
-13.58
-16.21
-18.91
-21.84
-25.15
-29.07
-33.82
-39.49
-45.79
-51.94
-56.71
-58.73
-56.94
-51.01
-41.45
-29.5
-16.74
-4.67
5.61
13.48
18.77
21.58
22.25
21.25
19.25
17.0
15.26
14.64
15.35
17.25
19.8
22.32
24.14
24.8
24.21
22.56
20.25
17.72
15.27
12.98
10.68
8.07
4.88
1.08
-3.18
-7.45
-11.32
-14.48
-16.96
-19.03
-21.08
-23.55
-26.74
-30.8
-35.63
-40.8
-45.51
-48.68
-49.17
-46.16
-39.47
-29.65
-17.94
-5.82
5.39
14.79
21.97
26.86
29.53
30.14
29.01
26.65
23.86
21.53
20.47
21.12
23.39
26.72
30.22
33.0
34.44
34.32
32.82
30.36
27.44
24.38
21.28
18.01
14.4
10.28
5.71
0.93
-3.72
-7.92
-11.48
-14.43
-16.98
-19.48
-22.31
-25.77
-30.06
-35.11
-40.52
-45.52
-49.04
-49.96
-47.4
-41.11
-31.61
-20.12
-8.16
2.83
11.86
18.5
22.79
24.96
25.35
24.29
22.29
19.98
18.13
17.37
18.0
19.89
22.47
25.01
26.85
27.62
27.28
26.03
24.2
22.07
19.8
17.36
14.65
11.52
7.9
3.89
-0.34
-4.5
-8.36
-11.75
-14.64
-17.13
-19.44
-21.9
-24.94
-28.92
-34.01
-39.99
-46.17
-51.42
-54.43
-54.13
-50.02
-42.35
-32.01
-20.37
-8.76
1.73
10.43
17.02
21.45
23.79
24.25
23.19
21.21
19.08
17.55
17.15
18.03
19.96
22.39
24.73
26.46
27.26
27.02
25.79
23.74
21.12
18.19
15.21
12.32
9.55
6.8
3.95
0.91
-2.27
-5.43
-8.36
-10.95
-13.19
-15.25
-17.43
-20.09
-23.52
-27.92
-33.16
-38.81
-44.07
-47.86
-49.08
-46.96
-41.28
-32.55
-21.9
-10.71
-0.32
8.34
14.79
18.95
21.0
21.27
20.19
18.28
16.15
14.43
13.6
13.91
15.24
17.23
19.34
21.04
21.93
21.87
20.95
19.43
17.59
15.57
13.34
10.69
7.46
3.62
-0.61
-4.88
-8.77
-11.99
-14.42
-16.15
-17.42
-18.62
-20.21
-22.66
-26.31
-31.16
-36.75
-42.17
-46.24
-47.84
-46.24
-41.31
-33.55
-23.89
-13.48
-3.44
5.38
12.43
17.45
20.38
21.34
20.55
18.44
15.61
12.79
10.74
10.0
10.77
12.86
15.71
18.6
20.84
22.01
21.99
21.02
19.51
17.83
16.19
14.5
12.54
10.09
7.13
3.9
0.78
-1.94
-4.24
-6.4
-8.83
-11.95
-15.99
-20.91
-26.49
-32.27
-37.61
-41.65
-43.46
-42.23
-37.63
-29.91
-19.93
-8.93
1.84
11.41
19.16
24.86
28.49
30.19
30.19
28.83
26.6
24.08
21.92
20.68
20.65
21.81
23.72
25.7
27.02
27.19
26.05
23.85
20.98
17.85
14.69
11.54
8.32
4.88
1.17
-2.81
-6.93
-10.98
-14.71
-17.97
-20.77
-23.35
-26.13
-29.55
-33.9
-39.13
-44.77
-49.95
-53.52
-54.31
-51.54
-45.0
-35.28
-23.61
-11.51
-0.37
8.86
15.79
20.42
22.97
23.77
23.17
21.61
19.63
17.81
16.63
16.43
17.31
19.14
21.6
24.25
26.6
28.2
28.76
28.19
26.65
24.37
21.55
18.35
14.81
10.93
6.8
2.63
-1.33
-4.79
-7.66
-10.0
-12.05
-14.18
-16.69
-19.82
-23.71
-28.4
-33.79
-39.57
-45.04
-49.2
-50.93
-49.33
-44.07
-35.63
-25.18
-14.18
-3.94
4.63
11.2
15.79
18.65
20.05
20.2
19.37
17.94
16.42
15.38
15.31
16.46
18.69
21.5
24.16
26.0
26.66
26.18
24.94
23.41
21.81
20.06
17.83
14.77
10.82
6.27
1.67
-2.39
-5.6
-7.98
-9.96
-12.01
-14.53
-17.7
-21.49
-25.82
-30.6
-35.68
-40.7
-44.97
-47.45
-47.05
-43.04
-35.42
-25.05
-13.44
-2.22
7.34
14.61
19.59
22.57
23.92
23.96
23.01
21.52
20.12
19.45
19.92
21.56
23.95
26.46
28.46
29.53
29.56
28.67
27.1
25.09
22.77
20.12
17.02
13.37
9.22
4.79
0.44
-3.46
-6.68
-9.27
-11.44
-13.55
-15.96
-19.01
-22.91
-27.69
-33.11
-38.5
-42.88
-45.03
-43.98
-39.27
-31.21
-20.77
-9.39
1.53
10.9
18.11
23.03
25.85
26.92
26.64
25.47
23.9
22.48
21.73
22.02
23.4
25.55
27.85
29.63
30.37
29.95
28.58
26.65
24.44
22.01
19.19
15.8
11.74
7.15
2.32
-2.39
-6.72
-10.51
-13.72
-16.38
-18.67
-20.84
-23.27
-26.38
-30.54
-35.82
-41.94
-48.13
-53.29
-56.13
-55.56
-51.03
-42.77
-31.79
-19.55
-7.58
2.9
11.25
17.31
21.26
23.37
23.95
23.35
22.07
20.73
20.03
20.51
22.29
25.08
28.16
30.74
32.21
32.32
31.23
29.34
27.06
24.66
22.22
19.68
16.91
13.78
10.2
6.14
1.73
-2.77
-7.0
-10.67
-13.68
-16.18
-18.56
-21.29
-24.78
-29.22
-34.49
-40.14
-45.33
-48.98
-49.99
-47.54
-41.45
-32.29
-21.26
-9.83
0.67
9.38
15.86
20.07
22.12
22.23
20.77
18.33
15.71
13.78
13.18
14.16
16.43
19.24
21.74
23.23
23.41
22.42
20.72
18.8
16.97
15.27
13.47
11.31
8.63
5.44
1.9
-1.73
-5.18
-8.22
-10.69
-12.62
-14.23
-15.98
-18.42
-22.0
-26.85
-32.6
-38.4
-43.04
-45.28
-44.18
-39.33
-31.06
-20.36
-8.6
2.79
12.62
20.17
25.14
27.59
27.81
26.31
23.79
21.1
19.14
18.54
19.55
21.91
24.97
27.94
30.09
31.01
30.64
29.24
27.22
25.01
22.86
20.72
18.32
15.3
11.51
7.07
2.38
-2.06
-5.91
-9.06
-11.7
-14.15
-16.78
-19.94
-23.86
-28.54
-33.68
-38.55
-42.09
-43.15
-40.93
-35.25
-26.68
-16.32
-5.44
4.79
13.52
20.2
24.55
26.55
26.4
24.61
21.96
19.38
17.68
17.4
18.6
20.88
23.55
25.84
27.2
27.44
26.67
25.22
23.45
21.57
19.6
17.42
14.79
11.48
7.44
2.81
-2.02
-6.6
-10.53
-13.69
-16.23
-18.56
-21.13
-24.36
-28.45
-33.41
-38.99
-44.58
-49.23
-51.78
-51.21
-46.97
-39.29
-29.1
-17.83
-6.87
2.68
10.27
15.79
19.39
21.31
21.84
21.29
20.03
18.57
17.41
17.02
17.63
19.17
21.31
23.47
25.1
25.8
25.42
24.05
21.94
19.36
16.51
13.47
10.27
6.87
3.26
-0.49
-4.24
-7.77
-10.85
-13.43
-15.66
-17.87
-20.45
-23.71
-27.76
-32.46
-37.44
-42.1
-45.65
-47.2
-45.93
-41.43
-33.82
-23.93
-13.01
-2.41
6.74
13.83
18.64
21.25
21.89
20.9
18.8
16.27
14.06
12.79
12.78
13.99
16.1
18.61
21.01
22.87
23.88
23.89
22.9
21.03
18.42
15.24
11.55
7.47
3.2
-0.89
-4.36
-6.86
-8.33
-9.13
-9.9
-11.36
-14.02
-18.05
-23.24
-29.03
-34.58
-38.91
-41.01
-40.05
-35.63
-27.99
-17.96
-6.88
3.8
12.89
19.7
24.08
26.35
26.98
26.46
25.2
23.58
22.0
20.9
20.64
21.36
22.81
24.46
25.69
26.05
25.41
24.02
22.26
20.42
18.54
16.42
13.76
10.34
6.14
1.45
-3.29
-7.57
-11.03
-13.63
-15.6
-17.42
-19.67
-22.78
-27.03
-32.34
-38.32
-44.2
-48.91
-51.29
-50.35
-45.67
-37.57
-27.08
-15.66
-4.73
4.67
12.06
17.42
20.99
23.0
23.69
23.24
22.02
20.51
19.27
18.75
19.1
20.14
21.44
22.49
22.88
22.47
21.42
20.02
18.55
17.1
15.55
13.58
10.89
7.36
3.2
-1.17
-5.24
-8.66
-11.39
-13.66
-15.86
-18.36
-21.4
-25.07
-29.38
-34.2
-39.16
-43.65
-46.72
-47.3
-44.57
-38.26
-28.9
-17.71
-6.24
4.07
12.27
18.0
21.47
23.07
23.25
22.39
20.89
19.25
18.02
17.7
18.52
20.27
22.43
24.32
25.39
25.41
24.46
22.83
20.87
18.78
16.62
14.25
11.47
8.12
4.2
-0.09
-4.39
-8.32
-11.62
-14.26
-16.47
-18.54
-20.85
-23.69
-27.28
-31.72
-36.84
-42.17
-46.77
-49.48
-49.17
-45.2
-37.71
-27.62
-16.35
-5.37
4.13
11.47
16.44
19.11
19.73
18.67
16.47
13.85
11.59
10.43
10.79
12.62
15.47
18.62
21.35
23.14
23.83
23.53
22.54
21.07
19.25
17.03
14.31
11.05
7.35
3.47
-0.27
-3.6
-6.38
-8.7
-10.76
-12.87
-15.38
-18.58
-22.69
-27.72
-33.28
-38.6
-42.56
-43.95
-41.92
-36.24
-27.48
-16.82
-5.67
4.75
13.69
20.84
26.17
29.73
31.56
31.79
30.76
29.08
27.5
26.61
26.7
27.56
28.74
29.69
30.07
29.75
28.74
27.11
24.93
22.28
19.24
15.94
12.47
8.86
5.05
1.06
-3.04
-7.04
-10.63
-13.66
-16.13
-18.29
-20.51
-23.25
-26.85
-31.41
-36.72
-42.14
-46.69
-49.25
-48.87
-45.02
-37.9
-28.32
-17.54
-6.91
2.46
9.91
15.22
18.54
20.19
20.61
20.23
19.53
18.96
18.93
19.63
20.99
22.65
24.08
24.79
24.48
23.16
21.06
18.46
15.61
12.65
9.62
6.57
3.56
0.65
-2.12
-4.74
-7.18
-9.4
-11.37
-13.07
-14.63
-16.25
-18.2
-20.7
-23.83
-27.53
-31.6
-35.69
-39.24
-41.54
-41.83
-39.49
-34.32
-26.68
-17.37
-7.49
1.86
9.87
16.08
20.33
22.68
23.37
22.69
21.07
19.03
17.14
15.92
15.7
16.53
18.19
20.23
22.08
23.28
23.57
22.96
21.6
19.74
17.51
14.99
12.18
9.08
5.73
2.21
-1.37
-4.92
-8.28
-11.34
-13.96
-16.11
-17.94
-19.72
-21.86
-24.71
-28.46
-33.01
-37.88
-42.27
-45.11
-45.42
-42.55
-36.48
-27.86
-17.86
-7.77
1.32
8.76
14.32
18.01
19.97
20.38
19.55
17.98
16.33
15.23
15.11
16.07
17.89
20.16
22.43
24.32
25.54
25.94
25.51
24.36
22.71
20.68
18.31
15.51
12.16
8.3
4.18
0.24
-3.1
-5.53
-7.09
-8.15
-9.27
-11.03
-13.88
-17.97
-23.09
-28.66
-33.87
-37.79
-39.56
-38.54
-34.47
-27.57
-18.54
-8.46
1.41
9.93
16.35
20.49
22.61
23.21
22.76
21.64
20.16
18.65
17.54
17.21
17.84
19.28
21.08
22.67
23.62
23.71
23.02
21.76
20.14
18.29
16.18
13.68
10.68
7.14
3.2
-0.87
-4.71
-8.04
-10.77
-13.08
-15.29
-17.75
-20.73
-24.37
-28.68
-33.61
-38.96
-44.23
-48.64
-51.15
-50.82
-47.07
-39.98
-30.33
-19.37
-8.51
1.06
8.6
13.89
17.11
18.65
18.92
18.29
17.06
15.57
14.26
13.58
13.89
15.24
17.35
19.65
21.54
22.62
22.8
22.25
21.21
19.85
18.23
16.33
14.09
11.53
8.7
5.71
2.7
-0.19
-2.81
-5.1
-7.08
-8.98
-11.07
-13.71
-17.13
-21.45
-26.61
-32.29
-37.88
-42.47
-45.02
-44.62
-40.8
-33.85
-24.73
-14.78
-5.31
2.77
9.07
13.59
16.5
18.02
18.34
17.69
16.42
15.0
13.91
13.52
14.01
15.26
16.93
18.57
19.75
20.19
19.87
18.94
17.65
16.16
14.48
12.42
9.77
6.43
2.51
-1.67
-5.68
-9.12
-11.84
-13.95
-15.77
-17.7
-20.1
-23.15
-26.95
-31.37
-36.15
-40.76
-44.37
-45.99
-44.72
-40.11
-32.35
-22.33
-11.37
-0.83
8.28
15.38
20.26
22.99
23.74
22.84
20.78
18.28
16.11
14.89
14.92
16.11
18.04
20.14
21.93
23.1
23.58
23.41
22.68
21.42
19.56
17.05
13.85
10.05
5.85
1.58
-2.43
-5.89
-8.67
-10.8
-12.49
-14.14
-16.17
-18.97
-22.68
-27.1
-31.64
-35.39
-37.38
-36.81
-33.33
-27.1
-18.79
-9.37
0.13
8.76
15.84
20.9
23.77
24.6
23.74
21.81
19.51
17.54
16.45
16.53
17.72
19.69
21.91
23.79
24.89
24.96
24.04
22.36
20.23
17.87
15.35
12.63
9.58
6.16
2.47
-1.32
-4.99
-8.36
-11.37
-14.1
-16.76
-19.62
-22.99
-27.12
-32.13
-37.85
-43.71
-48.77
-51.84
-51.83
-48.16
-41.01
-31.27
-20.29
-9.42
0.32
8.39
14.6
18.97
21.58
22.59
22.3
21.15
19.74
18.57
17.94
17.89
18.31
18.96
19.63
20.1
20.18
19.69
18.52
16.7
14.43
11.99
9.61
7.33
5.04
2.53
-0.33
-3.45
-6.57
-9.35
-11.59
-13.33
-14.85
-16.57
-18.92
-22.15
-26.3
-31.09
-35.92
-39.92
-42.07
-41.48
-37.65
-30.69
-21.35
-10.82
-0.4
8.78
16.01
21.05
23.97
25.08
24.8
23.61
22.06
20.7
20.05
20.39
21.74
23.71
25.68
27.05
27.43
26.81
25.46
23.76
22.02
20.31
18.46
16.23
13.38
9.8
5.63
1.18
-3.07
-6.69
-9.45
-11.41
-12.91
-14.49
-16.65
-19.76
-23.98
-29.24
-35.17
-41.08
-45.94
-48.54
-47.88
-43.49
-35.68
-25.49
-14.36
-3.69
5.45
12.49
17.26
19.82
20.44
19.54
17.71
15.63
14.02
13.41
14.04
15.79
18.23
20.76
22.85
24.14
24.54
24.21
23.39
22.3
21.04
19.58
17.81
15.61
12.95
9.9
6.62
3.38
0.41
-2.1
-4.2
-6.2
-8.6
-11.94
-16.52
-22.27
-28.58
-34.5
-38.89
-40.74
-39.46
-34.94
-27.67
-18.55
-8.76
0.58
8.6
14.75
18.85
20.94
21.24
20.11
18.1
15.89
14.22
13.68
14.55
16.65
19.49
22.41
24.78
26.2
26.52
25.82
24.35
22.37
20.17
17.94
15.72
13.44
10.91
8.0
4.72
1.24
-2.17
-5.26
-7.95
-10.44
-13.14
-16.56
-21.09
-26.79
-33.27
-39.65
-44.8
-47.58
-47.15
-43.25
-36.26
-27.15
-17.2
-7.71
0.31
6.27
9.99
11.65
11.67
10.57
8.99
7.65
7.23
8.32
11.23
15.85
21.59
27.47
32.44
35.71
36.92
36.31
34.4
31.82
29.0
26.04
22.8
19.06
14.72
9.82
4.59
-0.64
-5.53
-9.9
-13.68
-17.05
-20.29
-23.78
-27.85
-32.67
-38.17
-43.93
-49.26
-53.14
-54.48
-52.43
-46.67
-37.67
-26.58
-14.97
-4.33
4.3
10.49
14.36
16.38
17.07
16.95
16.48
16.09
16.14
16.91
18.47
20.69
23.26
25.7
27.58
28.53
28.43
27.38
25.69
23.72
21.68
19.6
17.33
14.64
11.43
7.77
3.91
0.1
-3.44
-6.64
-9.54
-12.2
-14.74
-17.32
-20.16
-23.58
-27.83
-32.9
-38.43
-43.61
-47.3
-48.4
-46.12
-40.28
-31.36
-20.49
-9.12
1.35
9.78
15.6
18.79
19.74
19.07
17.42
15.41
13.61
12.53
12.61
14.07
16.74
20.06
23.23
25.51
26.47
26.14
24.87
23.16
21.3
19.31
16.98
14.06
10.49
6.48
2.47
-1.1
-3.94
-6.15
-8.04
-10.07
-12.55
-15.62
-19.25
-23.4
-28.0
-32.84
-37.41
-40.85
-42.13
-40.46
-35.59
-27.99
-18.71
-8.94
0.29
8.29
14.68
19.24
21.84
22.5
21.53
19.55
17.34
15.73
15.25
16.1
18.07
20.67
23.29
25.35
26.45
26.45
25.43
23.55
20.99
17.84
14.2
10.2
6.06
2.04
-1.59
-4.72
-7.39
-9.75
-11.98
-14.27
-16.83
-19.85
-23.56
-28.1
-33.37
-39.02
-44.27
-48.12
-49.46
-47.44
-41.74
-32.77
-21.62
-9.75
1.39
10.71
17.63
22.07
24.27
24.65
23.72
22.06
20.3
19.08
18.83
19.66
21.37
23.47
25.38
26.55
26.68
25.7
23.82
21.36
18.63
15.8
12.77
9.35
5.4
0.97
-3.62
-7.93
-11.6
-14.47
-16.69
-18.55
-20.37
-22.5
-25.24
-28.9
-33.7
-39.61
-46.13
-52.2
-56.39
-57.3
-53.96
-46.33
-35.26
-22.32
-9.29
2.33
11.63
18.37
22.78
25.27
26.25
26.08
25.17
24.03
23.27
23.42
24.71
27.0
29.77
32.38
34.27
35.14
34.97
33.89
32.05
29.56
26.53
23.01
19.13
14.98
10.68
6.36
2.15
-1.76
-5.2
-8.08
-10.43
-12.44
-14.41
-16.82
-20.11
-24.65
-30.56
-37.44
-44.36
-49.91
-52.55
-51.13
-45.28
-35.61
-23.48
-10.61
1.41
11.45
18.9
23.65
25.89
26.01
24.55
22.21
19.73
17.86
17.17
17.91
19.9
22.63
25.41
27.59
28.79
28.91
28.14
26.74
24.91
22.73
20.19
17.24
13.88
10.21
6.29
2.28
-1.67
-5.37
-8.6
-11.23
-13.33
-15.22
-17.47
-20.65
-25.14
-30.88
-37.31
-43.43
-48.03
-49.93
-48.32
-42.95
-34.26
-23.26
-11.3
0.19
10.1
17.71
22.77
25.36
25.83
24.71
22.63
20.28
18.36
17.42
17.73
19.22
21.54
24.15
26.48
28.05
28.6
28.05
26.54
24.32
21.66
18.71
15.47
11.85
7.78
3.35
-1.15
-5.3
-8.75
-11.42
-13.49
-15.37
-17.52
-20.3
-23.95
-28.57
-34.04
-39.92
-45.33
-49.02
-49.64
-46.2
-38.51
-27.3
-14.05
-0.58
11.52
21.15
27.85
31.65
32.88
32.04
29.77
26.83
24.02
22.17
21.81
23.06
25.58
28.57
31.13
32.54
32.46
30.98
28.57
25.69
22.7
19.72
16.72
13.56
10.13
6.4
2.37
-1.8
-5.88
-9.61
-12.8
-15.42
-17.64
-19.75
-22.17
-25.29
-29.41
-34.71
-41.01
-47.71
-53.68
-57.47
-57.63
-53.3
-44.55
-32.42
-18.66
-5.18
6.46
15.4
21.43
24.84
26.11
25.77
24.35
22.36
20.39
19.04
18.76
19.73
21.78
24.43
27.08
29.18
30.35
30.5
29.72
28.2
26.19
23.84
21.26
18.46
15.39
11.98
8.25
4.32
0.45
-3.04
-5.94
-8.23
-10.11
-11.92
-14.07
-16.95
-20.88
-26.09
-32.61
-40.1
-47.65
-53.86
-57.11
-56.08
-50.29
-40.27
-27.5
-13.85
-1.09
9.46
17.15
21.9
24.04
24.17
22.99
21.3
19.79
18.96
19.17
20.48
22.82
25.81
28.96
31.7
33.47
33.93
33.03
31.02
28.3
25.23
22.01
18.67
15.13
11.3
7.19
2.95
-1.18
-4.94
-8.15
-10.77
-12.89
-14.74
-16.54
-18.52
-20.94
-24.12
-28.39
-33.9
-40.44
-47.23
-53.0
-56.23
-55.64
-50.62
-41.51
-29.5
-16.31
-3.66
7.07
15.15
20.46
23.28
24.07
23.34
21.54
19.2
16.9
15.25
14.77
15.69
17.8
20.6
23.38
25.5
26.61
26.63
25.71
24.1
22.02
19.62
16.97
14.11
11.05
7.84
4.53
1.17
-2.14
-5.33
-8.28
-10.92
-13.26
-15.39
-17.58
-20.24
-23.79
-28.53
-34.4
-40.89
-46.99
-51.41
-52.87
-50.47
-44.0
-34.06
-21.91
-9.18
2.58
12.22
19.21
23.47
25.36
25.36
24.05
22.09
20.12
18.77
18.49
19.43
21.46
24.14
26.94
29.36
31.05
31.75
31.39
29.96
27.58
24.43
20.74
16.79
12.77
8.83
5.03
1.42
-1.98
-5.11
-7.98
-10.62
-13.15
-15.72
-18.47
-21.53
-25.05
-29.16
-34.01
-39.66
-45.97
-52.44
-58.11
-61.71
-61.94
-57.94
-49.62
-37.88
-24.35
-10.92
0.81
9.93
16.33
20.35
22.49
23.15
22.63
21.32
19.82
18.86
19.03
20.6
23.33
26.64
29.88
32.54
34.39
35.34
35.37
34.45
32.56
29.73
26.12
22.02
17.8
13.81
10.3
7.35
4.81
2.39
-0.24
-3.28
-6.68
-10.21
-13.57
-16.6
-19.39
-22.28
-25.73
-30.19
-35.89
-42.7
-49.98
-56.64
-61.27
-62.51
-59.48
-52.11
-41.24
-28.39
-15.26
-3.3
6.57
13.97
18.97
21.82
22.91
22.74
21.85
20.82
20.22
20.48
21.88
24.46
27.94
31.78
35.27
37.73
38.74
38.22
36.39
33.58
30.12
26.21
22.02
17.75
13.66
10.07
7.17
4.95
3.17
1.52
-0.37
-2.69
-5.52
-8.77
-12.17
-15.49
-18.54
-21.4
-24.39
-28.05
-32.88
-39.02
-46.0
-52.75
-57.84
-59.8
-57.63
-51.1
-40.79
-28.03
-14.51
-1.87
8.66
16.42
21.35
23.75
24.14
23.07
21.15
19.04
17.42
16.84
17.62
19.68
22.6
25.75
28.54
30.51
31.48
31.43
30.41
28.52
25.86
22.58
18.91
15.09
11.38
7.97
4.96
2.3
-0.12
-2.45
-4.78
-7.15
-9.51
-11.86
-14.21
-16.66
-19.36
-22.45
-26.09
-30.49
-35.72
-41.71
-48.0
-53.64
-57.32
-57.73
-53.99
-46.05
-34.77
-21.69
-8.57
3.07
12.24
18.63
22.38
23.92
23.75
22.41
20.42
18.4
17.0
16.76
18.03
20.67
24.17
27.76
30.67
32.45
33.0
32.47
31.11
29.1
26.5
23.38
19.82
15.99
12.07
8.18
4.38
0.66
-2.92
-6.27
-9.29
-11.99
-14.49
-17.06
-19.98
-23.53
-27.91
-33.19
-39.21
-45.46
-51.06
-54.82
-55.53
-52.35
-45.16
-34.63
-22.09
-9.12
2.83
12.72
20.08
24.9
27.46
28.21
27.61
26.15
24.38
22.85
22.08
22.4
23.82
26.06
28.63
30.98
32.67
33.43
33.19
31.94
29.67
26.46
22.49
18.03
13.4
8.89
4.66
0.75
-2.91
-6.38
-9.71
-12.95
-16.09
-19.17
-22.22
-25.32
-28.64
-32.47
-37.12
-42.79
-49.36
-56.21
-62.21
-65.93
-66.01
-61.62
-52.82
-40.55
-26.46
-12.43
-0.02
9.79
16.77
21.17
23.44
24.01
23.24
21.57
19.59
18.1
17.86
19.27
22.24
26.2
30.36
33.93
36.42
37.56
37.32
35.78
33.05
29.42
25.21
20.85
16.65
12.8
9.29
5.96
2.63
-0.81
-4.38
-8.0
-11.51
-14.73
-17.57
-20.11
-22.63
-25.63
-29.64
-35.05
-41.83
-49.42
-56.71
-62.21
-64.45
-62.36
-55.66
-44.99
-31.75
-17.72
-4.54
6.61
15.15
21.0
24.38
25.63
25.2
23.74
22.04
20.93
21.07
22.7
25.59
29.19
32.83
35.96
38.18
39.33
39.29
38.06
35.72
32.47
28.61
24.51
20.44
16.52
12.73
8.96
5.12
1.24
-2.55
-6.05
-9.13
-11.85
-14.4
-17.07
-20.16
-23.88
-28.35
-33.62
-39.65
-46.13
-52.38
-57.24
-59.31
-57.37
-50.84
-40.13
-26.6
-12.16
1.29
12.34
20.3
25.1
27.09
26.86
25.16
22.8
20.66
19.46
19.64
21.23
23.91
27.06
30.06
32.34
33.52
33.46
32.23
30.03
27.22
24.11
20.95
17.8
14.59
11.18
7.44
3.38
-0.87
-5.02
-8.8
-12.01
-14.63
-16.87
-19.1
-21.75
-25.19
-29.64
-35.07
-41.1
-46.94
-51.41
-53.18
-51.15
-44.8
-34.52
-21.56
-7.7
5.26
15.98
23.74
28.37
30.13
29.46
27.01
23.58
20.1
17.51
16.44
17.16
19.4
22.59
25.96
28.84
30.71
31.34
30.71
28.99
26.48
23.54
20.41
17.17
13.75
9.98
5.71
0.99
-3.98
-8.81
-13.09
-16.53
-19.1
-21.07
-22.99
-25.54
-29.37
-34.82
-41.79
-49.61
-57.06
-62.62
-64.78
-62.39
-55.12
-43.58
-29.27
-14.2
-0.32
10.98
19.14
24.35
27.18
28.27
28.11
27.09
25.63
24.34
23.85
24.71
27.04
30.47
34.29
37.64
39.81
40.43
39.52
37.31
34.23
30.66
26.92
23.22
19.61
16.08
12.5
8.68
4.46
-0.18
-5.1
-9.96
-14.31
-17.84
-20.51
-22.68
-25.01
-28.3
-33.1
-39.6
-47.35
-55.29
-61.91
-65.48
-64.55
-58.31
-47.04
-32.16
-15.94
-0.83
11.25
19.41
23.83
25.44
25.38
24.55
23.46
22.43
21.72
21.69
22.72
24.94
28.11
31.6
34.62
36.51
36.97
36.08
34.26
31.94
29.43
26.82
24.03
20.92
17.44
13.67
9.71
5.72
1.79
-2.03
-5.71
-9.2
-12.45
-15.47
-18.3
-21.18
-24.38
-28.3
-33.31
-39.58
-46.88
-54.37
-60.63
-64.0
-63.05
-57.15
-46.75
-33.23
-18.49
-4.36
7.8
17.25
23.84
27.74
29.37
29.29
28.17
26.73
25.61
25.28
25.93
27.55
29.93
32.73
35.58
38.08
39.89
40.78
40.61
39.39
37.23
34.28
30.76
26.9
22.9
18.92
14.99
11.1
7.18
3.23
-0.67
-4.43
-7.89
-11.03
-13.92
-16.76
-19.85
-23.58
-28.3
-34.26
-41.38
-49.16
-56.58
-62.25
-64.74
-62.91
-56.37
-45.63
-32.05
-17.49
-3.77
7.74
16.38
22.16
25.45
26.75
26.49
25.07
23.03
21.04
19.83
19.95
21.55
24.29
27.53
30.52
32.72
33.79
33.64
32.32
30.0
26.9
23.3
19.46
15.63
11.93
8.41
5.05
1.8
-1.37
-4.49
-7.54
-10.49
-13.3
-15.96
-18.6
-21.52
-25.16
-29.86
-35.73
-42.38
-48.9
-53.97
-56.21
-54.51
-48.41
-38.26
-25.24
-11.0
2.69
14.37
23.16
28.81
31.58
32.04
30.88
28.8
26.46
24.44
23.2
22.95
23.71
25.29
27.35
29.51
31.34
32.42
32.37
30.98
28.29
24.63
20.48
16.35
12.5
8.93
5.48
1.95
-1.71
-5.39
-8.91
-12.13
-15.08
-17.9
-20.81
-24.02
-27.72
-32.07
-37.21
-43.21
-49.94
-56.81
-62.75
-66.3
-66.01
-60.96
-51.15
-37.67
-22.43
-7.56
5.21
14.96
21.58
25.54
27.45
27.84
27.08
25.55
23.8
22.52
22.39
23.82
26.71
30.44
34.14
36.97
38.44
38.47
37.3
35.25
32.59
29.43
25.81
21.81
17.57
13.31
9.17
5.17
1.24
-2.73
-6.79
-10.86
-14.79
-18.48
-21.92
-25.27
-28.82
-32.95
-37.97
-44.03
-50.86
-57.69
-63.21
-65.88
-64.33
-57.89
-46.94
-32.87
-17.65
-3.31
8.67
17.56
23.36
26.5
27.54
27.11
25.89
24.55
23.77
24.04
25.53
28.02
31.01
33.89
36.14
37.46
37.78
37.2
35.86
33.9
31.39
28.38
24.91
21.05
16.95
12.78
8.66
4.65
0.67
-3.35
-7.42
-11.43
-15.17
-18.48
-21.36
-24.06
-27.04
-30.85
-35.91
-42.33
-49.73
-57.17
-63.26
-66.4
-65.25
-59.13
-48.41
-34.43
-19.23
-4.85
7.12
15.95
21.66
24.76
25.91
25.66
24.52
22.97
21.58
20.92
21.43
23.19
25.93
29.08
31.99
34.13
35.17
35.01
33.73
31.5
28.59
25.22
21.56
17.63
13.38
8.73
3.74
-1.38
-6.29
-10.62
-14.1
-16.66
-18.5
-20.02
-21.74
-24.21
-27.89
-32.99
-39.35
-46.3
-52.68
-56.96
-57.69
-53.96
-45.73
-33.97
-20.35
-6.74
5.35
15.06
22.13
26.67
28.89
29.06
27.53
24.93
22.14
20.08
19.46
20.53
23.0
26.18
29.31
31.67
32.81
32.59
31.08
28.57
25.46
22.12
18.75
15.43
12.05
8.44
4.47
0.15
-4.39
-8.95
-13.26
-17.06
-20.21
-22.78
-25.12
-27.8
-31.52
-36.79
-43.66
-51.56
-59.24
-65.02
-67.22
-64.69
-57.15
-45.42
-31.13
-16.31
-2.75
8.32
16.41
21.63
24.37
25.17
24.59
23.33
22.12
21.6
22.18
23.87
26.41
29.33
32.21
34.68
36.51
37.5
37.48
36.39
34.25
31.27
27.7
23.81
19.76
15.61
11.36
6.97
2.43
-2.19
-6.76
-11.06
-14.88
-18.18
-21.12
-24.05
-27.43
-31.64
-36.92
-43.2
-50.11
-56.93
-62.56
-65.66
-64.95
-59.64
-49.83
-36.61
-21.83
-7.52
4.68
13.89
20.01
23.46
24.85
24.81
23.93
22.77
21.88
21.71
22.48
24.24
26.78
29.75
32.68
35.08
36.53
36.75
35.71
33.62
30.79
27.52
24.03
20.43
16.76
13.09
9.49
6.0
2.63
-0.68
-3.97
-7.21
-10.37
-13.42
-16.42
-19.54
-23.04
-27.18
-32.28
-38.49
-45.65
-53.08
-59.51
-63.31
-63.01
-57.87
-48.21
-35.39
-21.36
-7.99
3.39
12.11
18.14
21.79
23.51
23.8
23.21
22.31
21.61
21.47
22.07
23.45
25.47
27.87
30.29
32.34
33.62
33.89
33.06
31.21
28.56
25.32
21.72
17.92
14.04
10.17
6.4
2.83
-0.46
-3.42
-6.06
-8.48
-10.81
-13.2
-15.81
-18.79
-22.33
-26.7
-32.12
-38.49
-45.25
-51.23
-54.94
-54.98
-50.58
-41.94
-30.19
-17.05
-4.33
6.58
14.88
20.43
23.45
24.43
23.84
22.23
20.17
18.32
17.3
17.57
19.24
22.02
25.28
28.28
30.45
31.46
31.3
30.14
28.22
25.71
22.75
19.45
15.85
11.99
7.94
3.83
-0.14
-3.73
-6.8
-9.35
-11.6
-13.9
-16.51
-19.64
-23.36
-27.76
-32.97
-38.95
-45.31
-51.16
-55.1
-55.67
-51.85
-43.57
-31.8
-18.32
-5.06
6.39
15.23
21.35
25.16
27.11
27.59
26.86
25.22
23.16
21.38
20.57
21.17
23.13
25.93
28.8
31.08
32.31
32.42
31.46
29.56
26.77
23.15
18.88
14.22
9.5
5.03
0.94
-2.76
-6.18
-9.39
-12.47
-15.42
-18.19
-20.77
-23.19
-25.56
-28.18
-31.48
-35.85
-41.49
-48.11
-54.85
-60.33
-62.98
-61.53
-55.39
-44.98
-31.6
-17.11
-3.36
8.26
17.04
22.96
26.38
27.8
27.7
26.57
25.0
23.68
23.24
24.03
26.0
28.66
31.37
33.55
34.88
35.29
34.88
33.73
31.86
29.31
26.17
22.6
18.83
15.1
11.57
8.31
5.32
2.53
-0.16
-2.89
-5.74
-8.74
-11.84
-14.95
-18.05
-21.2
-24.63
-28.69
-33.69
-39.71
-46.37
-52.71
-57.3
-58.66
-55.71
-48.28
-37.21
-24.11
-10.87
0.87
10.13
16.57
20.36
21.9
21.73
20.44
18.73
17.29
16.75
17.49
19.49
22.43
25.75
28.86
31.26
32.69
33.08
32.55
31.24
29.26
26.74
23.76
20.48
