0
12.47
11.33
10.08
8.76
7.45
6.19
4.99
3.91
3.01
2.36
1.99
1.84
1.73
1.46
0.84
-0.15
-1.39
-2.67
-3.83
-4.8
-5.71
-6.73
-8.04
-9.7
-11.63
-13.67
-15.65
-17.49
-19.21
-20.93
-22.79
-24.84
-27.11
-29.46
-31.66
-33.39
-34.24
-33.85
-31.94
-28.45
-23.58
-17.76
-11.56
-5.56
-0.2
4.26
7.82
10.61
12.84
14.71
16.31
17.66
18.78
19.72
20.56
21.47
22.54
23.83
25.29
26.77
28.16
29.33
30.15
30.49
30.26
29.42
28.06
26.37
24.59
22.92
21.45
20.16
18.99
17.89
16.89
15.98
15.13
14.25
13.24
12.01
10.54
8.83
6.96
4.96
2.88
0.75
-1.32
-3.25
-4.94
-6.4
-7.7
-9.0
-10.42
-12.03
-13.83
-15.72
-17.6
-19.42
-21.26
-23.28
-25.62
-28.31
-31.1
-33.46
-34.75
-34.4
-32.22
-28.45
-23.74
-18.85
-14.36
-10.54
-7.3
-4.49
-1.98
0.12
1.63
2.42
2.6
2.46
2.36
2.55
3.09
3.86
4.77
5.78
6.98
8.44
10.11
11.81
13.29
14.29
14.68
14.5
13.84
12.83
11.61
10.29
8.95
7.69
6.5
5.34
4.13
2.87
1.66
0.65
-0.04
-0.46
-0.79
-1.27
-2.04
-3.07
-4.23
-5.41
-6.61
-8.01
-9.79
-11.98
-14.42
-16.82
-18.97
-20.82
-22.58
-24.55
-26.96
-29.89
-33.23
-36.71
-39.9
-42.28
-43.35
-42.76
-40.44
-36.67
-32.0
-27.01
-22.13
-17.57
-13.32
-9.37
-5.7
-2.42
0.39
2.74
4.66
6.26
7.62
8.82
9.89
10.89
11.85
12.78
13.59
14.2
14.55
14.67
14.64
14.61
14.62
14.64
14.56
14.25
13.67
12.83
11.83
10.74
9.6
8.42
7.19
5.87
4.42
2.8
1.01
-0.87
-2.7
-4.31
-5.61
-6.63
-7.53
-8.47
-9.56
-10.88
-12.55
-14.78
-17.85
-21.94
-26.95
-32.49
-37.88
-42.55
-46.2
-48.82
-50.61
-51.68
-51.97
-51.17
-49.0
-45.33
-40.31
-34.2
-27.29
-19.82
-12.03
-4.25
3.1
9.61
15.02
19.43
23.14
26.55
29.97
33.46
36.92
40.18
43.1
45.65
47.81
49.54
50.72
51.22
50.96
50.02
48.6
46.91
45.13
43.3
41.34
39.14
36.63
33.88
31.03
28.24
25.57
22.95
20.24
17.32
14.18
10.98
7.89
5.01
2.31
-0.4
-3.31
-6.51
-9.98
-13.54
-17.06
-20.45
-23.69
-26.7
-29.25
-30.9
-31.19
-29.77
-26.66
-22.17
-16.84
-11.26
-5.91
-1.09
3.02
6.34
8.8
10.46
11.46
11.96
12.14
12.13
12.01
11.88
11.89
12.2
12.92
14.01
15.3
16.55
17.53
18.11
18.24
17.93
17.21
16.1
14.68
13.09
11.55
10.23
9.2
8.41
7.71
7.02
6.3
5.64
5.16
4.9
4.76
4.55
3.99
2.9
1.18
-1.09
-3.72
-6.52
-9.34
-12.22
-15.32
-18.87
-23.01
-27.69
-32.65
-37.35
-41.14
-43.4
-43.63
-41.63
-37.55
-31.88
-25.36
-18.77
-12.74
-7.65
-3.53
-0.2
2.56
4.91
6.86
8.39
9.5
10.34
11.13
12.08
13.28
14.65
16.04
17.31
18.41
19.38
20.22
20.89
21.26
21.21
20.67
19.73
18.55
17.24
15.9
14.53
13.13
11.71
10.3
8.92
7.5
6.03
4.49
2.98
1.64
0.55
-0.3
-1.08
-2.02
-3.29
-4.92
-6.82
-8.83
-10.86
-12.92
-15.14
-17.64
-20.51
-23.72
-27.09
-30.29
-32.91
-34.49
-34.62
-33.04
-29.69
-24.8
-18.82
-12.37
-6.04
-0.33
4.5
8.4
11.46
13.86
15.7
17.03
17.87
18.23
18.18
17.88
17.55
17.39
17.48
17.86
18.4
18.96
19.42
19.67
19.6
19.16
18.3
17.05
15.53
13.89
12.27
10.79
9.46
8.21
6.96
5.65
4.25
2.75
1.18
-0.43
-1.96
-3.35
-4.56
-5.65
-6.8
-8.26
-10.11
-12.34
-14.75
-17.11
-19.26
-21.23
-23.21
-25.45
-28.17
-31.38
-34.86
-38.11
-40.47
-41.27
-39.99
-36.51
-31.17
-24.67
-17.82
-11.36
-5.69
-0.9
3.14
6.51
9.26
11.33
12.72
13.56
14.08
14.54
15.1
15.75
16.39
16.9
17.25
17.5
17.77
18.14
18.62
19.15
19.62
19.88
19.84
19.4
18.51
17.21
15.63
14.04
12.67
11.72
11.3
11.4
11.96
12.79
13.62
14.07
13.79
12.59
10.54
8.01
5.43
3.1
1.05
-0.98
-3.36
-6.29
-9.66
-13.1
-16.11
-18.2
-19.01
-18.36
-16.19
-12.6
-7.91
-2.59
2.78
7.62
11.49
14.1
15.35
15.35
14.42
12.95
11.48
10.42
9.98
10.19
10.87
11.81
12.79
13.65
14.25
14.49
14.28
13.64
12.74
11.78
10.94
10.27
9.65
8.87
7.78
6.27
4.38
2.22
-0.06
-2.31
-4.36
-6.09
-7.46
-8.5
-9.36
-10.25
-11.34
-12.75
-14.52
-16.57
-18.77
-20.94
-22.97
-24.83
-26.61
-28.51
-30.7
-33.22
-35.83
-38.06
-39.36
-39.26
-37.52
-34.21
-29.64
-24.29
-18.64
-13.1
-8.01
-3.65
-0.19
2.19
3.5
3.91
3.78
3.57
3.69
4.41
5.74
7.49
9.42
11.2
12.65
13.61
14.05
14.03
13.65
13.08
12.42
11.75
11.03
10.22
9.33
8.41
7.58
6.88
6.24
5.53
4.6
3.42
2.1
0.8
-0.34
-1.25
-1.98
-2.63
-3.35
-4.25
-5.4
-6.85
-8.54
-10.39
-12.29
-14.13
-15.91
-17.67
-19.54
-21.66
-24.14
-26.99
-30.21
-33.62
-36.91
-39.63
-41.25
-41.31
-39.58
-36.19
-31.54
-26.27
-20.97
-16.11
-11.85
-8.18
-4.99
-2.21
0.13
1.97
3.31
4.25
5.04
5.92
7.07
8.49
9.99
11.36
12.4
13.09
13.56
13.98
14.45
14.97
15.41
15.62
15.53
15.18
14.78
14.56
14.68
15.13
15.75
16.27
16.47
16.28
15.76
15.1
14.44
13.8
13.05
12.08
10.82
9.3
7.71
6.2
4.94
3.96
3.21
2.56
1.87
0.91
-0.53
-2.64
-5.43
-8.75
-12.18
-15.19
-17.13
-17.5
-16.01
-12.72
-7.98
-2.44
3.21
8.37
12.69
16.1
18.67
20.56
21.89
22.77
23.28
23.53
23.59
23.51
23.22
22.69
21.97
21.2
20.58
20.2
20.01
19.83
19.51
19.0
18.41
17.91
17.55
17.25
16.86
16.22
15.32
14.25
13.17
12.12
11.08
9.96
8.64
7.15
5.54
3.87
2.25
0.75
-0.59
-1.73
-2.74
-3.74
-4.89
-6.31
-8.05
-10.01
-12.05
-14.01
-15.79
-17.45
-19.09
-20.87
-22.92
-25.3
-28.0
-30.96
-34.05
-37.04
-39.64
-41.43
-41.97
-40.89
-37.98
-33.34
-27.39
-20.78
-14.25
-8.41
-3.58
0.22
3.2
5.63
7.69
9.44
10.82
11.83
12.6
13.37
14.44
15.93
17.77
19.68
21.27
22.3
22.76
22.83
22.79
22.84
22.97
23.04
22.85
22.27
21.28
19.97
18.47
16.92
15.38
13.87
12.36
10.85
9.33
7.85
6.5
5.34
4.38
3.49
2.48
1.21
-0.35
-2.07
-3.71
-5.07
-6.13
-7.01
-7.92
-9.0
-10.37
-12.07
-14.15
-16.6
-19.38
-22.3
-25.09
-27.46
-29.31
-30.72
-31.93
-33.24
-34.8
-36.58
-38.39
-39.92
-40.84
-40.82
-39.62
-37.07
-33.2
-28.24
-22.61
-16.85
-11.43
-6.73
-2.93
-0.0
2.24
4.08
5.83
7.73
9.9
12.27
14.69
16.93
18.83
20.35
21.5
22.38
23.15
23.98
24.98
26.25
27.73
29.24
30.5
31.26
31.41
30.98
30.16
29.24
28.49
28.07
28.02
28.25
28.56
28.71
28.45
27.65
26.29
24.47
22.33
20.03
17.7
15.36
13.05
10.72
8.37
5.98
3.52
0.97
-1.75
-4.71
-7.97
-11.48
-15.1
-18.65
-21.87
-24.6
-26.67
-27.89
-28.07
-27.02
-24.67
-21.17
-16.91
-12.4
-8.12
-4.42
-1.4
0.93
2.62
3.74
4.36
4.63
4.7
4.69
4.67
4.64
4.63
4.73
5.04
5.64
6.45
7.31
8.0
8.36
8.36
8.01
7.35
6.38
5.11
3.63
2.14
0.85
-0.04
-0.46
-0.51
-0.33
-0.09
0.0
-0.23
-0.89
-1.95
-3.25
-4.48
-5.37
-5.8
-5.9
-5.96
-6.28
-7.02
-8.22
-9.86
-11.92
-14.36
-17.08
-19.79
-22.08
-23.61
-24.31
-24.48
-24.69
-25.48
-27.1
-29.37
-31.74
-33.54
-34.19
-33.36
-31.0
-27.31
-22.7
-17.62
-12.57
-7.93
-3.98
-0.82
1.55
3.21
4.27
4.9
5.3
5.75
6.47
7.62
9.19
11.02
12.81
14.28
15.3
15.89
16.23
16.51
16.85
17.28
17.74
18.12
18.27
17.93
16.72
14.28
10.39
5.15
-0.98
-7.29
-13.11
-17.96
-21.71
-24.44
-26.28
-27.34
-27.71
-27.46
-26.69
-25.58
-24.32
-23.07
-21.95
-21.07
-20.46
-20.08
-19.83
-19.61
-19.39
-19.28
-19.46
-20.07
-21.09
-22.3
-23.45
-24.35
-24.98
-25.39
-25.54
-25.2
-23.98
-21.51
-17.68
-12.75
-7.27
-1.84
3.08
7.32
10.89
13.92
16.54
18.8
20.69
22.19
23.3
24.1
24.75
25.46
26.42
27.73
29.32
31.02
32.59
33.89
34.88
35.56
35.93
35.93
35.47
34.51
33.15
31.58
29.93
28.27
26.49
24.47
22.13
19.54
16.83
14.16
11.61
9.22
6.95
4.79
2.72
0.72
-1.25
-3.25
-5.29
-7.36
-9.41
-11.44
-13.51
-15.7
-18.06
-20.56
-23.01
-25.14
-26.64
-27.27
-26.86
-25.35
-22.77
-19.23
-15.01
-10.48
-6.02
-2.01
1.32
3.86
5.58
6.53
6.78
6.46
5.82
5.13
4.67
4.65
5.12
6.04
7.31
8.85
10.55
12.31
13.92
15.17
15.88
16.01
15.69
15.12
14.47
13.87
13.33
12.83
12.4
12.04
11.72
11.32
10.66
9.58
8.06
6.2
4.21
2.25
0.45
-1.21
-2.82
-4.44
-6.09
-7.75
-9.42
-11.07
-12.78
-14.6
-16.58
-18.77
-21.18
-23.82
-26.6
-29.43
-32.2
-34.75
-36.91
-38.4
-38.9
-38.07
-35.65
-31.63
-26.35
-20.37
-14.4
-9.03
-4.57
-1.09
1.62
3.77
5.58
7.2
8.75
10.3
11.92
13.63
15.43
17.29
19.14
20.91
22.51
23.87
24.93
25.7
26.18
26.35
26.15
25.44
24.07
22.04
19.52
16.85
14.43
12.55
11.22
10.22
9.22
7.94
6.32
4.43
2.47
0.58
-1.21
-2.94
-4.66
-6.4
-8.16
-9.95
-11.81
-13.73
-15.71
-17.66
-19.52
-21.27
-22.96
-24.75
-26.8
-29.18
-31.89
-34.75
-37.4
-39.4
-40.21
-39.39
-36.7
-32.31
-26.72
-20.65
-14.75
-9.42
-4.79
-0.76
2.72
5.67
8.03
9.79
11.06
12.09
13.16
14.49
16.14
18.06
20.13
22.31
24.57
26.94
29.4
31.9
34.29
36.38
37.92
38.7
38.61
37.76
36.4
34.87
33.41
32.11
30.84
29.46
27.82
25.89
23.75
21.47
19.08
16.57
13.94
11.22
8.48
5.76
3.04
0.26
-2.65
-5.67
-8.75
-11.85
-15.02
-18.38
-21.95
-25.54
-28.67
-30.71
-31.12
-29.62
-26.38
-21.89
-16.84
-11.94
-7.78
-4.79
-3.23
-3.17
-4.42
-6.61
-9.2
-11.64
-13.41
-14.13
-13.56
-11.69
-8.65
-4.76
-0.42
3.99
8.17
11.99
15.34
18.16
20.32
21.73
22.36
22.32
21.81
21.06
20.23
19.39
18.54
17.64
16.66
15.57
14.33
12.88
11.18
9.2
7.0
4.65
2.2
-0.31
-2.86
-5.43
-7.98
-10.45
-12.86
-15.3
-17.91
-20.91
-24.39
-28.31
-32.37
-36.08
-38.86
-40.17
-39.67
-37.29
-33.24
-27.96
-22.02
-16.05
-10.51
-5.71
-1.73
1.54
4.29
6.69
8.89
10.91
12.7
14.2
15.38
16.29
17.03
17.78
18.65
19.73
21.03
22.39
23.63
24.55
24.99
24.9
24.26
23.07
21.36
19.21
16.81
14.42
12.29
10.56
9.22
8.1
7.05
5.96
4.81
3.63
2.41
1.06
-0.52
-2.36
-4.33
-6.27
-8.0
-9.52
-10.97
-12.52
-14.37
-16.59
-19.15
-21.97
-24.97
-28.01
-30.95
-33.59
-35.74
-37.13
-37.57
-36.88
-35.01
-32.05
-28.25
-23.99
-19.62
-15.4
-11.42
-7.64
-3.99
-0.53
2.64
5.35
7.55
9.3
10.76
12.14
13.57
15.14
16.81
18.61
20.55
22.67
24.96
27.24
29.23
30.66
31.31
31.2
30.51
29.52
28.52
27.65
26.94
26.3
25.65
24.89
23.96
22.82
21.46
19.91
18.24
16.48
14.62
12.6
10.35
7.85
5.16
2.38
-0.51
-3.54
-6.77
-10.19
-13.71
-17.2
-20.54
-23.72
-26.69
-29.31
-31.21
-31.93
-31.08
-28.51
-24.47
-19.5
-14.22
-9.16
-4.66
-0.85
2.28
4.74
6.62
7.99
8.96
9.59
10.0
10.31
10.73
11.45
12.62
14.19
15.99
17.7
19.02
19.78
19.95
19.56
18.64
17.21
15.31
13.09
10.85
8.97
7.73
7.2
7.16
7.23
7.01
6.25
4.89
3.07
1.01
-1.06
-2.92
-4.43
-5.55
-6.37
-7.15
-8.21
-9.83
-12.14
-15.02
-18.24
-21.46
-24.5
-27.29
-29.97
-32.65
-35.36
-37.95
-40.04
-41.17
-40.86
-38.75
-34.75
-29.1
-22.34
-15.25
-8.62
-3.08
1.0
3.61
4.94
5.31
5.13
4.74
4.48
4.6
5.31
6.68
8.65
11.05
13.69
16.34
18.78
20.81
22.3
23.16
23.43
23.25
22.84
22.36
21.86
21.22
20.27
18.92
17.27
15.51
13.87
12.43
11.13
9.79
8.32
6.76
5.23
3.84
2.57
1.23
-0.45
-2.62
-5.28
-8.21
-11.08
-13.62
-15.72
-17.4
-18.89
-20.38
-22.11
-24.23
-26.82
-29.87
-33.27
-36.71
-39.71
-41.61
-41.76
-39.71
-35.4
-29.31
-22.31
-15.36
-9.23
-4.32
-0.63
2.1
4.17
5.8
7.1
8.17
9.16
10.25
11.61
13.29
15.19
17.12
18.91
20.51
21.97
23.37
24.72
25.89
26.69
26.95
26.6
25.71
24.42
22.94
21.46
20.15
19.17
18.59
18.4
18.45
18.51
18.38
17.89
17.01
15.78
14.23
12.42
10.4
8.24
6.03
3.84
1.66
-0.6
-3.08
-5.95
-9.26
-12.88
-16.52
-19.73
-21.99
-22.84
-21.99
-19.41
-15.38
-10.41
-5.1
-0.04
4.38
7.96
10.62
12.38
13.3
13.53
13.27
12.83
12.53
12.53
12.69
12.65
11.91
10.16
7.38
4.0
0.65
-2.0
-3.48
-3.63
-2.55
-0.55
1.97
4.57
6.9
8.68
9.79
10.29
10.33
10.12
9.78
9.32
8.63
7.56
6.06
4.17
2.09
-0.03
-2.12
-4.32
-6.81
-9.76
-13.23
-17.07
-21.06
-24.93
-28.41
-31.17
-32.84
-33.02
-31.43
-28.08
-23.34
-17.88
-12.46
-7.68
-3.79
-0.78
1.56
3.43
4.94
6.12
7.02
7.72
8.36
9.1
10.09
11.36
12.89
14.55
16.15
17.46
18.28
18.5
18.15
17.39
16.41
15.35
14.23
12.99
11.57
9.99
8.36
6.83
5.51
4.34
3.15
1.75
0.01
-2.02
-4.15
-6.17
-7.92
-9.45
-10.91
-12.55
-14.52
-16.89
-19.63
-22.66
-25.95
-29.47
-33.1
-36.56
-39.37
-40.95
-40.87
-38.92
-35.31
-30.53
-25.23
-20.04
-15.38
-11.44
-8.2
-5.49
-3.12
-0.98
0.95
2.58
3.82
4.63
5.09
5.4
5.81
6.52
7.61
8.99
10.52
12.01
13.33
14.44
15.32
15.94
16.29
16.26
15.8
14.88
13.64
12.26
10.98
9.98
9.31
8.87
8.46
7.88
6.97
5.75
4.35
2.93
1.6
0.35
-0.89
-2.25
-3.78
-5.52
-7.48
-9.72
-12.19
-14.75
-17.05
-18.55
-18.7
-17.15
-13.91
-9.36
-4.14
1.1
5.87
9.9
13.16
15.68
17.53
18.77
19.45
19.67
19.56
19.27
18.97
18.75
18.7
18.83
19.11
19.47
19.85
20.23
20.6
20.95
21.17
21.04
20.31
18.79
16.49
13.67
10.7
7.96
5.61
3.6
1.73
-0.2
-2.26
-4.4
-6.53
-8.59
-10.59
-12.6
-14.69
-16.85
-19.09
-21.45
-23.9
-26.38
-28.59
-30.1
-30.41
-29.23
-26.56
-22.73
-18.26
-13.64
-9.19
-5.07
-1.38
1.81
4.39
6.32
7.59
8.28
8.49
8.35
7.97
7.53
7.23
7.29
7.84
8.82
10.05
11.27
12.27
13.0
13.5
13.82
13.95
13.8
13.25
12.23
10.81
9.11
7.34
5.65
4.12
2.75
1.52
0.32
-0.97
-2.44
-4.16
-6.07
-8.08
-10.07
-11.96
-13.81
-15.75
-17.93
-20.42
-23.23
-26.28
-29.47
-32.67
-35.63
-37.99
-39.21
-38.81
-36.48
-32.34
-26.88
-20.87
-15.07
-9.98
-5.82
-2.51
0.11
2.2
3.85
5.17
6.27
7.25
8.19
9.1
9.94
10.71
11.42
12.16
12.97
13.88
14.81
15.68
16.41
16.89
17.02
16.67
15.75
14.26
12.35
10.24
8.2
6.31
4.57
2.9
1.26
-0.23
-1.43
-2.22
-2.67
-2.99
-3.44
-4.21
-5.34
-6.72
-8.24
-9.78
-11.34
-12.93
-14.57
-16.2
-17.82
-19.43
-21.13
-23.04
-25.12
-27.09
-28.42
-28.43
-26.56
-22.6
-16.79
-9.79
-2.45
4.44
10.34
15.05
18.64
21.32
23.34
24.84
25.93
26.66
27.09
27.36
27.6
27.87
28.14
28.33
28.37
28.24
28.06
27.93
27.86
27.74
27.3
26.31
24.65
22.42
19.87
17.27
14.85
12.66
10.65
8.72
6.79
4.79
2.73
0.58
-1.67
-4.05
-6.58
-9.24
-11.99
-14.74
-17.46
-20.13
-22.72
-25.1
-27.01
-28.03
-27.74
-25.85
-22.38
-17.68
-12.36
-7.06
-2.23
1.87
5.23
7.86
9.8
10.99
11.41
11.15
10.37
9.42
8.6
8.18
8.29
8.92
9.93
11.09
12.16
12.9
13.21
13.07
12.59
11.87
10.99
9.97
8.81
7.52
6.14
4.76
3.42
2.12
0.83
-0.54
-2.06
-3.73
-5.57
-7.56
-9.69
-11.94
-14.29
-16.67
-18.99
-21.17
-23.13
-24.97
-26.83
-28.93
-31.39
-34.14
-36.89
-39.13
-40.33
-40.05
-38.1
-34.56
-29.7
-23.99
-17.93
-11.96
-6.45
-1.61
2.48
5.82
8.4
10.23
11.29
11.67
11.6
11.45
11.52
12.0
12.84
13.8
14.65
15.27
15.72
16.12
16.51
16.8
16.79
16.3
15.26
13.8
12.14
10.49
8.95
7.54
6.22
4.92
3.58
2.18
0.72
-0.8
-2.36
-3.91
-5.42
-6.91
-8.44
-10.07
-11.85
-13.75
-15.76
-17.91
-20.25
-22.86
-25.77
-28.92
-32.13
-35.22
-37.93
-40.01
-41.16
-41.05
-39.47
-36.36
-31.94
-26.68
-21.14
-15.77
-10.83
-6.38
-2.42
1.02
3.82
5.91
7.32
8.32
9.26
10.46
12.03
13.86
15.73
17.42
18.86
20.07
21.11
21.94
22.49
22.65
22.45
21.97
21.4
20.87
20.37
19.87
19.27
18.58
17.89
17.29
16.84
16.48
16.04
15.37
14.34
12.96
11.33
9.61
7.89
6.19
4.41
2.42
0.06
-2.74
-5.98
-9.54
-13.21
-16.7
-19.64
-21.67
-22.45
-21.68
-19.29
-15.45
-10.57
-5.28
-0.19
4.21
7.7
10.26
12.01
13.13
13.76
14.04
14.06
13.94
13.76
13.62
13.58
13.69
13.94
14.29
14.68
15.01
15.17
15.14
14.92
14.56
14.04
13.31
12.26
10.83
9.09
7.25
5.53
4.1
2.95
1.91
0.74
-0.71
-2.47
-4.51
-6.76
-9.21
-11.89
-14.72
-17.55
-20.14
-22.29
-23.93
-25.24
-26.53
-28.12
-30.16
-32.54
-34.85
-36.61
-37.33
-36.66
-34.52
-31.04
-26.58
-21.56
-16.44
-11.56
-7.13
-3.31
-0.15
2.3
4.06
5.23
6.01
6.7
7.54
8.69
10.13
11.71
13.24
14.59
15.71
16.62
17.4
18.07
18.64
19.08
19.37
19.46
19.25
18.64
17.5
15.8
13.7
11.48
9.47
7.88
6.71
5.77
4.84
3.77
2.57
1.33
0.18
-0.92
-2.07
-3.36
-4.85
-6.48
-8.21
-10.05
-12.05
-14.31
-16.85
-19.64
-22.62
-25.77
-29.05
-32.43
-35.72
-38.56
-40.5
-41.1
-40.13
-37.6
-33.76
-29.05
-23.92
-18.79
-14.05
-9.93
-6.55
-3.89
-1.87
-0.35
0.77
1.56
2.11
2.56
3.11
3.98
5.31
7.05
8.97
10.8
12.29
13.35
13.99
14.28
14.32
14.22
14.14
14.29
14.86
15.9
17.28
18.69
19.78
20.34
20.3
19.76
18.87
17.71
16.3
14.68
12.87
10.99
9.13
7.36
5.69
4.13
2.7
1.41
0.23
-0.94
-2.29
-3.95
-6.0
-8.35
-10.74
-12.78
-14.01
-14.05
-12.64
-9.78
-5.76
-1.01
3.93
8.59
12.69
16.09
18.71
20.49
21.42
21.54
21.06
20.3
19.6
19.22
19.27
19.67
20.32
21.04
21.68
22.07
22.07
21.61
20.67
19.36
17.85
16.29
14.77
13.29
11.77
10.11
8.29
6.31
4.21
2.08
-0.01
-1.93
-3.63
-5.04
-6.25
-7.38
-8.63
-10.13
-11.95
-14.05
-16.3
-18.55
-20.72
-22.82
-24.89
-27.03
-29.3
-31.71
-34.18
-36.5
-38.31
-39.16
-38.58
-36.25
-32.17
-26.71
-20.57
-14.51
-9.2
-5.0
-1.9
0.31
1.93
3.18
4.21
5.07
5.85
6.66
7.6
8.75
10.12
11.63
13.19
14.66
15.95
17.02
17.88
18.55
19.05
19.3
19.19
18.54
17.3
15.54
13.49
11.47
9.7
8.25
6.97
5.61
3.98
2.03
-0.05
-2.03
-3.66
-4.87
-5.75
-6.49
-7.33
-8.45
-9.94
-11.78
-13.87
-16.13
-18.53
-21.04
-23.71
-26.57
-29.64
-32.86
-36.09
-39.06
-41.36
-42.5
-42.04
-39.72
-35.59
-30.01
-23.57
-16.98
-10.91
-5.77
-1.79
1.07
3.0
4.23
5.03
5.58
6.04
6.53
7.19
8.09
9.32
10.87
12.66
14.57
16.48
18.24
19.73
20.81
21.39
21.39
20.85
19.86
18.55
17.09
15.59
14.13
12.76
11.47
10.25
9.08
8.03
7.15
6.55
6.23
6.04
5.73
4.98
3.65
1.77
-0.38
-2.49
-4.35
-5.92
-7.36
-8.84
-10.47
-12.13
-13.59
-14.57
-14.87
-14.27
-12.64
-9.8
-5.7
-0.49
5.38
11.24
16.36
20.19
22.5
23.43
23.36
22.73
21.93
21.21
20.68
20.38
20.27
20.32
20.53
20.82
21.14
21.34
21.25
20.75
19.83
18.59
17.21
15.84
14.45
12.9
11.04
8.8
6.35
4.04
2.15
0.83
-0.04
-0.76
-1.64
-2.88
-4.48
-6.34
-8.32
-10.3
-12.28
-14.27
-16.36
-18.66
-21.25
-24.16
-27.31
-30.42
-33.09
-34.81
-35.13
-33.76
-30.65
-26.04
-20.38
-14.31
-8.46
-3.38
0.58
3.36
5.11
6.12
6.68
6.96
7.03
6.91
6.68
6.5
6.58
7.11
8.09
9.38
10.71
11.86
12.67
13.09
13.12
12.81
12.13
11.09
9.73
8.13
6.47
4.9
3.53
2.42
1.57
0.93
0.45
0.01
-0.49
-1.19
-2.22
-3.73
-5.74
-8.14
-10.75
-13.32
-15.67
-17.8
-19.85
-22.08
-24.7
-27.78
-31.15
-34.44
-37.06
-38.41
-37.99
-35.57
-31.27
-25.55
-19.08
-12.63
-6.82
-2.06
1.44
3.65
4.7
4.85
4.43
3.83
3.38
3.29
3.64
4.34
5.29
6.38
7.52
8.68
9.8
10.84
11.72
12.39
12.78
12.89
12.7
12.26
11.58
10.73
9.73
8.57
7.31
6.03
4.84
3.87
3.2
2.73
2.33
1.77
0.91
-0.27
-1.74
-3.41
-5.25
-7.2
-9.24
-11.32
-13.4
-15.47
-17.59
-19.73
-21.77
-23.39
-24.15
-23.66
-21.69
-18.34
-13.91
-8.81
-3.45
1.85
6.85
11.3
15.0
17.83
19.81
21.12
22.02
22.82
23.73
24.91
26.37
28.06
29.81
31.43
32.7
33.52
33.89
33.91
33.65
33.11
32.17
30.7
28.64
26.12
23.35
20.62
18.15
15.99
14.06
12.21
10.33
8.35
6.25
4.02
1.62
-0.96
-3.72
-6.62
-9.62
-12.68
-15.73
-18.62
-21.11
-22.85
-23.49
-22.77
-20.64
-17.23
-12.86
-7.95
-2.93
1.78
5.79
8.8
10.69
11.49
11.43
10.85
10.08
9.4
9.03
9.13
9.78
10.93
12.37
13.81
14.9
15.48
15.55
15.28
14.86
14.34
13.69
12.8
11.61
10.18
8.61
6.98
5.27
3.41
1.32
-0.96
-3.32
-5.6
-7.72
-9.67
-11.53
-13.39
-15.3
-17.27
-19.27
-21.28
-23.33
-25.45
-27.72
-30.11
-32.49
-34.5
-35.64
-35.38
-33.37
-29.6
-24.44
-18.56
-12.65
-7.23
-2.51
1.54
5.04
8.07
10.54
12.29
13.22
13.41
13.16
12.84
12.83
13.32
14.34
15.77
17.43
19.1
20.6
21.76
22.42
22.5
21.96
20.93
19.55
18.03
16.53
15.12
13.8
12.51
11.11
9.45
7.35
4.77
1.78
-1.33
-4.23
-6.62
-8.41
-9.78
-11.05
-12.5
-14.26
-16.3
-18.48
-20.71
-23.03
-25.52
-28.22
-31.11
-34.03
-36.8
-39.17
-40.87
-41.51
-40.72
-38.22
-34.03
-28.48
-22.21
-15.93
-10.17
-5.23
-1.12
2.31
5.2
7.68
9.84
11.72
13.39
14.89
16.24
17.48
18.65
19.82
21.0
22.21
23.36
24.41
25.27
25.9
26.24
26.24
25.89
25.22
24.3
23.22
22.07
20.91
19.76
18.63
17.53
16.48
15.42
14.28
12.92
11.3
9.49
7.69
6.11
4.84
3.75
2.55
0.87
-1.59
-4.9
-8.88
-13.13
-17.14
-20.36
-22.32
-22.71
-21.39
-18.42
-14.07
-8.75
-2.99
2.67
7.74
11.85
14.8
16.62
17.44
17.52
17.14
16.62
16.25
16.28
16.79
17.61
18.33
18.38
17.26
14.72
10.99
6.66
2.52
-0.68
-2.54
-3.1
-2.75
-1.98
-1.19
-0.5
0.15
0.89
1.74
2.53
2.95
2.73
1.77
0.21
-1.68
-3.58
-5.33
-6.91
-8.47
-10.25
-12.44
-15.18
-18.48
-22.28
-26.33
-30.3
-33.79
-36.3
-37.42
-36.83
-34.46
-30.5
-25.37
-19.65
-13.94
-8.7
-4.19
-0.47
2.53
4.88
6.67
7.92
8.67
9.04
9.17
9.23
9.33
9.49
9.69
9.91
10.2
10.65
11.29
12.05
12.7
12.99
12.76
12.04
11.03
9.99
9.09
8.35
7.69
7.03
6.38
5.86
5.57
5.53
5.58
5.49
5.1
4.4
3.53
2.65
1.74
0.64
-0.9
-3.03
-5.65
-8.47
-11.14
-13.49
-15.63
-17.8
-20.31
-23.28
-26.72
-30.47
-34.31
-37.92
-40.9
-42.74
-42.98
-41.37
-37.96
-33.13
-27.45
-21.56
-16.07
-11.43
-7.94
-5.66
-4.42
-3.85
-3.52
-3.04
-2.26
-1.2
0.04
1.36
2.72
4.06
5.37
6.65
7.9
9.21
10.64
12.21
13.81
15.23
16.26
16.73
16.64
16.05
15.09
13.92
12.72
11.59
10.63
9.84
9.13
8.36
7.45
6.41
5.35
4.41
3.66
3.06
2.49
1.79
0.9
-0.17
-1.34
-2.54
-3.75
-4.97
-6.25
-7.66
-9.28
-11.14
-13.22
-15.41
-17.49
-19.15
-20.07
-19.94
-18.57
-15.94
-12.21
-7.7
-2.76
2.23
6.97
11.19
14.69
17.31
18.96
19.71
19.72
19.33
18.89
18.71
18.95
19.6
20.53
21.57
22.57
23.48
24.28
24.99
25.57
25.89
25.76
25.0
23.56
21.53
19.15
16.66
14.24
11.91
9.65
7.46
5.42
3.64
2.14
0.82
-0.5
-2.01
-3.78
-5.71
-7.64
-9.44
-11.1
-12.69
-14.3
-15.99
-17.77
-19.65
-21.68
-23.95
-26.54
-29.45
-32.56
-35.61
-38.21
-39.88
-40.18
-38.82
-35.8
-31.45
-26.34
-21.07
-16.08
-11.55
-7.46
-3.72
-0.34
2.53
4.74
6.21
7.08
7.66
8.24
9.01
9.95
10.91
11.72
12.32
12.76
13.17
13.62
14.11
14.49
14.6
14.3
13.55
12.39
10.97
9.49
8.15
7.11
6.37
5.78
5.13
4.2
2.86
1.18
-0.69
-2.54
-4.22
-5.71
-7.02
-8.17
-9.18
-10.04
-10.79
-11.58
-12.59
-13.99
-15.87
-18.23
-20.99
-24.05
-27.33
-30.72
-34.04
-36.98
-39.15
-40.17
-39.76
-37.84
-34.54
-30.14
-25.07
-19.79
-14.77
-10.41
-6.93
-4.37
-2.63
-1.54
-0.93
-0.66
-0.57
-0.42
0.06
1.14
2.96
5.38
8.07
10.63
12.76
14.36
15.57
16.5
17.26
17.78
17.97
17.76
17.18
16.36
15.4
14.43
13.49
12.64
11.91
11.34
10.88
10.39
9.76
8.92
7.96
7.08
6.51
6.3
6.35
6.44
6.29
5.71
4.62
3.04
1.06
-1.2
-3.69
-6.39
-9.3
-12.36
-15.42
-18.14
-20.03
-20.53
-19.24
-16.07
-11.36
-5.78
-0.1
5.05
9.35
12.75
15.38
17.31
18.56
19.15
19.18
18.89
18.63
18.68
19.13
19.88
20.7
21.39
21.83
21.98
21.82
21.32
20.45
19.24
17.79
16.23
14.71
13.3
12.01
10.86
9.81
8.81
7.82
6.73
5.5
4.12
2.64
1.09
-0.51
-2.24
-4.18
-6.36
-8.73
-11.18
-13.66
-16.21
-19.0
-22.23
-26.01
-30.25
-34.59
-38.47
-41.28
-42.49
-41.75
-39.02
-34.54
-28.78
-22.38
-15.93
-9.92
-4.64
-0.19
3.45
6.35
8.6
10.27
11.49
12.39
13.15
13.92
14.79
15.82
17.0
18.31
19.65
20.92
22.0
22.75
23.09
23.04
22.64
21.99
21.18
20.27
19.29
18.24
17.11
15.88
14.52
12.96
11.17
9.11
6.87
4.58
2.39
0.42
-1.29
-2.83
-4.38
-6.09
-8.03
-10.18
-12.47
-14.8
-17.14
-19.52
-22.04
-24.81
-27.9
-31.34
-35.0
-38.58
-41.6
-43.47
-43.64
-41.77
-37.84
-32.18
-25.39
-18.15
-11.14
-4.9
0.26
4.24
7.16
9.27
10.78
11.86
12.64
13.2
13.74
14.46
15.53
17.02
18.74
20.47
21.94
23.01
23.72
24.13
24.29
24.15
23.59
22.53
21.04
19.31
17.6
16.04
14.71
13.56
12.49
11.38
10.18
8.85
7.42
5.96
4.53
3.21
1.97
0.74
-0.59
-2.09
-3.77
-5.57
-7.42
-9.26
-11.09
-12.93
-14.73
-16.49
-18.22
-19.99
-21.98
-24.29
-26.97
-29.84
-32.58
-34.78
-35.98
-35.83
-34.05
-30.54
-25.38
-18.93
-11.78
-4.65
1.78
7.1
11.14
14.07
16.13
17.61
18.7
19.57
20.4
21.38
22.66
24.31
26.24
28.2
29.97
31.38
32.43
33.2
33.81
34.27
34.49
34.33
33.62
32.23
30.11
27.31
23.93
20.21
16.43
12.87
9.73
7.05
4.74
2.63
0.56
-1.61
-3.91
-6.41
-9.11
-11.94
-14.83
-17.69
-20.63
-24.0
-28.32
-34.06
-41.43
-50.16
-59.63
-69.11
-77.92
-85.58
-91.68
-95.79
-97.44
-96.26
-92.18
-85.45
-76.61
-66.26
-54.82
-42.54
-29.59
-16.27
-3.03
9.63
21.34
31.99
41.66
50.55
58.75
66.15
72.53
77.62
81.3
83.56
84.47
84.23
82.94
80.69
77.61
73.8
69.44
64.71
59.78
54.78
49.88
45.16
40.73
36.67
33.01
29.74
26.85
24.28
21.94
19.69
17.39
14.97
12.38
9.71
7.03
4.44
1.93
-0.56
-3.11
-5.78
-8.54
-11.34
-14.18
-17.07
-20.11
-23.37
-26.89
-30.61
-34.38
-37.95
-41.0
-43.1
-43.83
-42.85
-40.05
-35.61
-30.02
-23.92
-17.94
-12.53
-7.84
-3.86
-0.55
2.12
4.09
5.33
5.96
6.23
6.49
7.05
8.02
9.37
10.88
12.35
13.65
14.77
15.78
16.78
17.78
18.7
19.37
19.67
19.5
18.92
18.06
17.09
16.12
15.19
14.19
12.99
11.46
9.53
7.21
4.6
1.83
-0.87
-3.32
-5.37
-7.0
-8.31
-9.47
-10.69
-12.15
-13.94
-16.09
-18.49
-20.98
-23.34
-25.42
-27.19
-28.78
-30.46
-32.51
-35.01
-37.82
-40.54
-42.55
-43.27
-42.21
-39.15
-34.19
-27.77
-20.56
-13.35
-6.85
-1.49
2.58
5.52
7.58
9.03
10.02
10.68
11.11
11.51
12.07
12.92
14.12
15.59
17.16
18.67
20.01
21.16
22.17
23.17
24.21
25.29
26.25
26.89
27.0
26.55
25.64
24.53
23.47
22.59
21.79
20.92
19.82
18.47
16.98
15.52
14.19
12.97
11.73
10.39
8.88
7.25
5.58
3.9
2.15
0.26
-1.88
-4.31
-7.03
-10.05
-13.33
-16.79
-20.23
-23.26
-25.45
-26.33
-25.68
-23.47
-19.95
-15.55
-10.74
-5.96
-1.6
2.07
4.89
6.86
8.05
8.6
8.7
8.51
8.18
7.87
7.73
7.82
8.12
8.5
8.82
8.98
8.95
8.8
8.59
8.34
8.02
7.59
7.03
6.37
5.64
4.82
3.91
2.9
1.91
1.1
0.61
0.42
0.34
0.08
-0.6
-1.74
-3.21
-4.76
-6.18
-7.43
-8.53
-9.59
-10.67
