0
-55.11
-61.44
-66.57
-69.67
-69.87
-66.51
-59.43
-49.16
-36.82
-23.8
-11.29
0.01
9.99
18.88
26.88
33.96
39.86
44.25
47.01
48.35
48.72
48.67
48.63
48.77
49.14
49.67
50.28
50.87
51.28
51.26
50.54
49.0
46.63
43.66
40.36
37.05
33.94
31.22
29.04
27.52
26.69
26.37
26.2
25.63
24.18
21.55
17.61
12.45
6.24
-0.77
-8.15
-15.18
-20.87
-24.12
-24.09
-20.51
-13.87
-5.28
3.83
12.16
18.89
23.72
26.78
28.35
28.66
27.85
26.02
23.39
20.34
17.4
15.08
13.72
13.41
13.96
15.03
16.22
17.21
17.82
17.96
17.6
16.71
15.28
13.3
10.81
7.91
4.74
1.42
-1.96
-5.28
-8.46
-11.41
-14.08
-16.5
-18.8
-21.23
-24.14
-27.86
-32.68
-38.7
-45.74
-53.23
-60.14
-65.2
-67.14
-65.15
-59.19
-50.01
-38.96
-27.62
-17.24
-8.6
-1.9
3.01
6.36
8.31
8.96
8.41
6.97
5.12
3.5
2.59
2.61
3.42
4.59
5.63
6.15
5.98
5.15
3.79
1.96
-0.33
-3.14
-6.47
-10.24
-14.2
-18.09
-21.66
-24.78
-27.48
-29.9
-32.22
-34.6
-37.09
-39.69
-42.34
-44.96
-47.55
-50.17
-53.05
-56.46
-60.57
-65.16
-69.56
-72.63
-73.12
-70.13
-63.42
-53.55
-41.7
-29.28
-17.44
-6.93
2.04
9.61
16.03
21.54
26.25
30.2
33.36
35.83
37.74
39.31
40.78
42.27
43.81
45.26
46.37
46.88
46.64
45.63
44.04
42.19
40.38
38.78
37.35
35.89
34.18
32.13
29.8
27.35
24.97
22.75
20.77
19.04
17.6
16.39
15.24
13.83
11.74
8.68
4.74
0.5
-3.12
-5.05
-4.43
-0.94
5.2
13.21
22.09
30.88
38.83
45.54
50.86
54.77
57.3
58.51
58.56
57.71
56.4
55.05
53.97
53.24
52.74
52.21
51.36
49.99
48.06
45.61
42.78
39.67
36.36
32.84
29.1
25.09
20.78
16.15
11.26
6.19
1.09
-3.86
-8.52
-12.85
-16.94
-21.09
-25.64
-30.96
-37.16
-44.06
-51.06
-57.28
-61.74
-63.56
-62.25
-57.86
-50.94
-42.42
-33.33
-24.56
-16.68
-9.95
-4.42
-0.04
3.24
5.45
6.72
7.3
7.55
7.8
8.25
8.87
9.44
9.64
9.2
8.03
6.22
3.99
1.64
-0.62
-2.73
-4.75
-6.86
-9.27
-12.15
-15.6
-19.61
-24.08
-28.8
-33.52
-37.98
-42.07
-45.85
-49.64
-53.87
-58.92
-65.0
-71.95
-79.25
-86.01
-91.2
-93.88
-93.37
-89.54
-82.83
-74.23
-64.93
-55.98
-47.96
-40.99
-34.83
-29.18
-24.01
-19.48
-15.8
-13.05
-11.01
-9.3
-7.52
-5.47
-3.1
-0.53
2.14
4.88
7.62
10.25
12.55
14.24
15.12
15.2
14.6
13.55
12.23
10.71
9.03
7.22
5.39
3.69
2.24
1.01
-0.17
-1.52
-3.24
-5.52
-8.47
-12.12
-16.44
-21.11
-25.5
-28.71
-29.69
-27.69
-22.5
-14.54
-4.78
5.68
15.87
25.19
33.38
40.4
46.26
50.98
54.61
57.23
59.06
60.32
61.25
62.03
62.74
63.35
63.78
63.9
63.53
62.56
60.94
58.74
56.13
53.29
50.32
47.11
43.53
39.5
35.14
30.74
26.63
22.93
19.44
15.7
11.19
5.59
-1.15
-8.75
-16.69
-24.32
-30.86
-35.48
-37.43
-36.22
-31.94
-25.19
-17.0
-8.45
-0.38
6.81
13.04
18.42
22.94
26.45
28.68
29.47
28.95
27.54
25.86
24.48
23.68
23.41
23.31
22.97
22.11
20.68
18.77
16.53
14.03
11.19
7.89
4.1
-0.14
-4.61
-9.1
-13.39
-17.31
-20.79
-23.84
-26.61
-29.37
-32.48
-36.3
-41.06
-46.82
-53.36
-60.21
-66.64
-71.74
-74.53
-74.24
-70.49
-63.53
-54.22
-43.77
-33.37
-23.84
-15.51
-8.33
-2.13
3.16
7.4
10.4
12.08
12.59
12.31
11.73
11.22
11.0
11.09
11.36
11.63
11.72
11.51
10.92
9.9
8.38
6.37
3.9
1.13
-1.66
-4.2
-6.27
-7.85
-9.09
-10.29
-11.72
-13.56
-15.83
-18.38
-20.94
-23.26
-25.23
-26.97
-28.88
-31.45
-34.94
-39.07
-42.93
-45.18
-44.61
-40.54
-33.12
-23.18
-11.86
-0.2
11.11
21.73
31.5
40.31
48.02
54.5
59.65
63.49
66.15
67.91
69.11
70.16
71.34
72.74
74.21
75.44
76.09
75.97
75.05
73.49
71.47
69.15
66.58
63.75
60.62
57.17
53.44
49.48
45.35
41.08
36.66
32.08
27.41
22.75
18.21
13.8
9.39
4.72
-0.41
-6.09
-12.04
-17.73
-22.41
-25.37
-26.07
-24.25
-20.07
-13.99
-6.77
0.74
7.68
13.48
17.88
20.91
22.72
23.45
23.22
22.15
20.49
18.7
17.23
16.45
16.42
16.86
17.32
17.34
16.68
15.29
13.32
10.95
8.29
5.41
2.35
-0.79
-3.84
-6.56
-8.81
-10.53
-11.97
-13.51
-15.59
-18.5
-22.28
-26.64
-31.14
-35.32
-38.9
-41.87
-44.44
-46.95
-49.78
-53.23
-57.44
-62.27
-67.35
-72.02
-75.41
-76.69
-75.27
-71.06
-64.48
-56.45
-48.04
-40.22
-33.53
-28.03
-23.47
-19.57
-16.23
-13.64
-12.09
-11.77
-12.54
-13.94
-15.41
-16.58
-17.34
-17.88
-18.44
-19.13
-19.87
-20.5
-20.91
-21.15
-21.32
-21.51
-21.67
-21.62
-21.14
-20.14
-18.65
-16.84
-14.86
-12.86
-10.89
-9.03
-7.37
-6.04
-5.18
-4.82
-4.87
-5.09
-5.25
-5.2
-5.01
-4.97
-5.42
-6.66
-8.8
-11.76
-15.19
-18.59
-21.29
-22.51
-21.56
-18.01
-11.98
-4.01
4.98
14.08
22.68
30.55
37.72
44.21
49.89
54.5
57.92
60.23
61.76
62.97
64.14
65.3
66.33
67.03
67.34
67.33
67.09
66.65
65.89
64.65
62.78
60.3
57.35
54.15
50.88
47.64
44.46
41.33
38.21
35.06
31.81
28.41
24.78
20.89
16.77
12.48
8.08
3.53
-1.28
-6.55
-12.39
-18.77
-25.33
-31.43
-36.29
-39.19
-39.7
-37.83
-34.03
-29.0
-23.54
-18.28
-13.61
-9.65
-6.34
-3.6
-1.43
0.1
0.9
1.0
0.6
0.07
-0.17
0.12
0.91
1.87
2.6
2.78
2.43
1.77
1.13
0.7
0.38
-0.16
-1.35
-3.43
-6.32
-9.64
-12.89
-15.59
-17.54
-18.85
-19.9
-21.12
-22.85
-25.23
-28.19
-31.55
-35.11
-38.72
-42.31
-45.88
-49.43
-53.02
-56.74
-60.73
-65.16
-70.06
-75.26
-80.19
-83.99
-85.72
-84.67
-80.69
-74.26
-66.33
-57.93
-49.81
-42.32
-35.5
-29.36
-24.1
-20.01
-17.34
-16.0
-15.51
-15.19
-14.42
-12.9
-10.67
-8.01
-5.17
-2.37
0.28
2.71
4.81
6.48
7.73
8.63
9.33
9.98
10.61
11.15
11.48
11.49
11.17
10.61
10.03
9.6
9.42
9.44
9.45
9.26
8.77
8.02
7.18
6.29
5.27
3.83
1.7
-1.22
-4.81
-8.84
-13.03
-17.13
-20.8
-23.48
-24.34
-22.57
-17.68
-9.86
0.06
10.88
21.55
31.46
40.47
48.72
56.23
62.81
68.12
71.83
73.89
74.55
74.3
73.64
73.0
72.61
72.48
72.47
72.41
72.09
71.28
69.84
67.63
64.65
61.0
56.87
52.55
48.25
44.08
39.99
35.82
31.35
26.46
21.05
15.17
8.94
2.58
-3.63
-9.45
-14.81
-19.85
-24.91
-30.46
-36.8
-43.97
-51.59
-58.93
-64.98
-68.65
-69.05
-65.71
-58.81
-49.15
-38.02
-26.76
-16.47
-7.73
-0.69
4.76
8.79
11.47
12.87
13.2
12.8
12.15
11.69
11.67
12.11
12.89
13.83
14.77
15.59
16.16
16.35
16.08
15.27
13.93
12.12
9.89
7.23
4.19
0.81
-2.84
-6.6
-10.36
-14.05
-17.7
-21.4
-25.22
-29.12
-32.98
-36.69
-40.23
-43.8
-47.77
-52.52
-58.31
-65.1
-72.53
-80.01
-86.67
-91.6
-93.87
-92.76
-87.98
-79.8
-69.1
-57.05
-44.88
-33.49
-23.38
-14.65
-7.26
-1.15
3.77
7.63
10.68
13.26
15.68
18.15
20.69
23.2
25.58
27.75
29.7
31.47
33.03
34.33
35.23
35.59
35.26
34.19
32.42
30.1
27.51
24.95
22.67
20.78
19.28
18.0
16.72
15.24
13.43
11.33
9.15
7.1
5.29
3.63
1.73
-0.88
-4.58
-9.35
-14.69
-19.67
-23.14
-24.03
-21.65
-15.85
-7.04
3.85
15.66
27.21
37.56
46.14
52.82
57.66
60.85
62.59
63.07
62.58
61.57
60.54
59.92
59.9
60.34
60.82
60.88
60.12
58.36
55.69
52.36
48.68
44.97
41.44
38.13
34.9
31.47
27.52
22.87
17.57
11.9
6.26
1.01
-3.74
-8.13
-12.51
-17.32
-22.88
-29.34
-36.54
-43.98
-50.86
-56.16
-58.88
-58.27
-54.11
-46.83
-37.47
-27.37
-17.78
-9.58
-3.07
1.88
5.57
8.2
9.79
10.28
9.79
8.7
7.64
7.19
7.64
8.86
10.45
11.95
13.09
13.84
14.3
14.53
14.47
13.99
13.0
11.54
9.74
7.69
5.43
2.84
-0.19
-3.72
-7.67
-11.84
-16.01
-20.06
-23.99
-27.92
-31.96
-36.24
-40.95
-46.25
-52.37
-59.34
-66.83
-74.03
-79.74
-82.68
-82.02
-77.68
-70.36
-61.32
-51.81
-42.77
-34.6
-27.32
-20.77
-14.89
-9.71
-5.29
-1.68
1.22
3.55
5.5
7.22
8.8
10.24
11.51
12.63
13.61
14.61
15.78
17.2
18.74
20.01
20.56
20.07
18.59
16.56
14.62
13.26
12.61
12.41
12.17
11.5
10.31
8.75
7.03
5.28
3.45
1.38
-1.07
-3.98
-7.36
-11.25
-15.7
-20.63
-25.69
-30.1
-32.85
-32.94
-29.77
-23.39
-14.53
-4.28
6.21
16.06
24.78
32.2
38.34
43.29
47.14
49.96
51.83
52.9
53.4
53.65
54.03
54.81
56.1
57.69
59.2
60.18
60.36
59.76
58.58
57.06
55.28
53.09
50.26
46.65
42.38
37.78
33.31
29.27
25.73
22.51
19.35
16.0
12.28
8.04
3.16
-2.51
-9.01
-16.14
-23.37
-29.8
-34.44
-36.49
-35.6
-32.0
-26.39
-19.67
-12.67
-5.98
0.05
5.24
9.47
12.63
14.65
15.52
15.37
14.47
13.15
11.7
10.35
9.17
8.12
7.08
5.92
4.55
2.92
1.04
-1.04
-3.3
-5.75
-8.38
-11.13
-13.81
-16.19
-18.05
-19.34
-20.27
-21.27
-22.85
-25.34
-28.8
-32.9
-37.16
-41.1
-44.5
-47.4
-50.14
-53.16
-56.86
-61.39
-66.52
-71.56
-75.48
-77.15
-75.75
-71.08
-63.69
-54.75
-45.54
-37.1
-29.97
-24.17
-19.48
-15.67
-12.62
-10.36
-8.83
-7.87
-7.19
-6.52
-5.69
-4.74
-3.78
-2.95
-2.25
-1.58
-0.84
0.02
0.93
1.73
2.27
2.45
2.27
1.76
1.04
0.21
-0.57
-1.19
-1.62
-1.93
-2.36
-3.07
-4.16
-5.52
-6.89
-8.03
-8.87
-9.59
-10.55
-12.18
-14.84
-18.68
-23.51
-28.77
-33.52
-36.62
-37.0
-33.97
-27.55
-18.42
-7.75
3.24
13.59
22.8
30.83
37.85
44.07
49.6
54.46
58.58
61.88
64.33
66.0
67.08
67.82
68.45
69.12
69.85
70.5
70.9
70.86
70.24
68.97
67.02
64.38
61.06
57.1
52.66
47.98
43.39
39.15
35.36
31.91
28.51
24.77
20.38
15.26
9.49
3.21
-3.48
-10.59
-18.04
-25.56
-32.46
-37.8
-40.65
-40.5
-37.4
-31.99
-25.25
-18.15
-11.43
-5.5
-0.48
3.61
6.8
9.1
10.55
11.25
11.35
11.07
10.67
10.34
10.21
10.31
10.61
10.97
11.33
11.66
11.95
12.17
12.18
11.7
10.46
8.26
5.16
1.52
-2.12
-5.28
-7.65
-9.32
-10.59
-11.9
-13.59
-15.82
-18.57
-21.67
-24.94
-28.22
-31.44
-34.67
-38.12
-42.12
-47.01
-52.98
-59.88
-67.07
-73.5
-78.03
-79.69
-78.06
-73.37
-66.4
-58.19
-49.74
-41.76
-34.64
-28.48
-23.29
-19.02
-15.68
-13.29
-11.79
-10.99
-10.53
-9.98
-8.96
-7.32
-5.16
-2.75
-0.4
1.77
3.76
5.67
7.52
9.2
10.48
11.16
11.18
10.6
9.59
8.35
7.12
6.1
5.52
5.44
5.75
6.11
6.11
5.42
4.0
2.1
0.15
-1.51
-2.76
-3.77
-4.86
-6.38
-8.57
-11.48
-14.96
-18.58
-21.67
-23.37
-22.8
-19.33
-12.85
-3.84
6.73
17.69
28.08
37.28
45.05
51.37
56.32
59.97
62.42
63.87
64.58
64.79
64.65
64.17
63.36
62.3
61.18
60.28
59.76
59.61
59.54
59.18
58.19
56.35
53.63
50.06
45.8
41.09
36.3
31.75
27.68
24.08
20.64
16.96
12.7
7.81
2.51
-2.84
-7.94
-12.73
-17.36
-22.12
-27.16
-32.47
-37.71
-42.37
-45.78
-47.3
-46.42
-42.96
-37.16
-29.65
-21.36
-13.23
-5.97
0.07
4.82
8.39
10.84
12.22
12.56
12.02
10.97
9.88
9.21
9.2
9.79
10.67
11.46
11.89
11.9
11.58
11.05
10.36
9.37
7.92
5.89
3.38
0.7
-1.77
-3.71
-5.1
-6.2
-7.4
-9.14
-11.66
-15.02
-19.04
-23.4
-27.68
-31.51
-34.68
-37.23
-39.52
-42.03
-45.29
-49.64
-55.11
-61.4
-67.9
-73.81
-78.2
-80.24
-79.35
-75.39
-68.82
-60.58
-51.76
-43.37
-35.96
-29.66
-24.29
-19.64
-15.59
-12.17
-9.42
-7.31
-5.67
-4.26
-2.87
-1.42
0.05
1.45
2.69
3.68
4.39
4.8
4.96
5.02
5.15
5.52
6.17
6.95
7.59
7.82
7.48
6.61
5.43
4.15
2.93
1.84
0.88
0.02
-0.75
-1.55
-2.52
-3.83
-5.55
-7.58
-9.69
-11.63
-13.3
-14.81
-16.48
-18.62
-21.37
-24.53
-27.55
-29.61
-29.88
-27.69
-22.81
-15.5
-6.46
3.32
12.87
21.53
29.03
35.5
41.21
46.37
50.95
54.79
57.7
59.71
61.1
62.25
63.5
64.94
66.42
67.61
68.25
68.23
67.64
66.65
65.34
63.65
61.41
58.48
54.87
50.87
46.87
43.2
39.92
36.71
33.09
28.54
22.9
16.36
9.43
2.62
-3.67
-9.28
-14.24
-18.74
-22.98
-27.23
-31.79
-36.95
-42.76
-48.94
-54.73
-59.12
-61.09
-60.0
-55.79
-49.06
-40.82
-32.15
-23.92
-16.59
-10.22
-4.65
0.22
4.36
7.59
9.77
10.97
11.51
11.86
12.43
13.41
14.68
15.96
16.96
17.51
17.65
17.44
16.97
16.31
15.52
14.66
13.76
12.8
11.63
10.08
8.03
5.55
2.88
0.33
-1.91
-3.87
-5.82
-8.12
-11.01
-14.54
-18.6
-22.92
-27.33
-31.71
-36.05
-40.44
-45.0
-49.87
-55.29
-61.37
-68.1
-75.2
-81.99
-87.54
-90.83
-91.06
-87.84
-81.36
-72.28
-61.63
-50.54
-39.93
-30.43
-22.27
-15.37
-9.51
-4.46
-0.09
3.63
6.74
9.26
11.33
13.1
14.72
16.28
17.83
19.4
20.99
22.61
24.22
25.75
27.06
27.99
28.41
28.25
27.52
26.36
24.94
23.44
22.06
20.96
20.2
19.78
19.54
19.19
18.43
16.99
14.86
12.21
9.43
6.89
4.9
3.55
2.69
2.0
1.01
-0.76
-3.72
-8.04
-13.51
-19.47
-24.85
-28.48
-29.29
-26.7
-20.72
-11.92
-1.3
9.99
20.9
30.7
39.01
45.75
50.97
54.78
57.26
58.5
58.69
58.11
57.12
56.09
55.31
54.86
54.66
54.5
54.23
53.76
53.12
52.34
51.38
49.99
47.88
44.84
40.87
36.3
31.62
27.24
23.27
19.49
15.56
11.2
6.41
1.42
-3.54
-8.32
-13.01
-17.76
-22.72
-27.93
-33.37
-39.1
-45.24
-51.8
-58.5
-64.65
-69.17
-71.02
-69.51
-64.68
-57.26
-48.39
-39.19
-30.47
-22.56
-15.49
-9.21
-3.69
0.99
4.75
7.61
9.7
11.22
12.4
13.46
14.53
15.68
16.85
17.94
18.81
19.37
19.63
19.7
19.62
19.39
18.83
17.71
15.92
13.49
10.66
7.7
4.85
2.18
-0.28
-2.57
-4.76
-6.99
-9.53
-12.69
-16.67
-21.37
-26.44
-31.33
-35.68
-39.43
-42.92
-46.69
-51.27
-57.03
-64.0
-71.89
-80.03
-87.36
-92.57
-94.39
-92.01
-85.44
-75.6
-64.01
-52.3
-41.71
-32.83
-25.66
-19.85
-14.95
-10.6
-6.56
-2.72
0.94
4.34
7.37
9.99
12.17
14.05
15.82
17.67
19.74
22.07
24.6
27.13
29.42
31.14
31.99
31.81
30.64
28.79
26.69
24.83
23.53
22.86
22.68
22.67
22.53
21.98
20.86
19.1
16.72
13.87
10.81
7.82
5.19
2.97
1.03
-0.98
-3.46
-6.69
-10.82
-15.77
-21.32
-27.07
-32.42
-36.56
-38.52
-37.46
-32.97
-25.3
-15.34
-4.31
6.6
16.66
25.6
33.55
40.68
46.97
52.17
55.92
57.97
58.41
57.66
56.42
55.41
55.12
55.63
56.63
57.59
58.05
57.79
56.86
55.52
53.99
52.28
50.2
47.51
44.13
40.23
36.25
32.64
29.62
27.03
24.38
21.11
16.83
11.58
5.76
-0.05
-5.37
-10.05
-14.33
-18.72
-23.77
-29.87
-37.1
-45.08
-53.02
-59.79
-64.26
-65.53
-63.24
-57.59
-49.35
-39.55
-29.25
-19.29
-10.28
-2.52
3.87
8.92
12.79
15.64
17.66
19.04
19.98
20.68
21.37
22.16
23.02
23.77
24.14
23.95
23.15
21.87
20.36
18.76
17.08
15.16
12.83
9.99
6.76
3.39
0.19
-2.66
-5.14
-7.4
-9.72
-12.36
-15.5
-19.21
-23.42
-27.94
-32.5
-36.9
-41.1
-45.25
-49.65
-54.71
-60.71
-67.76
-75.65
-83.89
-91.63
-97.78
-101.19
-100.91
-96.65
-88.8
-78.49
-67.19
-56.27
-46.66
-38.66
-32.11
-26.62
-21.87
-17.71
-14.2
-11.46
-9.56
-8.39
-7.64
-6.97
-6.09
-4.9
-3.55
-2.35
-1.59
-1.4
-1.77
-2.61
-3.85
-5.55
-7.9
-11.05
-14.98
-19.41
-23.83
-27.61
-30.17
-31.16
-30.48
-28.21
-24.5
-19.47
-13.15
-5.61
3.03
12.47
22.31
32.05
41.14
49.02
55.07
58.66
59.34
57.01
52.16
45.81
39.42
34.48
32.17
33.07
37.09
43.55
51.46
59.73
67.39
73.77
78.54
81.72
83.57
84.41
84.53
84.1
83.19
81.86
80.23
78.52
76.91
75.5
74.18
72.69
70.75
68.21
65.07
61.47
57.54
53.27
48.56
43.27
37.41
31.17
24.89
18.93
13.49
8.61
4.14
-0.15
-4.49
-8.97
-13.58
-18.25
-22.84
-27.31
-31.71
-36.28
-41.39
-47.33
-54.1
-61.16
-67.47
-71.73
-72.84
-70.26
-64.21
-55.56
-45.49
-35.11
-25.25
-16.36
-8.65
-2.11
3.29
7.57
10.76
12.89
14.08
14.59
14.78
15.06
15.73
16.85
18.22
19.51
20.4
20.8
20.81
20.65
20.47
20.23
19.68
18.58
16.76
14.34
11.57
8.8
6.29
4.07
1.99
-0.24
-2.88
-6.04
-9.63
-13.44
-17.16
-20.61
-23.76
-26.77
-29.89
-33.41
-37.55
-42.47
-48.28
-54.98
-62.44
-70.18
-77.33
-82.68
-85.0
-83.45
-77.95
-69.26
-58.73
-47.81
-37.61
-28.63
-20.84
-14.03
-8.05
-3.01
0.84
3.33
4.56
4.92
4.98
5.29
6.15
7.6
9.43
11.35
13.06
14.43
15.46
16.25
17.0
17.78
18.57
19.18
19.42
19.1
18.25
17.03
15.71
14.52
13.49
12.57
11.55
10.28
8.68
6.81
4.76
2.66
0.66
-1.19
-2.9
-4.61
-6.63
-9.3
-12.99
-17.78
-23.44
-29.22
-34.05
-36.72
-36.23
-32.11
-24.57
-14.5
-3.18
8.1
18.4
27.27
34.75
41.1
46.51
50.97
54.3
56.44
57.46
57.78
57.9
58.23
58.9
59.77
60.59
61.14
61.42
61.48
61.37
60.99
60.03
58.19
55.31
51.45
46.96
42.27
37.77
33.6
29.69
25.78
21.6
16.99
11.95
6.62
1.23
-4.03
-9.01
-13.79
-18.63
-23.9
-29.96
-36.95
-44.58
-52.12
-58.47
-62.54
-63.55
-61.29
-56.09
-48.75
-40.23
-31.44
-23.11
-15.69
-9.36
-4.14
0.04
3.28
5.62
7.08
7.72
7.74
7.47
7.34
7.67
8.56
9.92
11.42
12.8
13.89
14.67
15.21
15.55
15.67
15.42
14.65
13.24
11.23
8.81
6.27
3.87
1.73
-0.3
-2.51
-5.24
-8.71
-12.88
-17.5
-22.23
-26.78
-31.08
-35.23
-39.43
-43.9
-48.82
-54.31
-60.4
-66.92
-73.38
-78.99
-82.79
-83.91
-81.9
-76.9
-69.63
-61.13
-52.37
-44.04
-36.38
-29.38
-22.94
-17.09
-11.95
-7.66
-4.23
-1.49
0.84
3.04
5.27
7.54
9.76
11.87
13.95
16.16
18.66
21.43
24.18
26.44
27.67
27.49
25.84
22.97
19.42
15.79
12.54
9.97
8.14
6.93
6.1
5.4
4.6
3.47
1.91
-0.1
-2.38
-4.69
-6.73
-8.38
-9.76
-11.24
-13.35
-16.54
-20.96
-26.31
-31.84
-36.44
-38.96
-38.44
-34.42
-27.07
-17.17
-5.91
5.42
15.8
24.64
31.9
37.84
42.83
47.19
51.02
54.33
57.06
59.26
61.05
62.57
63.9
65.04
65.89
66.31
66.21
65.57
64.45
62.9
60.89
58.34
55.11
51.13
46.52
41.57
36.73
32.39
28.76
25.77
23.08
20.19
16.63
12.2
6.95
1.25
-4.47
-9.9
-15.0
-19.99
-25.27
-31.14
-37.65
-44.52
-51.2
-56.95
-61.02
-62.72
-61.66
-57.76
-51.38
-43.19
-34.07
-24.8
-15.92
-7.67
-0.11
6.68
12.48
16.97
19.88
21.18
21.21
20.58
19.97
19.85
20.31
21.12
21.88
22.26
22.12
21.51
20.56
19.41
18.08
16.55
14.8
12.82
10.6
8.13
5.39
2.42
-0.64
-3.65
-6.49
-9.2
-11.95
-14.97
-18.43
-22.36
-26.64
-31.1
-35.6
-40.08
-44.59
-49.21
-54.12
-59.53
-65.68
-72.65
-80.17
-87.46
-93.36
-96.61
-96.31
-92.23
-84.92
-75.39
-64.76
-53.92
-43.45
-33.63
-24.69
-16.83
-10.25
-4.97
-0.79
2.67
5.78
8.81
11.86
14.92
17.94
20.92
23.74
26.31
28.44
30.05
31.18
31.99
32.66
33.17
33.32
32.74
31.18
28.65
25.52
22.35
19.71
17.86
16.69
15.8
14.7
13.06
10.82
8.14
5.31
2.59
0.11
-2.14
-4.23
-6.33
-8.62
-11.34
-14.79
-19.14
-24.35
-29.9
-34.89
-38.12
-38.54
-35.54
-29.2
-20.2
-9.61
1.49
12.29
22.33
31.45
39.54
46.47
52.0
55.94
58.33
59.52
60.1
60.63
61.46
62.56
63.59
64.14
63.98
63.14
61.83
60.29
58.59
56.6
54.13
51.04
47.36
43.25
38.89
34.48
30.14
26.01
22.13
18.48
14.89
11.1
6.9
2.2
-2.85
-7.92
-12.72
-17.1
-21.17
-25.27
-29.78
-35.04
-41.14
-47.91
-54.85
-61.17
-65.89
-68.03
-66.93
-62.44
-55.01
-45.49
-34.9
-24.11
-13.67
-3.93
4.9
12.52
18.57
22.77
25.06
25.76
25.51
25.08
25.03
25.57
26.48
27.24
27.35
26.6
25.09
23.23
21.43
19.94
18.7
17.39
15.66
13.24
10.08
6.33
2.32
-1.59
-5.12
-8.09
-10.56
-12.8
-15.13
-17.91
-21.34
-25.43
-30.04
-34.95
-39.96
-44.86
-49.53
-53.97
-58.34
-62.91
-67.94
-73.47
-79.12
-84.1
-87.38
-88.06
-85.58
-79.94
-71.69
-61.67
-50.89
-40.19
-30.22
-21.3
-13.5
-6.78
-1.06
3.68
7.45
10.34
12.56
14.46
16.36
18.44
20.63
22.65
24.24
25.3
25.95
26.5
27.16
27.95
28.61
28.72
27.96
26.27
23.94
21.46
19.35
17.92
17.17
16.86
16.58
16.02
14.98
13.45
11.54
9.37
7.13
4.96
2.97
1.21
-0.36
-1.97
-3.89
-6.44
-9.7
-13.41
-16.92
-19.3
-19.61
-17.16
-11.78
-3.88
5.61
15.57
24.98
33.19
39.99
45.54
50.13
53.97
57.07
59.35
60.71
61.24
61.13
60.66
60.04
59.39
58.69
57.93
57.07
56.13
55.12
53.91
52.34
50.21
47.39
43.84
39.68
35.08
30.22
25.27
20.35
15.54
10.83
6.11
1.23
-3.93
-9.39
-15.05
-20.74
-26.31
-31.74
-37.15
-42.79
-48.87
-55.34
-61.84
-67.74
-72.21
-74.46
-73.92
-70.43
-64.24
-56.05
-46.72
-37.11
-27.85
-19.26
-11.47
-4.51
1.51
6.36
9.82
11.85
12.66
12.7
12.47
12.35
12.53
12.99
13.61
14.28
14.85
15.16
14.99
14.13
12.45
9.99
6.94
3.57
0.16
-3.13
-6.22
-9.06
-11.68
-14.13
-16.59
-19.28
-22.45
-26.19
-30.42
-34.86
-39.16
-43.03
-46.36
-49.28
-52.09
-55.17
-58.94
-63.64
-69.28
-75.47
-81.44
-86.07
-88.21
-86.94
-81.92
-73.49
-62.55
-50.37
-38.16
-26.77
-16.6
-7.64
0.34
7.5
13.86
19.28
23.62
26.86
29.2
30.97
32.49
33.94
35.35
36.66
37.81
38.86
39.87
40.9
41.9
42.64
42.84
42.23
40.7
38.35
35.45
32.38
29.49
26.95
24.71
22.55
20.23
17.62
14.74
11.75
8.85
6.16
3.68
1.33
-1.05
-3.65
-6.67
-10.3
-14.64
-19.51
-24.34
-28.22
-30.03
-28.84
-24.23
-16.51
-6.59
4.36
15.24
25.38
34.47
42.41
49.07
54.21
57.57
59.09
59.01
57.81
56.11
54.4
52.98
51.97
51.38
51.16
51.12
51.0
50.39
48.97
46.62
43.48
39.9
36.21
32.59
29.06
25.5
21.81
17.93
13.75
9.12
3.93
-1.82
-7.82
-13.54
-18.47
-22.4
-25.6
-28.71
-32.44
-37.24
-43.14
-49.73
-56.27
-61.88
-65.65
-66.77
-64.74
-59.54
-51.69
-42.16
-32.07
-22.35
-13.63
-6.14
0.08
5.06
8.82
11.46
13.18
14.31
15.18
16.05
17.01
18.03
18.94
19.64
19.96
19.86
19.29
18.35
17.2
16.02
14.88
13.67
12.16
10.01
7.0
3.14
-1.25
-5.71
-9.75
-13.11
-15.83
-18.23
-20.78
-23.9
-27.75
-32.21
-36.91
-41.44
-45.51
-49.11
-52.41
-55.71
-59.29
-63.36
-68.01
-73.19
-78.54
-83.34
-86.57
-87.13
-84.27
-77.85
-68.47
-57.22
-45.3
-33.66
-22.89
-13.25
-4.81
2.38
8.34
13.13
16.94
19.96
22.37
24.24
25.69
26.85
27.93
29.07
30.32
31.58
32.68
33.5
34.01
34.27
34.31
34.06
33.4
32.2
30.45
28.32
26.09
24.0
22.11
20.3
18.38
16.23
13.86
11.47
9.32
7.57
6.22
5.12
4.02
2.68
0.89
-1.54
-4.76
-8.82
-13.62
-18.69
-23.29
-26.42
-27.12
-24.7
-18.99
-10.38
0.13
11.3
21.93
31.18
38.76
44.86
49.84
54.0
57.33
59.67
60.84
60.87
60.02
58.67
57.13
55.51
53.8
51.99
50.15
48.5
47.18
46.15
45.14
43.69
41.32
37.76
33.08
27.61
21.9
16.49
11.75
7.75
4.35
1.19
-2.08
-5.74
-9.94
-14.66
-19.76
-25.0
-30.16
-35.09
-39.82
-44.62
-49.81
-55.56
-61.65
-67.33
-71.47
-72.95
-71.04
-65.66
-57.47
-47.54
-36.99
-26.73
-17.29
-8.86
-1.49
4.81
9.94
13.76
16.21
17.37
17.54
17.25
17.05
17.36
18.22
19.39
20.42
20.95
20.85
20.26
19.45
18.58
17.55
16.07
13.88
10.88
7.25
3.34
-0.47
-3.99
-7.21
-10.25
-13.3
-16.53
-20.05
-23.9
-28.05
-32.37
-36.67
-40.78
-44.58
-48.1
-51.52
-55.12
-59.21
-64.0
-69.58
-75.74
-82.0
-87.51
-91.21
-92.07
-89.42
-83.17
-73.91
-62.72
-50.77
-39.06
-28.15
-18.22
-9.24
-1.22
5.74
11.54
16.14
19.69
22.47
24.75
26.69
28.35
29.75
30.98
32.26
33.79
35.66
37.7
39.58
40.88
41.31
40.68
39.02
36.47
33.27
29.83
26.56
23.89
21.96
20.63
19.43
17.84
15.48
12.31
8.63
4.9
1.55
-1.22
-3.44
-5.33
-7.2
-9.37
-12.04
-15.23
-18.68
-21.76
-23.6
-23.29
-20.19
-14.15
-5.6
4.55
15.2
25.34
34.32
41.78
47.7
52.17
55.32
57.26
58.11
58.1
57.48
56.56
55.58
54.72
54.02
53.4
52.71
51.79
50.5
48.77
46.59
43.98
40.93
37.44
33.52
29.28
24.84
20.37
15.98
11.64
7.24
2.65
-2.18
-7.13
-12.04
-16.74
-21.23
-25.65
-30.27
-35.36
-41.11
-47.54
-54.39
-61.08
-66.71
-70.18
-70.5
-67.11
-60.18
-50.55
-39.49
-28.2
-17.56
-7.92
0.68
8.25
14.65
19.61
22.89
24.49
24.79
24.37
23.83
23.54
23.53
23.56
23.39
22.87
22.11
21.36
20.81
20.48
20.1
19.26
17.58
14.88
11.3
7.2
3.07
-0.67
-3.82
-6.48
-8.91
-11.48
-14.5
-18.09
-22.14
-26.5
-30.96
-35.45
-40.01
-44.74
-49.75
-55.14
-61.0
-67.37
-74.18
-81.0
-87.02
-91.06
-91.97
-89.02
-82.22
-72.32
-60.54
-48.14
-36.06
-24.81
-14.62
-5.62
2.01
8.13
12.7
15.88
17.99
19.5
20.79
22.21
23.97
26.13
28.61
31.19
33.52
35.26
36.22
36.33
35.75
34.66
33.23
31.52
29.52
27.2
24.62
21.96
19.46
17.38
15.86
14.81
13.92
12.72
10.82
7.99
4.44
0.62
-2.92
-5.87
-8.25
-10.44
-12.94
-16.11
-20.08
-24.73
-29.76
-34.7
-38.92
-41.58
-41.73
-38.58
-31.81
-21.86
-9.83
2.85
14.91
25.56
34.61
42.26
48.76
54.22
58.51
61.47
63.05
63.45
63.12
62.56
62.18
62.13
62.35
62.63
62.69
62.38
61.59
60.31
58.5
56.18
53.34
50.0
46.18
41.96
37.42
32.69
27.93
23.27
18.78
14.37
9.93
5.34
0.61
-4.16
-8.8
-13.24
-17.59
-22.12
-27.12
-32.75
-38.85
-44.93
-50.22
-53.82
-54.98
-53.22
-48.52
-41.27
-32.24
-22.35
-12.49
-3.34
4.65
11.22
16.23
19.69
21.69
22.47
22.39
21.9
21.34
20.92
20.62
20.36
19.99
19.52
19.08
18.84
18.84
18.94
18.81
18.09
16.51
14.12
11.15
7.93
4.75
1.77
-1.01
-3.65
-6.26
-8.97
-11.95
-15.37
-19.32
-23.68
-28.2
-32.55
-36.51
-40.06
-43.43
-47.0
-51.16
-56.19
-62.13
-68.63
-74.93
-79.88
-82.22
-81.02
-76.05
-67.9
-57.84
-47.27
-37.28
-28.38
-20.57
-13.7
-7.72
-2.75
1.01
3.57
5.15
6.14
6.94
7.76
8.63
9.52
10.41
11.4
12.57
13.93
15.41
16.84
18.05
18.9
19.3
19.12
18.27
16.69
14.49
11.94
9.46
7.41
5.98
5.1
4.43
3.5
1.96
-0.34
-3.29
-6.6
-9.89
-12.91
-15.57
-17.96
-20.34
-23.07
-26.44
-30.61
-35.41
-40.23
-44.16
-46.1
-45.21
-41.1
-34.04
-24.79
-14.39
-3.84
6.09
14.96
22.58
28.89
33.95
37.84
40.66
42.58
43.82
44.66
45.4
46.26
47.32
48.57
49.86
51.05
52.01
52.66
52.94
52.76
52.0
50.6
48.65
46.36
44.01
41.79
39.71
37.52
34.92
31.68
27.76
23.35
18.75
14.29
10.16
6.35
2.69
-1.15
-5.52
-10.74
-16.95
-24.02
-31.47
-38.48
-44.06
-47.23
-47.37
-44.32
-38.5
-30.73
-22.03
-13.31
-5.24
1.78
7.64
12.27
15.72
18.04
19.39
19.98
20.04
19.76
19.26
18.62
17.88
17.16
16.58
16.22
16.05
15.92
15.63
14.98
13.78
11.93
9.38
6.19
2.51
-1.38
-5.12
-8.37
-11.02
-13.16
-15.1
-17.25
-19.92
-23.23
-27.13
-31.39
-35.75
-39.96
-43.86
-47.44
-50.91
-54.6
-58.89
-63.97
-69.59
-75.02
-79.11
-80.66
-78.83
-73.45
-65.09
-54.86
-43.95
-33.33
-23.52
-14.74
-7.08
-0.66
4.32
7.72
9.62
10.34
10.41
10.33
10.5
11.09
12.05
13.22
14.39
15.41
16.22
16.83
17.27
17.53
17.57
17.22
16.34
14.89
13.0
10.88
8.73
6.66
4.65
2.59
0.44
-1.81
-4.12
-6.47
-8.93
-11.58
-14.4
-17.2
-19.72
-21.79
-23.53
-25.37
-27.89
-31.57
-36.54
-42.44
-48.51
-53.71
-57.07
-57.76
-55.31
-49.67
-41.19
-30.65
-19.04
-7.42
3.36
12.78
20.65
27.09
32.24
36.29
39.33
41.53
43.07
44.24
45.31
46.46
47.72
49.05
50.34
51.58
52.75
53.82
54.67
55.08
54.77
53.61
51.63
49.06
46.18
43.27
40.44
37.7
34.94
32.04
28.91
25.51
21.84
17.97
13.96
9.83
5.48
0.76
-4.6
-10.7
-17.44
-24.35
-30.71
-35.65
-38.4
-38.45
-35.7
-30.43
-23.22
-14.82
-6.03
2.48
10.19
16.81
22.2
26.33
29.23
30.95
31.6
31.33
30.44
29.27
28.19
27.51
27.36
27.66
28.16
28.53
28.47
27.81
26.48
24.45
21.72
18.31
14.34
10.1
6.0
2.44
-0.4
-2.7
-4.87
-7.42
-10.61
-14.43
-18.58
-22.69
-26.52
-30.06
-33.43
-36.86
-40.56
-44.75
-49.62
-55.22
-61.31
-67.21
-71.89
-74.23
-73.36
-68.98
-61.46
