0
6.19
2.3
-1.62
-6.01
-11.13
-16.95
-23.16
-29.23
-34.7
-39.34
-43.3
-47.02
-51.13
-56.24
-62.76
-70.68
-79.47
-87.94
-94.37
-96.94
-94.15
-85.47
-71.55
-54.06
-35.26
-17.24
-1.47
11.38
21.27
28.47
33.27
35.89
36.57
35.71
33.89
31.86
30.29
29.67
30.12
31.49
33.45
35.6
37.66
39.51
41.14
42.54
43.57
43.97
43.37
41.47
38.22
33.8
28.69
23.45
18.51
14.02
9.82
5.53
0.72
-4.86
-11.16
-17.81
-24.29
-30.06
-34.8
-38.6
-41.91
-45.49
-50.19
-56.66
-65.08
-74.92
-84.86
-93.0
-97.27
-96.0
-88.46
-75.12
-57.57
-38.05
-18.78
-1.53
12.77
23.9
32.09
37.7
41.1
42.59
42.51
41.37
39.82
38.52
38.02
38.58
40.08
42.12
44.22
46.03
47.41
48.44
49.25
49.87
50.11
49.59
47.91
44.86
40.52
35.29
29.73
24.34
19.43
14.97
10.65
6.05
0.85
-5.05
-11.4
-17.72
-23.51
-28.43
-32.53
-36.24
-40.23
-45.25
-51.79
-59.89
-68.98
-77.88
-84.93
-88.36
-86.75
-79.4
-66.66
-49.84
-30.92
-12.04
4.99
18.99
29.49
36.59
40.68
42.28
41.93
40.2
37.68
35.03
32.85
31.64
31.62
32.74
34.74
37.22
39.81
42.23
44.24
45.59
45.99
45.13
42.82
39.09
34.28
28.91
23.51
18.34
13.36
8.25
2.64
-3.61
-10.36
-17.18
-23.52
-29.04
-33.67
-37.79
-42.03
-47.18
-53.84
-62.17
-71.65
-80.95
-88.19
-91.27
-88.61
-79.59
-64.87
-46.25
-26.08
-6.63
10.45
24.34
34.92
42.44
47.3
49.81
50.3
49.17
47.0
44.52
42.49
41.54
41.95
43.61
46.05
48.67
50.95
52.6
53.6
54.05
54.01
53.37
51.87
49.26
45.42
40.52
34.93
29.08
23.4
18.14
13.32
8.81
4.34
-0.38
-5.57
-11.26
-17.31
-23.41
-29.25
-34.55
-39.25
-43.5
-47.64
-52.21
-57.82
-65.01
-73.94
-84.12
-94.18
-102.06
-105.45
-102.57
-92.8
-76.91
-56.85
-35.13
-14.1
4.52
19.79
31.44
39.68
44.93
47.75
48.7
48.36
47.25
45.86
44.67
44.1
44.47
45.89
48.17
50.92
53.64
55.94
57.57
58.47
58.65
58.09
56.77
54.63
51.66
47.87
43.33
38.19
32.66
27.02
21.55
16.42
11.62
7.0
2.29
-2.71
-8.05
-13.61
-19.18
-24.58
-29.74
-34.69
-39.51
-44.3
-49.22
-54.55
-60.69
-68.06
-76.73
-86.08
-94.64
-100.37
-101.18
-95.74
-83.95
-67.07
-47.28
-26.99
-8.19
7.93
20.96
31.02
38.38
43.29
45.88
46.38
45.19
42.95
40.49
38.62
37.87
38.4
39.98
42.14
44.4
46.43
48.03
49.14
49.67
49.54
48.66
46.99
44.53
41.29
37.34
32.75
27.72
22.57
17.63
13.13
9.02
5.0
0.63
-4.32
-9.81
-15.43
-20.67
-25.14
-28.77
-31.85
-34.88
-38.38
-42.78
-48.38
-55.28
-63.32
-71.87
-79.78
-85.43
-87.09
-83.43
-74.03
-59.62
-41.9
-23.1
-5.29
10.07
22.35
31.55
37.97
41.95
43.7
43.38
41.34
38.19
34.79
32.04
30.58
30.6
31.79
33.64
35.61
37.42
38.99
40.35
41.46
42.1
41.93
40.66
38.13
34.44
29.9
24.92
19.92
15.21
10.91
6.93
2.98
-1.33
-6.35
-12.16
-18.55
-25.03
-31.07
-36.28
-40.62
-44.35
-47.9
-51.8
-56.54
-62.51
-69.83
-78.2
-86.69
-93.71
-97.3
-95.68
-87.91
-74.27
-56.3
-36.26
-16.51
1.15
15.72
26.97
35.11
40.53
43.6
44.74
44.38
43.06
41.37
39.85
38.91
38.71
39.24
40.32
41.78
43.41
45.1
46.73
48.19
49.28
49.73
49.25
47.64
44.84
41.01
36.46
31.53
26.5
21.51
16.59
11.76
7.08
2.58
-1.76
-6.06
-10.58
-15.52
-20.93
-26.61
-32.2
-37.26
-41.58
-45.26
-48.74
-52.67
-57.78
-64.57
-73.12
-82.9
-92.63
-100.41
-104.12
-102.02
-93.27
-78.37
-59.03
-37.67
-16.82
1.57
16.45
27.57
35.29
40.21
42.91
43.95
43.78
42.86
41.65
40.57
39.97
40.05
40.83
42.21
44.01
46.03
48.07
49.96
51.54
52.59
52.88
52.21
50.44
47.52
43.5
38.56
32.96
27.04
21.21
15.86
11.18
7.11
3.29
-0.8
-5.59
-11.21
-17.38
-23.58
-29.26
-34.14
-38.23
-41.85
-45.46
-49.53
-54.58
-61.02
-69.07
-78.37
-87.79
-95.45
-99.08
-96.83
-87.87
-72.83
-53.62
-32.78
-12.75
4.77
18.93
29.64
37.16
41.87
44.09
44.17
42.58
39.97
37.1
34.75
33.49
33.53
34.74
36.65
38.71
40.51
41.94
43.11
44.19
45.22
45.96
45.89
44.48
41.43
36.88
31.37
25.64
20.28
15.53
11.2
6.87
2.08
-3.38
-9.41
-15.66
-21.61
-26.85
-31.24
-34.94
-38.38
-42.18
-46.92
-53.05
-60.69
-69.45
-78.41
-86.07
-90.6
-90.26
-83.98
-71.76
-54.85
-35.36
-15.72
2.02
16.7
27.96
36.06
41.35
44.13
44.58
43.01
39.99
36.39
33.12
30.89
29.99
30.36
31.64
33.45
35.52
37.7
39.86
41.81
43.23
43.69
42.77
40.22
36.1
30.79
24.92
19.12
13.8
9.0
4.33
-0.74
-6.64
-13.45
-20.86
-28.26
-35.04
-40.84
-45.64
-49.86
-54.25
-59.65
-66.69
-75.48
-85.34
-94.74
-101.54
-103.61
-99.42
-88.63
-72.15
-51.97
-30.47
-9.87
8.22
22.96
34.16
41.96
46.72
48.84
48.77
47.1
44.53
41.81
39.61
38.37
38.21
38.94
40.23
41.72
43.21
44.65
46.09
47.47
48.54
48.82
47.76
44.99
40.49
34.68
28.25
21.94
16.18
10.99
6.0
0.73
-5.17
-11.74
-18.67
-25.45
-31.63
-36.91
-41.34
-45.26
-49.28
-54.13
-60.52
-68.76
-78.61
-88.98
-98.03
-103.54
-103.51
-96.79
-83.53
-65.11
-43.81
-22.11
-2.13
14.82
28.25
38.28
45.34
49.86
52.21
52.76
51.95
50.36
48.72
47.68
47.69
48.87
50.94
53.47
55.94
58.03
59.57
60.54
60.92
60.63
59.48
57.31
54.03
49.74
44.68
39.18
33.56
28.09
22.9
18.0
13.22
8.31
2.98
-2.97
-9.51
-16.32
-22.9
-28.77
-33.66
-37.65
-41.21
-45.01
-49.75
-56.03
-64.15
-73.98
-84.72
-94.82
-102.18
-104.57
-100.39
-89.23
-72.13
-51.29
-29.38
-8.77
8.97
23.2
33.94
41.52
46.33
48.73
49.1
47.98
46.01
43.89
42.21
41.37
41.45
42.32
43.68
45.24
46.84
48.38
49.85
51.1
51.81
51.55
49.91
46.71
42.11
36.57
30.73
25.12
20.03
15.43
11.0
6.35
1.21
-4.49
-10.53
-16.52
-22.03
-26.81
-30.88
-34.62
-38.68
-43.82
-50.59
-59.08
-68.64
-77.78
-84.45
-86.56
-82.61
-72.25
-56.46
-37.25
-17.08
1.86
18.06
30.89
40.33
46.65
50.2
51.23
50.12
47.41
43.88
40.45
37.94
36.81
37.08
38.38
40.19
42.02
43.65
45.05
46.27
47.27
47.8
47.48
45.93
42.97
38.67
33.4
27.65
21.96
16.71
12.06
7.86
3.77
-0.61
-5.58
-11.17
-17.16
-23.14
-28.7
-33.6
-37.91
-41.96
-46.32
-51.63
-58.42
-66.9
-76.7
-86.69
-95.09
-99.76
-98.9
-91.6
-78.26
-60.5
-40.64
-21.02
-3.41
11.27
22.86
31.61
37.87
41.9
43.89
44.11
43.01
41.22
39.49
38.44
38.39
39.33
40.97
42.92
44.8
46.42
47.73
48.73
49.4
49.56
48.96
47.28
44.31
40.06
34.79
29.0
23.28
18.1
13.64
9.72
5.9
1.67
-3.33
-9.1
-15.27
-21.28
-26.55
-30.77
-34.03
-36.85
-39.97
-44.17
-50.04
-57.75
-67.0
-76.85
-85.85
-92.2
-94.11
-90.32
-80.54
-65.65
-47.49
-28.37
-10.41
4.95
17.09
26.08
32.32
36.29
38.36
38.89
38.26
36.99
35.63
34.71
34.56
35.27
36.66
38.42
40.18
41.65
42.66
43.22
43.4
43.24
42.68
41.45
39.25
35.83
31.21
25.8
20.23
15.16
10.99
7.66
4.69
1.44
-2.59
-7.5
-12.97
-18.45
-23.47
-27.78
-31.49
-34.91
-38.41
-42.37
-47.12
-52.93
-60.0
-68.11
-76.41
-83.38
-87.12
-85.97
-79.09
-66.91
-50.97
-33.43
-16.39
-1.35
10.93
20.33
27.03
31.29
33.31
33.32
31.71
29.11
26.35
24.28
23.5
24.15
25.95
28.27
30.48
32.2
33.41
34.34
35.21
36.0
36.39
35.85
33.96
30.61
26.06
20.9
15.79
11.17
7.16
3.48
-0.35
-4.79
-10.06
-15.99
-22.13
-27.94
-33.0
-37.22
-40.88
-44.53
-48.81
-54.31
-61.35
-69.84
-79.09
-87.77
-94.06
-96.11
-92.61
-83.28
-69.0
-51.6
-33.26
-15.87
-0.66
11.85
21.63
28.83
33.65
36.31
37.14
36.63
35.41
34.1
33.22
33.09
33.83
35.34
37.42
39.77
42.1
44.16
45.76
46.84
47.33
47.14
46.14
44.16
41.07
36.92
31.92
26.5
21.11
16.12
11.72
7.82
4.1
0.16
-4.33
-9.52
-15.28
-21.24
-26.96
-32.11
-36.6
-40.63
-44.66
-49.29
-55.09
-62.44
-71.42
-81.53
-91.65
-100.01
-104.57
-103.52
-95.97
-82.3
-64.14
-43.95
-24.15
-6.53
8.08
19.68
28.69
35.47
40.2
42.93
43.86
43.46
42.49
41.75
41.8
42.84
44.71
47.03
49.46
51.79
53.96
55.96
57.72
59.06
59.66
59.21
57.44
54.25
49.74
44.23
38.2
32.17
26.54
21.49
16.91
12.47
7.82
2.67
-3.03
-9.12
-15.32
-21.33
-26.91
-31.99
-36.69
-41.28
-46.23
-52.07
-59.27
-67.99
-77.78
-87.44
-95.17
-98.9
-96.98
-88.69
-74.53
-56.18
-35.92
-16.05
1.71
16.45
27.94
36.35
41.98
45.1
46.03
45.24
43.43
41.43
39.98
39.52
40.12
41.44
43.03
44.54
45.85
47.05
48.31
49.6
50.64
50.95
49.98
47.36
43.12
37.63
31.53
25.47
19.98
15.17
10.82
6.45
1.57
-4.03
-10.19
-16.43
-22.18
-27.08
-31.14
-34.79
-38.66
-43.41
-49.51
-57.13
-65.91
-74.87
-82.4
-86.5
-85.36
-78.02
-64.8
-47.29
-27.84
-8.78
8.22
22.34
33.44
41.62
46.96
49.46
49.28
46.92
43.25
39.33
36.09
34.11
33.51
34.06
35.37
37.05
38.8
40.47
41.96
43.2
44.01
44.15
43.29
41.17
37.68
32.99
27.5
21.74
16.15
10.92
5.94
0.85
-4.67
-10.75
-17.21
-23.66
-29.65
-34.87
-39.31
-43.25
-47.21
-51.86
-57.81
-65.44
-74.59
-84.38
-93.18
-98.94
-99.67
-94.18
-82.42
-65.58
-45.73
-25.18
-5.95
10.64
23.99
34.07
41.14
45.52
47.56
47.61
46.17
43.9
41.58
39.92
39.4
40.1
41.73
43.82
45.91
47.73
49.22
50.44
51.42
52.01
51.97
50.97
48.78
45.36
40.88
35.74
30.38
25.23
20.51
16.16
11.91
7.37
2.21
-3.69
-10.15
-16.74
-22.97
-28.48
-33.18
-37.26
-41.18
-45.5
-50.8
-57.51
-65.83
-75.4
-85.2
-93.5
-98.23
-97.52
-90.41
-77.2
-59.48
-39.61
-19.99
-2.45
12.06
23.36
31.71
37.47
40.94
42.38
42.12
40.74
38.94
37.46
36.83
37.26
38.59
40.41
42.33
44.05
45.5
46.75
47.83
48.63
48.86
48.17
46.28
43.18
39.01
34.16
28.99
23.83
18.85
14.08
9.42
4.65
-0.39
-5.79
-11.41
-16.95
-22.03
-26.37
-29.97
-33.2
-36.67
-41.04
-46.81
-54.07
-62.41
-70.84
-77.86
-81.73
-80.95
-74.68
-63.17
-47.72
-30.31
-13.06
2.44
15.3
25.32
32.66
37.56
40.15
40.6
39.24
36.72
33.84
31.42
30.03
29.85
30.74
32.34
34.26
36.21
37.98
39.47
40.58
41.23
41.26
40.46
38.63
35.63
31.48
26.47
21.07
15.83
11.08
6.83
2.76
-1.61
-6.62
-12.26
-18.16
-23.8
-28.72
-32.8
-36.24
-39.5
-43.12
-47.63
-53.46
-60.84
-69.61
-78.97
-87.42
-92.98
-93.74
-88.55
-77.49
-61.88
-43.87
-25.71
-9.11
4.97
16.31
25.05
31.43
35.64
37.88
38.42
37.71
36.35
34.95
34.02
33.86
34.48
35.69
37.15
38.63
40.01
41.28
42.47
43.51
44.15
44.04
42.88
40.53
37.13
32.95
28.32
23.54
18.8
14.24
9.92
5.8
1.76
-2.43
-6.99
-11.98
-17.3
-22.66
-27.72
-32.28
-36.31
-40.04
-43.88
-48.38
-54.12
-61.48
-70.4
-80.13
-89.12
-95.34
-96.82
-92.28
-81.7
-66.26
-48.02
-29.23
-11.71
3.44
15.8
25.38
32.42
37.15
39.91
41.1
41.25
40.9
40.47
40.3
40.54
41.24
42.38
43.94
45.79
47.72
49.51
50.88
51.61
51.54
50.59
48.75
46.12
42.84
39.09
35.04
30.82
26.5
22.15
17.79
13.47
9.25
5.13
1.02
-3.23
-7.79
-12.73
-17.93
-23.13
-27.98
-32.27
-36.0
-39.45
-43.1
-47.5
-53.15
-60.28
-68.7
-77.64
-85.75
-91.29
-92.58
-88.47
-78.82
-64.54
-47.38
-29.39
-12.4
2.37
14.29
23.28
29.46
33.09
34.49
34.13
32.63
30.7
28.98
27.95
27.8
28.42
29.58
31.03
32.67
34.51
36.57
38.73
40.65
41.85
41.86
40.39
37.49
33.46
28.74
23.77
18.85
14.1
9.48
4.82
-0.03
-5.14
-10.4
-15.53
-20.21
-24.25
-27.73
-31.09
-34.96
-40.01
-46.58
-54.55
-63.14
-71.02
-76.53
-78.08
-74.55
-65.71
-52.29
-35.91
-18.54
-2.05
12.26
23.76
32.37
38.29
41.76
42.97
42.18
39.8
36.51
33.2
30.74
29.72
30.25
31.99
34.32
36.62
38.53
39.98
41.09
41.93
42.38
42.08
40.65
37.83
33.7
28.62
23.14
17.72
12.66
8.0
3.58
-0.89
-5.68
-10.95
-16.63
-22.49
-28.12
-33.17
-37.47
-41.15
-44.61
-48.45
-53.27
-59.54
-67.43
-76.57
-85.97
-93.99
-98.6
-97.99
-91.13
-78.27
-60.92
-41.35
-21.9
-4.36
10.35
22.03
30.9
37.23
41.28
43.34
43.81
43.24
42.22
41.27
40.76
40.88
41.67
43.05
44.86
46.85
48.73
50.3
51.43
52.05
52.12
51.55
50.15
47.75
44.29
39.87
34.75
29.29
23.82
18.58
13.64
8.94
4.29
-0.54
-5.74
-11.38
-17.34
-23.36
-29.05
-34.12
-38.46
-42.25
-46.01
-50.42
-56.17
-63.71
-72.95
-83.1
-92.62
-99.46
-101.54
-97.37
-86.57
-70.1
-50.05
-28.99
-9.26
7.62
21.12
31.48
39.22
44.8
48.43
50.23
50.4
49.43
47.97
46.71
46.14
46.42
47.41
48.81
50.3
51.67
52.81
53.72
54.39
54.73
54.57
53.67
51.79
48.81
44.79
39.97
34.7
29.28
23.97
18.83
13.88
9.05
4.26
-0.58
-5.55
-10.69
-15.95
-21.14
-26.06
-30.55
-34.67
-38.68
-43.02
-48.18
-54.56
-62.27
-71.03
-80.01
-87.85
-92.86
-93.39
-88.39
-77.73
-62.4
-44.23
-25.39
-7.76
7.4
19.56
28.73
35.17
39.08
40.67
40.19
38.1
35.11
32.11
29.87
28.91
29.31
30.78
32.86
35.12
37.25
39.15
40.74
41.9
42.41
41.99
40.43
37.69
33.97
29.63
25.09
20.65
16.39
12.09
7.41
2.05
-3.98
-10.38
-16.57
-21.97
-26.31
-29.7
-32.68
-36.0
-40.38
-46.3
-53.74
-62.04
-69.95
-75.73
-77.64
-74.37
-65.56
-51.99
-35.33
-17.74
-1.16
13.01
24.14
32.2
37.45
40.26
40.96
39.97
37.79
35.05
32.4
30.41
29.44
29.52
30.48
31.97
33.61
35.13
36.39
37.35
38.01
38.29
37.98
36.8
34.47
30.87
26.19
20.89
15.59
10.79
6.62
2.79
-1.25
-6.03
-11.74
-18.1
-24.5
-30.35
-35.26
-39.28
-42.81
-46.44
-50.78
-56.34
-63.38
-71.68
-80.41
-88.03
-92.59
-92.26
-85.99
-73.9
-57.37
-38.56
-19.7
-2.56
11.89
23.34
31.95
37.98
41.67
43.24
43.02
41.53
39.43
37.48
36.27
36.11
36.93
38.42
40.12
41.7
42.99
43.95
44.64
45.05
45.05
44.51
43.26
41.17
38.21
34.41
29.92
25.02
20.04
15.27
10.81
6.57
2.24
-2.48
-7.75
-13.42
-19.09
-24.31
-28.79
-32.55
-35.98
-39.66
-44.19
-50.05
-57.42
-66.06
-75.25
-83.7
-89.71
-91.52
-87.81
-78.21
-63.57
-45.74
-27.01
-9.45
5.63
17.72
26.95
33.65
38.08
40.44
40.96
40.01
38.18
36.11
34.38
33.33
33.06
33.49
34.44
35.76
37.28
38.88
40.42
41.73
42.58
42.66
41.7
39.5
36.05
31.63
26.71
21.82
17.38
13.49
9.93
6.27
2.04
-3.04
-8.88
-15.13
-21.22
-26.64
-31.12
-34.77
-38.02
-41.52
-45.96
-51.78
-59.03
-67.19
-75.09
-81.14
-83.6
-81.11
-73.14
-60.2
-43.77
-25.87
-8.52
6.74
19.01
28.07
34.09
37.45
38.55
37.86
35.86
33.15
30.39
28.15
26.87
26.69
27.44
28.78
30.34
31.85
33.23
34.48
35.49
36.04
35.77
34.36
31.68
27.89
23.33
18.34
13.15
7.82
2.31
-3.44
-9.4
-15.45
-21.42
-27.09
-32.31
-37.01
-41.32
-45.59
-50.41
-56.37
-63.81
-72.44
-81.2
-88.35
-91.98
-90.54
-83.35
-70.89
-54.65
-36.64
-18.81
-2.63
11.12
22.21
30.74
36.83
40.56
42.01
41.47
39.55
37.09
34.95
33.77
33.74
34.63
36.02
37.54
39.05
40.58
42.25
43.96
45.41
46.11
45.57
43.51
39.95
35.21
29.79
24.25
19.0
14.22
9.8
5.39
0.54
-5.12
-11.59
-18.56
-25.42
-31.58
-36.72
-40.91
-44.67
-48.71
-53.8
-60.49
-68.88
-78.44
-87.92
-95.43
-98.87
-96.55
-87.72
-73.0
-54.16
-33.58
-13.58
4.16
18.81
30.18
38.47
44.03
47.2
48.38
48.08
46.87
45.36
44.1
43.47
43.67
44.71
46.41
48.43
50.45
52.16
53.42
54.19
54.49
54.24
53.23
51.2
47.91
43.4
37.96
32.08
26.3
20.92
15.93
11.04
5.9
0.26
-5.83
-12.11
-18.2
-23.8
-28.81
-33.37
-37.78
-42.48
-47.91
-54.51
-62.52
-71.84
-81.77
-90.92
-97.43
-99.35
-95.27
-84.83
-68.94
-49.53
-28.97
-9.46
7.49
21.17
31.46
38.6
42.84
44.48
43.89
41.65
38.59
35.61
33.46
32.53
32.84
34.11
35.97
38.13
40.37
42.48
44.22
45.24
45.18
43.82
41.15
37.44
33.12
28.63
24.26
20.07
15.9
11.46
6.49
0.9
-5.15
-11.29
-17.13
-22.39
-27.06
-31.46
-36.14
-41.64
-48.31
-56.03
-64.16
-71.43
-76.27
-77.05
-72.67
-62.88
-48.45
-31.05
-12.75
4.54
19.46
31.32
39.97
45.51
48.11
48.05
45.73
41.87
37.41
33.34
30.43
29.04
29.06
30.13
31.8
33.72
35.67
37.49
38.91
39.61
39.24
37.56
34.59
30.57
25.87
20.83
15.64
10.28
4.61
-1.52
-8.11
-14.96
-21.7
-27.93
-33.41
-38.17
-42.56
-47.2
-52.76
-59.78
-68.34
-77.93
-87.3
-94.64
-97.95
-95.6
-86.85
-72.23
-53.38
-32.64
-12.37
5.67
20.54
32.07
40.54
46.31
49.65
50.79
50.05
47.98
45.36
43.01
41.54
41.19
41.81
43.01
44.38
45.66
46.8
47.85
48.83
49.54
49.58
48.45
45.79
41.51
35.91
29.63
23.36
17.6
12.51
7.81
3.01
-2.31
-8.33
-14.85
-21.43
-27.59
-33.01
-37.67
-41.87
-46.09
-50.93
-57.01
-64.73
-74.02
-84.11
-93.42
-99.77
-101.01
-95.7
-83.7
-66.28
-45.72
-24.56
-4.92
11.89
25.43
35.8
43.32
48.31
51.04
51.82
51.08
49.41
47.48
45.98
45.38
45.87
47.31
49.29
51.36
53.13
54.42
55.22
55.59
55.51
54.88
53.46
51.04
47.52
42.99
37.7
32.02
26.29
20.75
15.45
10.28
5.05
-0.42
-6.22
-12.23
-18.2
-23.79
-28.73
-32.95
-36.6
-40.09
-43.94
-48.68
-54.74
-62.35
-71.36
-81.04
-89.99
-96.34
-98.08
-93.79
-83.11
-67.0
-47.46
-26.94
-7.66
8.9
22.03
31.7
38.17
41.83
43.08
42.37
40.23
37.35
34.43
32.15
30.98
31.08
32.29
34.18
36.31
38.33
40.12
41.72
43.12
44.14
44.38
43.36
40.82
36.85
31.93
26.71
21.75
17.28
13.2
9.11
4.65
-0.41
-5.96
-11.68
-17.12
-21.88
-25.82
-29.1
-32.22
-35.86
-40.69
-47.14
-55.12
-63.93
-72.18
-78.07
-79.82
-76.15
-66.8
-52.59
-35.28
-17.04
0.14
14.87
26.45
34.75
39.96
42.32
42.11
39.78
36.04
31.82
28.1
25.62
24.69
25.17
26.57
28.38
30.21
31.9
33.4
34.64
35.38
35.33
34.19
31.84
28.38
24.08
19.31
14.35
9.37
4.37
-0.76
-6.19
-12.01
-18.18
-24.43
-30.42
-35.81
-40.46
-44.54
-48.57
-53.22
-59.15
-66.65
-75.41
-84.41
-91.94
-96.03
-94.95
-87.79
-74.8
-57.38
-37.71
-18.04
-0.23
14.64
26.25
34.74
40.38
43.48
44.32
43.32
41.11
38.49
36.22
34.86
34.61
35.32
36.71
38.42
40.24
42.02
43.67
45.07
46.04
46.32
45.64
43.77
40.6
36.23
30.97
25.34
19.83
14.79
10.19
5.72
0.86
-4.77
-11.26
-18.29
-25.26
-31.59
-36.95
-41.39
-45.29
-49.26
-53.95
-59.94
-67.58
-76.77
-86.73
-95.91
-102.17
-103.36
-98.02
-85.92
-68.27
-47.32
-25.66
-5.51
11.71
25.46
35.77
42.98
47.48
49.64
49.85
48.64
46.65
44.6
43.14
42.7
43.37
44.88
46.75
48.49
49.78
50.61
51.13
51.52
51.76
51.57
50.55
48.34
44.78
40.03
34.44
28.51
22.65
17.16
12.04
7.13
2.11
-3.34
-9.36
-15.87
-22.49
-28.81
-34.45
-39.31
-43.59
-47.7
-52.21
-57.66
-64.48
-72.74
-81.93
-90.85
-97.69
-100.44
-97.51
-88.28
-73.37
-54.48
-33.86
-13.7
4.33
19.19
30.46
38.08
42.29
43.53
42.44
39.78
36.34
32.85
29.97
28.19
27.83
28.94
31.32
34.52
37.97
41.12
43.54
44.94
45.17
44.17
41.99
38.8
34.86
30.49
25.92
21.16
16.03
10.28
3.77
-3.37
-10.71
-17.72
-23.93
-29.19
-33.74
-38.18
-43.25
-49.56
-57.34
-66.13
-74.7
-81.24
-83.78
-80.75
-71.59
-56.95
-38.54
-18.62
0.61
17.55
31.28
41.49
48.22
51.71
52.27
50.43
46.92
42.63
38.49
35.21
33.22
32.58
33.04
34.24
35.8
37.47
39.17
40.82
42.3
43.32
43.43
42.21
39.41
35.15
29.86
24.16
18.54
13.23
8.08
2.76
-3.07
-9.54
-16.47
-23.49
-30.13
-36.07
-41.24
-45.85
-50.41
-55.65
-62.26
-70.7
-80.76
-91.43
-100.84
-106.67
-106.76
-99.9
-86.19
-67.14
-45.2
-23.01
-2.7
14.46
28.13
38.54
46.1
51.17
53.99
54.73
53.71
51.51
48.9
46.65
45.35
45.17
45.95
47.28
48.78
50.24
51.62
52.93
54.12
54.91
54.93
53.8
51.32
47.45
42.45
36.68
30.6
24.67
19.19
14.2
9.48
4.56
-1.06
-7.64
-15.07
-22.83
-30.23
-36.65
-41.85
-46.02
-49.77
-53.87
-59.12
-66.09
-74.92
-85.08
-95.21
-103.28
-107.01
-104.53
-95.06
-79.25
-59.0
-36.86
-15.28
3.94
19.93
32.53
41.99
48.66
52.83
54.83
55.05
54.0
52.3
50.55
49.26
48.74
49.11
50.29
52.03
54.07
56.11
57.93
59.32
60.07
59.95
58.75
56.39
52.86
48.3
42.97
37.13
31.08
25.08
19.37
14.09
9.22
4.58
-0.17
-5.34
-11.07
-17.23
-23.45
-29.3
-34.45
-38.87
-42.81
-46.79
-51.39
-57.15
-64.47
-73.31
-83.06
-92.45
-99.61
-102.52
-99.63
-90.35
-75.37
-56.43
-35.84
-15.8
2.09
16.97
28.57
36.93
42.18
44.5
44.24
41.98
38.62
35.14
32.41
30.98
30.92
31.95
33.67
35.71
37.9
40.18
42.54
44.81
46.61
47.43
46.82
44.58
40.85
36.06
30.79
25.52
20.5
15.67
10.73
5.36
-0.65
-7.26
-14.15
-20.79
-26.65
-31.42
-35.15
-38.35
-41.84
-46.52
-53.06
-61.53
-71.23
-80.67
-87.83
-90.71
-87.85
-78.77
-64.2
-45.83
-25.87
-6.46
10.78
24.96
35.8
43.41
48.05
49.99
49.59
47.36
44.01
40.38
37.28
35.31
34.71
35.34
36.81
38.61
40.33
41.74
42.82
43.63
44.18
44.26
43.52
41.54
38.1
33.3
27.61
21.68
16.09
11.09
6.53
2.0
-2.92
-8.5
-14.7
-21.23
-27.69
-33.72
-39.07
-43.71
-47.81
-51.71
-55.93
-61.07
-67.69
-76.02
-85.66
-95.36
-103.05
-106.36
-103.31
-93.15
-76.68
-56.08
-34.14
-13.39
4.54
19.06
30.31
38.61
44.19
47.13
47.64
46.24
43.76
41.16
39.22
38.31
38.4
39.23
40.45
41.84
43.25
44.61
45.85
46.87
47.53
47.68
47.1
45.55
42.82
38.86
33.81
28.04
22.05
16.25
10.86
5.82
0.84
-4.41
-10.18
-16.48
-23.13
-29.77
-36.01
-41.56
-46.35
-50.6
-54.78
-59.58
-65.68
-73.6
-83.39
-94.44
-105.41
-114.32
-119.06
-117.88
-110.08
-96.21
-78.02
-57.9
-38.26
-20.84
-6.53
4.55
12.78
18.65
22.62
25.09
26.57
27.67
29.14
31.63
35.57
40.96
47.43
54.34
61.02
66.95
71.81
75.49
77.97
79.26
79.34
78.12
75.52
71.49
66.11
59.59
52.36
44.91
37.7
30.97
24.7
18.65
12.52
6.13
-0.52
-7.23
-13.76
-19.92
-25.63
-30.96
-36.11
-41.47
-47.56
-54.9
-63.76
-73.8
-83.92
-92.28
-96.76
-95.54
-87.79
-73.96
-55.7
-35.33
-15.16
3.03
18.29
30.29
39.07
44.73
47.37
47.17
44.64
40.65
36.29
32.66
30.47
29.92
30.73
32.39
34.42
36.5
38.53
40.44
42.06
43.0
42.83
41.15
37.86
33.17
27.55
21.58
15.7
10.11
4.74
-0.69
-6.48
-12.8
-19.57
-26.51
-33.18
-39.19
-44.41
-49.05
-53.7
-59.18
-66.2
-75.0
-85.02
-94.77
-102.05
-104.54
-100.5
-89.4
-72.16
-50.86
-28.11
-6.31
12.86
28.56
40.62
49.21
54.59
57.02
56.9
54.84
51.69
48.4
45.79
44.39
44.27
45.18
46.64
48.21
49.59
50.67
51.49
52.1
52.44
52.28
51.25
48.99
45.29
40.24
34.24
27.88
21.75
16.22
11.27
6.56
1.58
-4.11
-10.66
-17.87
-25.27
-32.33
-38.63
-44.04
-48.71
-53.13
-57.98
-63.99
-71.78
-81.48
-92.51
-103.32
-111.64
-114.98
-111.37
-100.14
-82.16
-59.64
-35.44
-12.24
8.1
24.68
37.42
46.66
52.85
56.39
57.65
57.08
55.28
52.96
50.87
49.6
49.46
50.43
52.19
54.27
56.28
58.01
59.45
60.68
61.7
62.32
62.11
60.59
57.42
52.58
46.42
39.56
32.71
26.33
20.55
15.15
9.69
3.77
-2.8
-9.87
-17.04
-23.84
-29.92
-35.2
-39.87
-44.37
-49.25
-55.08
-62.36
-71.34
-81.75
-92.56
-101.96
-107.66
-107.47
-100.08
-85.61
-65.64
-42.74
-19.73
1.12
18.47
31.93
41.65
48.03
51.43
52.23
50.94
48.27
45.07
42.18
40.18
39.32
39.51
40.45
41.82
43.42
45.14
46.9
48.52
49.67
49.94
48.94
46.49
42.72
38.0
32.82
27.58
22.45
17.32
11.89
5.92
-0.64
-7.53
-14.26
-20.33
-25.45
-29.69
-33.45
-37.42
-42.34
-48.79
-56.91
-66.16
-75.27
-82.37
-85.4
-82.77
-73.87
-59.33
-40.88
-20.79
-1.29
15.92
29.84
40.1
46.75
50.07
50.5
48.63
45.16
40.96
36.9
33.77
32.1
32.0
33.16
34.99
36.87
38.37
39.4
40.02
40.3
40.08
39.0
36.65
32.89
27.93
22.34
16.73
11.46
6.49
1.47
-4.05
-10.32
-17.25
-24.46
-31.41
-37.64
-42.95
-47.39
-51.38
-55.55
-60.7
-67.54
-76.35
-86.62
-96.91
-105.02
-108.55
-105.66
-95.67
-79.41
-58.9
-36.77
-15.45
3.35
18.84
30.89
39.76
45.75
49.13
50.25
49.58
47.87
45.91
44.44
43.87
44.28
45.46
47.05
48.74
50.35
51.82
53.14
54.21
54.85
54.71
53.49
50.98
47.16
42.22
36.53
30.52
24.62
19.11
14.03
9.17
4.16
-1.42
-7.77
-14.77
-21.97
-28.79
-34.71
-39.56
-43.59
-47.33
-51.53
-56.89
-63.97
-72.88
-83.07
-93.17
-101.09
-104.54
-101.69
-91.91
-76.03
-56.08
-34.62
-13.94
4.42
19.77
32.04
41.37
47.93
51.86
53.39
52.98
51.31
49.18
47.35
46.37
46.46
47.52
49.23
51.17
53.01
54.57
55.81
56.7
57.16
57.02
56.07
54.13
51.14
47.19
42.45
37.17
31.59
25.94
20.43
15.21
10.34
5.77
1.32
-3.24
-8.08
-13.23
-18.57
-23.86
-28.82
-33.31
-37.4
-41.39
-45.74
-50.96
-57.48
-65.46
-74.66
-84.25
-92.76
-98.3
-99.0
-93.6
-81.97
-65.23
-45.54
-25.35
-6.79
8.88
21.28
30.67
37.49
42.09
44.67
45.42
44.65
42.95
41.03
39.6
39.14
39.74
41.16
42.94
44.63
45.95
46.86
47.45
47.79
47.79
47.21
45.73
43.19
39.64
35.34
30.62
25.78
20.99
16.31
11.76
7.37
3.1
-1.17
-5.6
-10.34
-15.36
-20.43
-25.2
-29.37
-32.89
-35.99
-39.17
-43.03
-48.11
-54.72
-62.76
-71.59
-79.95
-86.09
-88.21
-84.92
-75.82
-61.71
-44.37
-26.02
-8.67
6.34
18.43
27.56
33.91
37.68
39.09
38.48
36.44
33.76
31.24
29.51
28.85
29.21
30.29
31.75
33.31
34.8
36.18
37.4
38.37
38.88
38.65
37.38
34.9
31.27
26.81
21.99
17.24
12.82
8.7
4.62
0.24
-4.7
-10.2
-16.06
-21.91
-27.39
-32.24
-36.47
-40.29
-44.1
-48.41
-53.7
-60.22
-67.85
-75.83
-82.79
-86.97
-86.7
-81.01
-69.97
-54.83
-37.54
-20.19
-4.42
8.92
19.69
28.1
34.39
38.68
40.99
41.43
40.32
38.24
35.9
33.94
32.84
32.76
33.6
35.06
36.75
38.31
39.46
40.06
40.11
39.63
38.67
37.2
35.15
32.43
29.0
24.94
20.46
15.82
11.26
6.89
2.66
-1.65
-6.28
-11.4
-17.0
-22.84
-28.57
-33.81
-38.32
-42.14
-45.58
-49.13
-53.4
-58.91
-65.92
-74.31
-83.34
-91.67
-97.49
-99.01
-94.96
-85.07
-70.27
-52.41
-33.72
-16.18
-1.08
11.08
20.42
27.32
32.17
35.22
36.68
36.82
36.02
34.77
33.61
32.98
33.11
34.03
35.58
37.49
39.5
41.41
43.12
44.5
45.47
45.84
45.42
44.04
41.65
38.31
34.23
29.66
24.86
20.06
15.43
11.03
6.82
2.61
-1.85
-6.79
-12.3
-18.27
-24.37
-30.2
-35.43
-39.95
-43.95
-47.84
-52.18
-57.58
-64.47
-72.91
-82.4
-91.75
-99.18
-102.68
-100.61
-92.28
-78.21
-60.07
-40.16
-20.77
-3.61
10.41
21.11
28.77
33.81
36.66
37.68
37.31
36.06
34.51
33.22
32.58
32.74
33.63
35.03
36.72
38.56
40.53
42.59
44.65
46.45
47.62
47.74
46.48
43.71
39.6
34.58
29.22
24.03
19.27
14.88
10.47
5.6
-0.07
-6.56
-13.58
-20.6
-27.11
-32.78
-37.53
-41.61
-45.45
-49.67
-54.88
-61.47
-69.39
-77.92
-85.64
-90.65
-91.13
-85.88
-74.81
-58.97
-40.29
-21.02
-3.11
12.11
24.06
32.71
38.32
41.22
41.82
40.56
38.0
34.87
31.91
29.78
28.86
29.22
30.63
32.72
35.16
37.69
40.14
42.29
43.78
44.19
43.11
40.41
36.27
31.19
25.74
20.35
15.17
10.07
4.75
-1.05
-7.43
-14.3
-21.36
-28.24
-34.64
-40.47
-45.94
-51.6
-58.17
-66.14
-75.42
-85.05
-93.28
-97.94
-97.15
-89.95
-76.61
-58.57
-37.99
-17.13
2.15
18.65
31.82
41.6
48.19
51.9
53.19
52.58
50.75
48.38
46.12
44.45
43.56
43.42
43.89
44.79
46.05
47.67
49.62
51.7
53.48
54.41
53.98
51.89
48.13
43.01
37.07
30.88
24.89
19.29
13.91
8.37
2.21
-4.79
-12.46
-20.28
-27.57
-33.83
-38.94
-43.21
-47.31
-51.98
-57.9
-65.46
-74.51
-84.23
-93.06
-98.95
-99.85
-94.37
-82.3
-64.71
-43.67
-21.61
-0.68
17.63
32.58
44.01
52.13
57.29
59.88
60.31
59.04
56.61
53.7
51.04
49.26
48.72
49.4
50.93
52.8
54.59
56.08
57.33
58.4
59.21
59.46
58.66
56.42
52.61
47.47
41.55
35.49
29.77
24.59
19.81
15.08
9.99
4.26
-2.12
-8.87
-15.52
-21.64
-27.0
-31.72
-36.28
-41.35
-47.61
-55.5
-64.99
-75.43
