0
-40.0
-43.17
-46.5
-50.52
-55.76
-62.53
-70.55
-78.7
-85.09
-87.51
-84.19
-74.46
-59.15
-40.33
-20.61
-2.39
12.77
24.27
32.28
37.3
39.87
40.44
39.42
37.39
35.02
33.04
31.98
32.03
32.96
34.25
35.37
36.02
36.2
36.13
36.0
35.76
35.1
33.58
30.91
27.14
22.7
18.2
14.13
10.66
7.55
4.35
0.6
-3.86
-8.86
-13.94
-18.59
-22.48
-25.64
-28.4
-31.32
-35.02
-39.94
-46.21
-53.44
-60.63
-66.23
-68.53
-66.12
-58.5
-46.3
-31.14
-15.13
-0.23
12.2
21.64
28.11
31.9
33.32
32.65
30.25
26.73
22.92
19.69
17.72
17.26
18.05
19.54
21.04
22.03
22.29
21.91
21.14
20.26
19.39
18.38
16.89
14.5
10.88
6.08
0.53
-5.06
-10.03
-13.99
-17.06
-19.72
-22.62
-26.27
-30.92
-36.51
-42.73
-48.95
-54.23
-57.32
-56.97
-52.3
-43.27
-30.82
-16.7
-2.89
8.94
17.86
23.68
26.72
27.5
26.47
23.97
20.35
16.0
11.5
7.5
4.59
3.13
3.12
4.17
5.63
6.79
7.11
6.37
4.69
2.36
-0.29
-3.05
-5.91
-8.95
-12.32
-16.12
-20.46
-25.48
-31.21
-37.46
-43.6
-48.54
-50.93
-49.6
-44.05
-34.69
-22.76
-9.93
2.28
12.77
21.01
26.82
30.15
30.99
29.42
25.78
20.8
15.49
10.92
7.84
6.48
6.47
7.03
7.31
6.72
5.11
2.74
0.08
-2.47
-4.8
-7.11
-9.81
-13.38
-18.19
-24.4
-31.84
-39.92
-47.52
-53.18
-55.38
-53.07
-46.07
-35.2
-22.05
-8.47
3.99
14.35
22.24
27.64
30.58
31.03
29.03
24.88
19.31
13.32
7.96
3.95
1.43
-0.02
-1.15
-2.7
-5.04
-8.14
-11.64
-15.12
-18.41
-21.62
-25.18
-29.65
-35.51
-43.06
-52.31
-62.85
-73.75
-83.52
-90.43
-92.76
-89.41
-80.24
-66.14
-48.79
-30.13
-11.82
5.08
20.11
33.21
44.4
53.55
60.45
64.93
67.11
67.44
66.68
65.59
64.64
63.86
62.82
60.97
57.89
53.55
48.27
42.56
36.83
31.26
25.77
20.07
13.83
6.68
-1.66
-11.31
-21.98
-32.82
-42.39
-48.88
-50.62
-46.7
-37.36
-23.99
-8.71
6.33
19.47
29.91
37.65
43.05
46.57
48.41
48.61
47.15
44.21
40.26
36.01
32.23
29.43
27.72
26.78
26.01
24.82
22.89
20.17
16.88
13.29
9.57
5.7
1.51
-3.19
-8.6
-14.8
-21.83
-29.66
-38.08
-46.56
-54.12
-59.38
-60.84
-57.39
-48.72
-35.63
-19.83
-3.47
11.46
23.69
32.82
39.16
43.26
45.64
46.51
45.92
43.99
41.02
37.56
34.21
31.4
29.31
27.79
26.59
25.44
24.13
22.45
20.24
17.3
13.56
9.1
4.12
-1.08
-6.29
-11.39
-16.41
-21.53
-27.05
-33.34
-40.7
-49.04
-57.59
-64.81
-68.75
-67.62
-60.6
-48.21
-32.2
-14.97
1.29
15.13
26.12
34.45
40.55
44.65
46.83
47.16
45.95
43.89
41.79
40.36
39.83
39.95
40.08
39.58
38.12
35.79
33.04
30.38
28.08
26.03
23.77
20.69
16.31
10.55
3.73
-3.48
-10.32
-16.16
-20.79
-24.41
-27.61
-31.16
-35.86
-42.25
-50.35
-59.48
-68.19
-74.5
-76.45
-72.71
-63.1
-48.7
-31.52
-13.8
2.58
16.55
27.78
36.45
42.86
47.27
49.89
50.96
50.89
50.21
49.45
48.98
48.85
48.9
48.79
48.31
47.45
46.47
45.67
45.2
44.93
44.41
43.11
40.73
37.29
33.15
28.81
24.62
20.66
16.82
12.88
8.74
4.44
0.15
-3.98
-7.88
-11.59
-15.26
-19.02
-23.02
-27.3
-31.81
-36.4
-40.84
-44.94
-48.6
-51.92
-55.23
-59.01
-63.79
-69.93
-77.38
-85.44
-92.69
-97.18
-96.92
-90.54
-77.89
-60.25
-39.94
-19.66
-1.6
13.01
24.02
31.96
37.57
41.43
43.88
45.13
45.5
45.4
45.34
45.68
46.52
47.7
48.82
49.49
49.43
48.58
47.15
45.46
43.8
42.27
40.73
38.79
36.03
32.23
27.46
22.1
16.72
11.84
7.69
4.18
0.93
-2.54
-6.56
-11.23
-16.41
-21.76
-26.93
-31.67
-35.91
-39.7
-43.23
-46.75
-50.61
-55.25
-61.06
-68.13
-75.9
-83.04
-87.67
-87.86
-82.39
-71.24
-55.68
-37.8
-19.82
-3.47
10.31
21.31
29.73
35.84
39.87
41.98
42.44
41.72
40.45
39.36
39.02
39.64
40.96
42.43
43.41
43.5
42.69
41.3
39.77
38.41
37.15
35.67
33.6
30.61
26.7
22.07
17.11
12.24
7.74
3.68
-0.13
-4.01
-8.32
-13.15
-18.35
-23.46
-28.0
-31.68
-34.56
-37.07
-39.76
-43.24
-47.88
-53.87
-61.11
-69.11
-76.87
-82.89
-85.43
-82.99
-74.95
-61.83
-45.22
-27.27
-9.99
5.21
17.7
27.43
34.59
39.4
42.0
42.66
41.81
40.08
38.18
36.73
36.02
36.08
36.63
37.33
37.83
37.95
37.7
37.22
36.67
36.04
35.17
33.7
31.27
27.7
23.14
18.08
13.14
8.81
5.23
2.12
-1.08
-4.86
-9.46
-14.71
-20.15
-25.23
-29.59
-33.17
-36.21
-39.13
-42.46
-46.65
-52.03
-58.66
-66.13
-73.41
-78.97
-81.01
-78.06
-69.53
-55.99
-39.08
-21.04
-3.95
10.68
22.19
30.56
36.09
39.09
39.86
38.73
36.3
33.34
30.67
28.88
28.15
28.3
28.93
29.65
30.24
30.63
30.78
30.63
30.06
28.89
27.02
24.43
21.21
17.51
13.52
9.4
5.27
1.14
-3.04
-7.33
-11.72
-16.05
-20.04
-23.52
-26.51
-29.3
-32.43
-36.48
-41.84
-48.5
-55.86
-62.68
-67.36
-68.27
-64.34
-55.51
-42.77
-27.91
-12.88
0.75
12.15
21.12
27.75
32.12
34.18
33.92
31.62
27.98
24.01
20.68
18.63
17.95
18.28
19.05
19.77
20.2
20.34
20.24
19.92
19.21
17.85
15.63
12.47
8.5
3.96
-0.8
-5.49
-9.92
-14.07
-18.07
-22.22
-26.95
-32.67
-39.55
-47.35
-55.2
-61.68
-65.11
-64.08
-57.95
-47.11
-32.91
-17.25
-2.05
11.24
21.82
29.46
34.28
36.47
36.29
34.0
30.07
25.18
20.18
15.96
13.16
12.04
12.36
13.55
14.87
15.67
15.51
14.2
11.77
8.44
4.48
0.22
-4.09
-8.36
-12.67
-17.27
-22.54
-28.79
-36.14
-44.27
-52.3
-58.78
-62.01
-60.5
-53.55
-41.64
-26.38
-10.02
5.23
17.87
27.35
33.87
37.96
40.02
40.23
38.66
35.47
31.15
26.47
22.28
19.21
17.49
16.87
16.82
16.71
16.03
14.53
12.21
9.24
5.86
2.28
-1.44
-5.32
-9.53
-14.27
-19.78
-26.28
-33.8
-42.09
-50.38
-57.37
-61.4
-60.91
-55.02
-43.93
-28.99
-12.32
3.85
17.78
28.63
36.38
41.43
44.26
45.16
44.31
41.88
38.31
34.25
30.4
27.39
25.49
24.61
24.38
24.3
23.91
22.91
21.22
18.88
15.96
12.53
8.59
4.15
-0.75
-6.07
-11.81
-18.1
-25.19
-33.31
-42.3
-51.29
-58.69
-62.54
-61.15
-53.83
-41.27
-25.35
-8.53
6.94
19.63
29.07
35.55
39.69
42.03
42.9
42.43
40.75
38.08
34.83
31.51
28.63
26.53
25.31
24.78
24.56
24.19
23.28
21.59
19.07
15.77
11.8
7.34
2.55
-2.39
-7.38
-12.44
-17.76
-23.7
-30.68
-38.87
-47.88
-56.63
-63.37
-66.19
-63.61
-55.22
-41.88
-25.51
-8.49
7.05
19.76
29.2
35.6
39.56
41.63
42.26
41.78
40.48
38.71
36.78
34.92
33.21
31.61
30.03
28.44
26.94
25.68
24.68
23.77
22.47
20.19
16.5
11.33
5.05
-1.63
-7.98
-13.48
-18.09
-22.18
-26.44
-31.64
-38.34
-46.54
-55.4
-63.35
-68.38
-68.67
-63.31
-52.62
-38.08
-21.8
-5.82
8.39
20.09
29.16
35.71
39.9
41.91
41.98
40.57
38.32
35.94
33.96
32.69
32.08
31.8
31.39
30.51
29.03
27.13
25.15
23.36
21.76
20.01
17.54
13.84
8.73
2.49
-4.21
-10.63
-16.21
-20.83
-24.79
-28.68
-33.18
-38.83
-45.76
-53.61
-61.36
-67.51
-70.33
-68.46
-61.34
-49.49
-34.42
-18.14
-2.57
10.96
21.84
30.01
35.68
39.08
40.4
39.92
38.13
35.69
33.36
31.71
31.01
31.06
31.4
31.45
30.78
29.28
27.16
24.81
22.6
20.63
18.67
16.24
12.84
8.21
2.46
-3.92
-10.31
-16.15
-21.18
-25.47
-29.47
-33.79
-39.06
-45.71
-53.64
-62.06
-69.48
-74.01
-73.9
-68.17
-56.99
-41.68
-24.25
-6.85
8.82
21.8
31.75
38.84
43.34
45.54
45.71
44.2
41.58
38.58
35.98
34.35
33.84
34.11
34.46
34.19
32.9
30.71
28.12
25.71
23.74
21.98
19.77
16.43
11.6
5.49
-1.21
-7.71
-13.4
-18.07
-21.94
-25.44
-29.12
-33.48
-38.96
-45.82
-53.96
-62.61
-70.3
-75.12
-75.22
-69.48
-58.02
-42.16
-24.04
-5.99
10.15
23.31
33.18
39.89
43.78
45.14
44.34
41.9
38.58
35.25
32.69
31.29
30.95
31.15
31.27
30.86
29.85
28.49
27.13
25.9
24.55
22.58
19.48
15.0
9.39
3.21
-2.81
-8.17
-12.73
-16.78
-20.89
-25.71
-31.77
-39.28
-47.92
-56.75
-64.22
-68.45
-67.83
-61.5
-49.78
-34.12
-16.64
0.48
15.5
27.45
36.0
41.28
43.63
43.46
41.3
37.85
33.95
30.4
27.82
26.43
26.04
26.19
26.33
26.09
25.36
24.23
22.86
21.25
19.21
16.43
12.69
7.95
2.47
-3.36
-9.14
-14.56
-19.52
-24.09
-28.58
-33.46
-39.31
-46.51
-54.9
-63.48
-70.49
-73.78
-71.58
-63.22
-49.4
-32.0
-13.43
4.1
19.1
30.9
39.42
44.85
47.41
47.34
45.02
41.17
36.75
32.81
30.15
29.07
29.27
30.0
30.44
30.03
28.74
26.93
25.08
23.47
21.95
19.99
17.01
12.59
6.74
-0.11
-7.24
-13.94
-19.72
-24.47
-28.49
-32.4
-36.94
-42.71
-49.96
-58.33
-66.71
-73.37
-76.33
-73.97
-65.61
-51.82
-34.34
-15.52
2.34
17.62
29.58
38.21
43.85
46.86
47.51
46.08
43.05
39.22
35.59
33.0
31.88
32.13
33.1
33.98
34.11
33.21
31.47
29.32
27.18
25.19
23.11
20.43
16.6
11.3
4.68
-2.68
-9.92
-16.27
-21.32
-25.19
-28.45
-31.92
-36.33
-42.14
-49.38
-57.59
-65.71
-72.23
-75.4
-73.7
-66.39
-53.87
-37.66
-19.95
-2.94
11.78
23.49
32.14
38.05
41.52
42.73
41.89
39.47
36.22
33.08
30.86
29.96
30.24
31.12
31.97
32.25
31.81
30.8
29.54
28.23
26.89
25.23
22.85
19.33
14.52
8.56
1.94
-4.72
-10.83
-16.05
-20.42
-24.24
-28.06
-32.41
-37.75
-44.33
-52.07
-60.38
-68.0
-73.18
-74.1
-69.51
-59.24
-44.38
-26.98
-9.4
6.4
19.3
28.93
35.43
39.07
40.07
38.71
35.51
31.34
27.26
24.29
22.97
23.19
24.33
25.48
25.92
25.35
23.98
22.3
20.75
19.46
18.17
16.31
13.36
9.06
3.65
-2.32
-8.09
-13.08
-17.08
-20.32
-23.34
-26.8
-31.28
-37.11
-44.22
-52.09
-59.63
-65.33
-67.53
-64.91
-56.99
-44.4
-28.77
-12.17
3.43
16.65
26.84
33.89
37.94
39.26
38.17
35.23
31.21
27.02
23.47
21.05
19.87
19.74
20.28
21.12
21.96
22.53
22.64
22.05
20.59
18.12
14.64
10.22
5.1
-0.42
-5.97
-11.24
-16.01
-20.39
-24.75
-29.73
-35.89
-43.4
-51.63
-59.11
-63.86
-64.05
-58.63
-47.83
-33.1
-16.64
-0.68
13.12
23.89
31.53
36.25
38.41
38.29
36.2
32.67
28.44
24.34
21.07
19.01
18.12
18.07
18.41
18.75
18.78
18.29
17.06
14.92
11.81
7.79
3.1
-1.91
-6.91
-11.7
-16.24
-20.71
-25.48
-31.05
-37.83
-45.86
-54.41
-61.98
-66.54
-66.19
-59.9
-48.02
-32.21
-14.89
1.54
15.38
25.87
33.06
37.38
39.37
39.47
38.09
35.66
32.67
29.62
26.9
24.78
23.41
22.78
22.77
23.07
23.24
22.79
21.35
18.77
15.16
10.83
6.08
1.16
-3.83
-8.9
-14.1
-19.56
-25.43
-31.96
-39.31
-47.3
-55.16
-61.52
-64.62
-62.99
-55.97
-44.05
-28.77
-12.27
3.4
16.75
27.1
34.39
38.94
41.16
41.44
40.21
37.92
35.16
32.45
30.2
28.63
27.75
27.37
27.24
27.05
26.54
25.46
23.59
20.79
17.04
12.5
7.44
2.22
-2.83
-7.57
-12.07
-16.58
-21.55
-27.47
-34.68
-43.13
-52.11
-60.19
-65.47
-66.11
-61.0
-50.24
-35.19
-18.08
-1.32
13.24
24.57
32.55
37.58
40.26
41.09
40.48
38.76
36.33
33.6
30.97
28.76
27.13
26.11
25.56
25.27
24.92
24.19
22.8
20.55
17.38
13.4
8.82
3.9
-1.17
-6.22
-11.19
-16.08
-20.99
-26.21
-32.11
-38.98
-46.64
-54.24
-60.25
-62.84
-60.53
-52.76
-40.23
-24.67
-8.29
6.84
19.36
28.66
34.81
38.22
39.4
38.87
37.12
34.71
32.19
30.02
28.47
27.58
27.11
26.76
26.24
25.42
24.35
23.13
21.78
20.07
17.62
14.06
9.2
3.28
-3.16
-9.4
-14.9
-19.45
-23.34
-27.2
-31.79
-37.72
-45.14
-53.46
-61.36
-66.99
-68.52
-64.7
-55.42
-41.76
-25.68
-9.37
5.36
17.41
26.47
32.63
36.2
37.52
36.98
35.09
32.55
30.09
28.29
27.42
27.39
27.85
28.34
28.52
28.24
27.49
26.31
24.65
22.36
19.2
14.99
9.8
3.94
-2.07
-7.7
-12.6
-16.78
-20.59
-24.58
-29.35
-35.32
-42.51
-50.44
-57.98
-63.58
-65.56
-62.62
-54.41
-41.69
-26.23
-10.26
4.23
15.96
24.57
30.32
33.72
35.23
35.13
33.75
31.52
29.05
26.96
25.66
25.2
25.36
25.76
26.11
26.23
26.09
25.58
24.53
22.7
19.9
16.06
11.34
6.01
0.44
-5.01
-10.07
-14.63
-18.77
-22.85
-27.42
-33.08
-40.16
-48.34
-56.5
-62.83
-65.38
-62.72
-54.49
-41.59
-25.93
-9.73
5.13
17.49
27.01
33.81
38.17
40.3
40.39
38.72
35.89
32.78
30.25
28.9
28.75
29.29
29.69
29.28
27.83
25.68
23.42
21.5
19.99
18.41
16.12
12.59
7.72
1.86
-4.37
-10.3
-15.48
-19.78
-23.34
-26.56
-29.99
-34.26
-39.88
-46.91
-54.8
-62.27
-67.52
-68.75
-64.79
-55.48
-41.83
-25.69
-9.18
5.85
18.32
27.85
34.6
38.93
41.15
41.51
40.33
38.13
35.62
33.54
32.38
32.24
32.74
33.25
33.19
32.26
30.56
28.45
26.36
24.49
22.67
20.52
17.55
13.47
8.36
2.65
-3.08
-8.24
-12.61
-16.31
-19.77
-23.6
-28.38
-34.46
-41.84
-49.98
-57.77
-63.7
-66.15
-63.93
-56.67
-45.05
-30.66
-15.45
-1.22
10.84
20.21
26.88
31.06
32.98
32.85
31.04
28.2
25.14
22.73
21.54
21.62
22.53
23.58
24.14
23.92
23.08
21.98
20.96
20.03
18.89
17.06
14.14
10.06
5.07
-0.34
-5.7
-10.69
-15.18
-19.3
-23.36
-27.81
-33.1
-39.51
-46.76
-53.88
-59.28
-61.17
-58.24
-50.22
-38.07
-23.65
-9.11
3.82
14.15
21.66
26.6
29.29
29.96
28.72
25.8
21.73
17.31
13.48
10.99
10.14
10.73
12.13
13.59
14.49
14.53
13.71
12.24
10.31
8.04
5.43
2.48
-0.85
-4.52
-8.54
-12.95
-17.92
-23.66
-30.25
-37.42
-44.36
-49.71
-51.89
-49.64
-42.55
-31.3
-17.52
-3.27
9.65
20.13
27.87
33.0
35.77
36.27
34.49
30.61
25.27
19.58
14.72
11.63
10.54
10.97
11.97
12.59
12.15
10.5
7.87
4.66
1.23
-2.21
-5.63
-9.15
-12.97
-17.41
-22.8
-29.41
-37.21
-45.64
-53.51
-59.14
-60.87
-57.59
-49.17
-36.64
-21.79
-6.61
7.22
18.76
27.65
33.9
37.5
38.46
36.85
33.09
28.07
22.98
18.92
16.57
15.89
16.23
16.64
16.31
14.81
12.22
8.95
5.49
2.22
-0.77
-3.65
-6.79
-10.7
-15.86
-22.64
-31.09
-40.81
-50.77
-59.38
-64.68
-64.95
-59.22
-47.7
-31.86
-13.98
3.48
18.56
30.22
38.3
43.27
45.73
46.23
45.12
42.72
39.43
35.8
32.44
29.86
28.28
27.55
27.19
26.58
25.18
22.69
19.12
14.8
10.16
5.57
1.22
-2.99
-7.37
-12.32
-18.24
-25.42
-33.91
-43.5
-53.55
-62.86
-69.77
-72.46
-69.52
-60.45
-46.05
-28.24
-9.55
7.66
21.82
32.4
39.7
44.4
47.14
48.3
48.09
46.73
44.54
41.97
39.41
37.09
35.05
33.25
31.64
30.27
29.2
28.3
27.23
25.44
22.44
17.92
11.97
4.97
-2.52
-9.91
-16.81
-23.0
-28.66
-34.3
-40.66
-48.33
-57.29
-66.53
-74.04
-77.37
-74.56
-64.94
-49.51
-30.59
-11.0
6.89
21.7
33.09
41.4
47.12
50.59
52.01
51.57
49.69
47.03
44.39
42.45
41.53
41.5
41.81
41.75
40.79
38.75
35.91
32.81
29.95
27.5
25.21
22.47
18.62
13.28
6.55
-0.97
-8.41
-15.03
-20.45
-24.79
-28.59
-32.56
-37.35
-43.39
-50.84
-59.37
-68.12
-75.61
-80.01
-79.57
-73.3
-61.33
-45.01
-26.51
-8.09
8.43
22.07
32.56
40.09
45.0
47.65
48.33
47.49
45.66
43.48
41.56
40.32
39.92
40.23
40.93
41.62
42.0
41.9
41.24
39.99
38.07
35.32
31.61
26.99
21.71
16.18
10.82
5.88
1.28
-3.26
-8.05
-13.19
-18.51
-23.64
-28.22
-32.1
-35.44
-38.67
-42.37
-47.12
-53.28
-60.75
-68.77
-75.88
-80.14
-79.74
-73.59
-61.78
-45.7
-27.54
-9.58
6.4
19.43
29.32
36.31
40.74
42.92
43.17
41.97
39.96
37.89
36.46
36.03
36.55
37.6
38.62
39.12
38.92
38.11
36.98
35.68
34.18
32.2
29.43
25.74
21.33
16.64
12.18
8.26
4.87
1.66
-1.85
-6.02
-10.88
-16.13
-21.27
-25.81
-29.49
-32.43
-35.05
-38.02
-42.0
-47.51
-54.61
-62.72
-70.57
-76.33
-78.16
-74.7
-65.66
-51.94
-35.4
-18.26
-2.44
10.81
21.09
28.49
33.37
36.06
36.83
35.98
33.96
31.42
29.05
27.39
26.69
26.82
27.4
28.02
28.51
28.88
29.24
29.64
29.81
29.37
27.88
25.17
21.44
17.17
12.95
9.2
5.99
3.06
-0.06
-3.78
-8.28
-13.39
-18.69
-23.7
-28.04
-31.68
-34.87
-38.13
-42.01
-46.98
-53.21
-60.37
-67.53
-73.25
-75.8
-73.73
-66.41
-54.28
-38.85
-22.18
-6.29
7.42
18.27
26.19
31.44
34.28
34.95
33.72
31.09
27.73
24.49
22.07
20.91
21.03
22.12
23.68
25.27
26.53
27.26
27.33
26.68
25.3
23.27
20.76
17.98
15.06
11.94
8.45
4.39
-0.26
-5.3
-10.41
-15.22
-19.53
-23.33
-26.82
-30.26
-33.97
-38.28
-43.49
-49.74
-56.75
-63.66
-69.02
-71.18
-68.76
-61.24
-49.19
-34.07
-17.84
-2.32
11.17
21.94
29.77
34.75
37.07
37.03
35.08
31.89
28.31
25.22
23.32
22.95
23.92
25.63
27.3
28.26
28.21
27.27
25.84
24.31
22.79
21.09
18.79
15.52
11.14
5.88
0.21
-5.32
-10.29
-14.52
-18.11
-21.36
-24.71
-28.64
-33.54
-39.66
-46.88
-54.56
-61.54
-66.26
-67.14
-63.19
-54.29
-41.35
-26.0
-10.1
4.7
17.27
26.98
33.6
37.08
37.6
35.55
31.68
26.97
22.5
19.12
17.28
16.9
17.52
18.49
19.25
19.51
19.22
18.42
17.13
15.3
12.77
9.45
5.42
0.9
-3.77
-8.27
-12.4
-16.18
-19.79
-23.66
-28.35
-34.26
-41.41
-49.11
-55.89
-59.88
-59.37
-53.49
-42.63
-28.3
-12.66
2.17
14.7
24.24
30.77
34.55
35.91
35.08
32.32
28.05
22.94
17.86
13.65
10.99
10.06
10.55
11.77
12.85
13.13
12.31
10.52
8.12
5.49
2.75
-0.22
-3.73
-8.03
-13.24
-19.33
-26.22
-33.74
-41.55
-48.89
-54.5
-56.85
-54.63
-47.3
-35.44
-20.66
-5.08
9.4
21.53
30.84
37.35
41.14
42.22
40.56
36.44
30.63
24.34
18.88
15.19
13.5
13.36
13.84
13.98
13.17
11.34
8.77
5.94
3.16
0.46
-2.51
-6.27
-11.32
-18.0
-26.29
-35.75
-45.47
-54.11
-60.07
-61.82
-58.35
-49.55
-36.34
-20.41
-3.81
11.68
24.9
35.38
43.05
47.95
50.04
49.28
45.85
40.43
34.14
28.32
24.03
21.74
21.13
21.33
21.28
20.29
18.19
15.3
12.16
9.11
6.14
2.86
-1.24
-6.64
-13.57
-21.97
-31.51
-41.43
-50.51
-57.13
-59.56
-56.5
-47.6
-33.79
-17.02
0.33
16.17
29.26
39.21
46.22
50.6
52.5
51.99
49.19
44.63
39.22
34.07
30.12
27.85
27.07
27.13
27.1
26.2
24.04
20.72
16.63
12.3
8.06
3.95
-0.24
-4.89
-10.35
-16.92
-24.79
-33.93
-43.86
-53.52
-61.22
-64.96
-63.07
-54.82
-40.86
-23.13
-4.26
13.21
27.54
38.08
45.07
49.17
51.07
51.22
49.82
47.05
43.21
38.82
34.6
31.23
29.14
28.3
28.16
27.89
26.7
24.18
20.4
15.83
11.04
6.4
1.93
-2.64
-7.69
-13.5
-20.22
-27.9
-36.55
-46.0
-55.67
-64.32
-70.18
-71.32
-66.36
-55.12
-38.84
-19.83
-0.82
15.9
28.97
38.15
43.95
47.24
48.83
49.27
48.88
47.85
46.34
44.52
42.54
40.52
38.48
36.4
34.26
32.08
29.92
27.77
25.51
22.84
19.36
14.77
9.04
2.47
-4.43
-11.08
-17.1
-22.49
-27.64
-33.22
-39.96
-48.29
-57.9
-67.61
-75.39
-78.97
-76.51
-67.39
-52.55
-34.19
-15.05
2.54
17.19
28.62
37.26
43.69
48.21
50.9
51.7
50.78
48.64
46.0
43.6
41.91
41.03
40.66
40.28
39.32
37.45
34.64
31.16
27.5
24.04
20.94
17.99
14.7
10.58
5.34
-0.87
-7.53
-13.89
-19.36
-23.7
-27.13
-30.2
-33.61
-38.0
-43.74
-50.87
-58.96
-67.01
-73.51
-76.69
-75.05
-67.86
-55.49
-39.43
-21.78
-4.68
10.3
22.38
31.44
37.78
41.82
43.89
44.37
43.6
42.08
40.35
38.93
38.12
38.01
38.39
38.89
39.13
38.88
38.1
36.88
35.28
33.22
30.51
26.98
22.64
17.78
12.87
8.33
4.31
0.63
-3.09
-7.24
-11.99
-17.21
-22.53
-27.55
-32.0
-35.86
-39.41
-43.24
-48.05
-54.38
-62.25
-70.84
-78.5
-83.05
-82.54
-75.94
-63.58
-47.03
-28.64
-10.73
4.97
17.62
27.18
34.06
38.81
41.85
43.48
43.96
43.55
42.66
41.7
41.01
40.77
40.91
41.2
41.44
41.49
41.35
41.11
40.72
40.05
38.85
36.91
34.2
30.91
27.37
23.88
20.62
17.6
14.67
11.6
8.24
4.55
0.64
-3.29
-7.07
-10.61
-13.98
-17.38
-21.06
-25.19
-29.74
-34.49
-39.07
-43.19
-46.68
-49.67
-52.57
-55.98
-60.54
-66.65
-74.19
-82.31
-89.42
-93.5
-92.71
-86.0
-73.56
-56.82
-38.01
-19.48
-3.02
10.42
20.76
28.39
33.83
37.45
39.49
40.11
39.66
38.61
37.6
37.12
37.43
38.4
39.59
40.51
40.79
40.37
39.46
38.39
37.37
36.35
34.97
32.82
29.58
25.3
20.36
15.4
10.99
7.46
4.68
2.21
-0.55
-4.04
-8.44
-13.55
-18.97
-24.23
-28.96
-33.05
-36.61
-39.96
-43.57
-47.96
-53.58
-60.5
-68.26
-75.7
-81.11
-82.72
-79.25
-70.47
-57.3
-41.49
-25.04
-9.66
3.62
14.35
22.51
28.21
31.61
32.99
32.82
31.74
30.49
29.64
29.5
30.01
30.99
32.13
33.23
34.17
34.88
35.27
35.18
34.39
32.67
29.91
26.21
21.81
17.13
12.55
8.35
4.58
1.07
-2.49
-6.37
-10.68
-15.31
-20.02
-24.49
-28.47
-31.87
-34.85
-37.8
-41.3
-45.9
-51.9
-58.96
-66.05
-71.5
-73.52
-70.73
-62.7
-50.1
-34.49
-17.82
-1.92
11.87
22.83
30.76
35.79
38.25
38.58
37.29
34.96
32.24
29.72
27.93
27.15
27.4
28.45
29.91
31.37
32.52
33.16
33.16
32.41
30.82
28.36
25.1
21.24
17.06
12.82
8.66
4.58
0.44
-3.93
-8.62
-13.62
-18.75
-23.75
-28.3
-32.29
-35.81
-39.3
-43.43
-48.9
-56.09
-64.65
-73.38
-80.29
-83.15
-80.26
-71.09
-56.57
-38.74
-20.1
-2.78
11.91
23.49
32.09
38.0
41.44
42.63
41.9
39.8
37.06
34.44
32.5
31.58
31.71
32.67
34.1
35.57
36.68
37.15
36.83
35.73
33.88
31.35
28.17
24.4
20.09
15.3
10.11
4.6
-1.11
-6.86
-12.4
-17.51
-22.08
-26.17
-30.06
-34.16
-38.9
-44.67
-51.63
-59.58
-67.76
-74.77
-78.78
-78.05
-71.51
-59.28
-42.73
-24.08
-5.72
10.45
23.37
32.78
38.91
42.16
42.95
41.75
39.16
35.94
32.93
30.77
29.75
29.73
30.24
30.71
30.7
30.13
29.17
28.13
27.12
25.94
24.1
21.07
16.51
10.56
3.75
-3.17
-9.5
-14.86
-19.28
-23.16
-27.12
-31.83
-37.81
-45.25
-53.72
-62.09
-68.62
-71.34
-68.68
-60.04
-46.15
-28.88
-10.65
6.27
20.32
30.9
38.07
42.24
43.86
43.29
40.96
37.44
33.51
30.0
27.5
26.23
25.95
26.15
26.34
26.14
25.45
24.24
22.48
20.05
16.82
12.68
7.74
2.31
-3.27
-8.7
-13.91
-19.04
-24.46
-30.61
-37.82
-46.0
-54.41
-61.66
-65.84
-65.2
-58.73
-46.67
-30.53
-12.67
4.49
19.06
30.13
37.6
41.91
43.56
42.98
40.43
36.25
30.96
25.33
20.24
16.47
14.43
14.07
14.84
15.95
16.57
16.1
14.31
11.33
7.5
3.21
-1.2
-5.61
-10.05
-14.7
-19.84
-25.77
-32.79
-40.98
-49.96
-58.68
-65.43
-68.22
-65.42
-56.43
-42.03
-24.25
-5.73
11.15
24.87
34.94
41.61
45.4
46.71
45.83
43.03
38.79
33.88
29.18
25.49
23.27
22.53
22.83
23.41
23.49
22.43
19.96
16.18
11.5
6.4
1.31
-3.6
-8.35
-13.17
-18.36
-24.26
-31.27
-39.61
-49.13
-58.99
-67.57
-72.75
-72.52
-65.71
-52.48
-34.44
-14.17
5.54
22.45
35.3
43.91
48.81
50.91
51.04
49.85
47.76
45.04
41.97
38.84
36.03
33.83
32.4
31.67
31.31
30.83
29.68
27.38
23.75
18.85
13.01
6.66
0.21
-6.08
-12.11
-17.98
-23.92
-30.27
-37.47
-45.83
-55.22
-64.72
-72.59
-76.55
-74.59
-65.71
-50.48
-30.91
-9.83
10.05
26.85
39.81
49.03
55.04
58.33
59.24
58.08
55.36
51.86
48.49
45.96
44.55
43.96
43.54
42.64
40.91
38.45
35.68
33.03
30.64
28.23
25.19
20.91
15.07
7.88
-0.03
-7.78
-14.6
-20.16
-24.62
-28.64
-33.15
-39.05
-46.91
-56.63
-67.32
-77.19
-83.92
-85.19
-79.5
-66.76
-48.48
-27.32
-6.28
12.24
26.99
37.86
45.4
50.24
52.72
52.95
51.12
47.83
44.09
41.02
39.4
39.28
40.02
40.61
40.21
38.48
35.69
32.51
29.55
27.06
24.81
22.22
18.66
13.79
7.66
0.8
-6.07
-12.26
-17.37
-21.46
-24.97
-28.62
-33.14
-39.1
-46.66
-55.4
-64.22
-71.41
-74.96
-73.16
-65.16
-51.42
-33.64
-14.3
4.16
19.92
32.14
40.77
46.15
48.65
48.59
46.3
42.43
37.96
33.99
31.39
30.43
30.73
31.43
31.68
31.01
29.51
27.64
25.81
24.1
22.12
19.22
14.86
8.89
1.7
-5.92
-13.09
-19.17
-24.0
-27.94
-31.72
-36.21
-42.14
-49.73
-58.46
-67.03
-73.5
-75.84
-72.56
-63.21
-48.59
-30.57
-11.49
6.47
21.75
33.62
41.9
46.84
48.76
48.09
45.39
41.43
37.1
33.26
30.49
28.95
28.36
28.22
27.99
27.38
26.35
25.05
23.58
21.83
19.45
16.03
11.27
5.26
-1.54
-8.44
-14.84
-20.41
-25.22
-29.72
-34.54
-40.32
-47.5
-56.0
-64.99
-72.87
-77.53
-76.98
-70.1
-57.19
-39.94
-20.89
-2.56
13.26
25.84
35.21
41.79
45.9
47.73
47.42
45.37
42.29
39.09
36.6
35.23
34.92
35.12
35.08
34.18
32.21
29.44
26.47
23.88
21.87
20.17
18.06
14.77
9.87
3.51
-3.63
-10.65
-16.81
-21.8
-25.81
-29.38
-33.22
-38.06
-44.47
-52.66
-62.24
-71.97
-79.87
-83.66
-81.51
-72.73
-58.12
-39.74
-20.21
-1.9
13.64
25.8
34.67
40.63
44.04
45.19
44.34
41.94
38.67
35.34
32.75
31.38
31.29
32.04
32.9
33.14
32.33
30.51
28.14
25.78
23.77
22.04
20.06
17.21
13.0
7.38
0.75
-6.2
-12.76
-18.45
-23.15
-27.04
-30.53
-34.18
-38.58
-44.23
-51.27
-59.29
-67.17
-73.21
-75.53
-72.69
-64.18
-50.65
-33.73
-15.61
1.61
16.34
27.72
35.53
39.97
41.47
40.56
37.9
34.27
30.52
27.43
25.49
24.74
24.8
25.06
25.0
24.43
23.46
22.35
21.22
19.87
17.88
14.8
10.46
5.05
-0.92
-6.87
-12.34
-17.18
-21.54
-25.85
-30.65
-36.49
-43.59
-51.73
-59.98
-66.79
-70.33
-69.03
-62.21
-50.33
-34.93
-18.12
-1.97
11.97
22.91
30.74
35.72
38.22
38.61
37.25
34.58
31.16
27.61
24.47
22.12
20.65
19.94
19.71
19.6
19.3
18.5
16.96
14.52
11.09
6.76
1.79
-3.46
-8.63
-13.46
-17.91
-22.15
-26.59
-31.78
-38.18
-45.99
-54.75
-63.23
-69.55
-71.69
-68.11
-58.46
-43.73
-26.06
-8.0
8.23
21.26
30.69
36.8
40.18
41.39
40.9
39.12
36.58
33.83
31.4
29.61
28.49
27.79
27.17
26.39
25.39
24.22
22.91
21.32
19.18
16.14
12.02
6.88
1.04
-5.03
-10.92
-16.35
-21.29
-25.95
-30.79
-36.4
-43.29
-51.45
-60.1
-67.58
-71.77
-70.77
-63.67
-51.01
-34.6
-16.89
-0.22
13.91
24.9
32.86
38.14
41.01
41.64
40.26
37.39
33.87
30.64
28.43
27.48
27.46
27.78
27.85
27.42
26.58
25.62
24.73
23.78
22.32
19.82
15.87
10.5
4.12
-2.56
-8.87
-14.35
-18.99
-23.14
-27.42
-32.52
-38.96
-46.8
-55.45
-63.61
-69.46
-71.14
-67.35
-57.88
-43.74
-26.9
-9.71
5.86
18.57
27.99
34.28
37.78
38.86
37.92
35.45
32.17
28.83
26.07
24.22
23.27
22.93
22.87
22.84
22.69
22.29
21.53
20.18
18.05
15.01
11.13
6.66
1.93
-2.74
-7.11
-11.15
-15.0
-19.0
-23.67
-29.49
-36.66
-44.77
-52.64
-58.45
-60.29
-56.75
-47.58
-33.82
-17.55
-1.22
13.11
24.24
31.91
36.49
38.59
38.68
37.03
33.87
29.64
25.07
21.02
18.24
17.03
17.18
18.02
18.73
18.67
17.5
15.25
12.12
8.41
4.38
0.18
-4.06
-8.36
-12.8
-17.61
-23.19
-29.89
-37.9
-46.91
-55.96
-63.41
-67.34
-66.1
-58.98
-46.59
-30.71
-13.76
1.96
14.92
24.58
31.2
35.38
37.63
38.23
37.25
34.86
31.43
27.6
24.1
21.56
20.22
19.95
20.21
20.31
19.62
17.76
14.71
10.74
6.26
1.63
-2.97
-7.57
-12.35
-17.53
-23.38
-30.12
-37.91
-46.6
-55.5
-63.24
-67.98
-67.88
-61.84
-50.0
-33.84
-15.79
1.66
16.59
28.11
36.22
41.49
44.53
45.75
45.35
43.53
40.66
37.34
34.21
31.8
30.28
29.49
29.02
28.42
27.29
25.38
22.53
18.77
14.26
9.28
4.17
-0.81
-5.6
-10.38
-15.47
-21.25
-28.05
-36.1
-45.39
-55.4
-64.91
-72.04
-74.69
-71.17
-60.95
-45.04
-25.69
-5.74
12.34
26.96
37.67
44.78
48.98
50.95
51.21
50.18
48.23
45.79
43.26
40.99
39.15
37.71
36.46
35.18
33.71
31.99
30.0
27.65
24.7
20.81
15.75
9.55
2.59
-4.52
-11.19
-17.05
-22.14
-26.89
-32.0
-38.2
-45.92
-54.93
-64.1
-71.49
-74.81
-72.19
-62.91
-47.8
-29.0
-9.28
8.83
23.73
34.81
42.33
46.84
48.94
49.06
47.6
44.97
41.74
38.53
35.85
34.01
33.0
32.52
32.13
31.46
30.34
28.75
26.74
24.21
20.9
16.52
10.92
4.32
-2.71
-9.4
-15.16
-19.79
-23.66
-27.55
-32.48
-39.19
-47.76
-57.28
-65.87
-71.15
-70.95
-64.17
-51.2
-33.92
-15.0
2.87
17.74
28.73
35.88
39.77
41.06
40.33
38.04
34.67
30.81
27.13
24.21
22.41
21.73
21.87
22.33
22.63
