0
-7.93
-2.53
2.25
6.3
9.55
12.07
13.94
15.29
16.21
16.75
17.01
17.09
17.16
17.4
17.87
18.52
19.13
19.53
19.61
19.37
18.89
18.26
17.51
16.64
15.66
14.57
13.41
12.16
10.78
9.16
7.18
4.81
2.17
-0.59
-3.3
-5.79
-8.09
-10.26
-12.41
-14.68
-17.13
-19.8
-22.62
-25.41
-27.88
-29.66
-30.38
-29.77
-27.73
-24.39
-20.04
-15.11
-10.03
-5.15
-0.69
3.24
6.57
9.26
11.26
12.56
13.21
13.35
13.13
12.72
12.22
11.73
11.32
11.09
11.1
11.34
11.67
11.88
11.77
11.24
10.34
9.24
8.06
6.86
5.56
4.01
2.11
-0.11
-2.48
-4.69
-6.48
-7.7
-8.43
-8.89
-9.44
-10.36
-11.82
-13.83
-16.3
-19.09
-21.99
-24.73
-26.85
-27.82
-27.18
-24.66
-20.36
-14.78
-8.59
-2.45
3.17
8.08
12.29
15.86
18.78
20.93
22.2
22.51
21.92
20.65
18.9
16.93
14.91
13.02
11.41
10.26
9.64
9.6
10.0
10.63
11.23
11.59
11.62
11.34
10.82
10.19
9.51
8.75
7.81
6.5
4.69
2.34
-0.5
-3.62
-6.78
-9.82
-12.73
-15.6
-18.58
-21.74
-24.98
-28.07
-30.69
-32.5
-33.24
-32.72
-30.81
-27.5
-22.88
-17.22
-10.93
-4.55
1.43
6.63
10.87
14.13
16.48
18.04
18.96
19.38
19.46
19.33
19.08
18.72
18.27
17.76
17.29
17.01
17.04
17.34
17.75
17.96
17.7
16.89
15.61
14.11
12.68
11.48
10.48
9.55
8.46
7.05
5.29
3.21
0.92
-1.5
-4.01
-6.63
-9.43
-12.44
-15.67
-19.06
-22.58
-26.13
-29.57
-32.72
-35.25
-36.74
-36.78
-35.1
-31.63
-26.63
-20.57
-14.04
-7.57
-1.52
3.95
8.79
12.99
16.51
19.22
21.01
21.92
22.15
22.09
22.12
22.44
23.05
23.75
24.32
24.68
24.91
25.18
25.59
26.05
26.32
26.14
25.35
23.94
22.03
19.8
17.43
15.16
13.2
11.74
10.86
10.49
10.38
10.22
9.65
8.35
6.0
2.34
-2.73
-9.07
-16.3
-23.82
-31.04
-37.45
-42.74
-46.66
-48.96
-49.36
-47.68
-43.94
-38.51
-32.01
-25.14
-18.46
-12.28
-6.7
-1.71
2.72
6.5
9.52
11.65
12.9
13.36
13.3
13.06
13.01
13.37
14.24
15.46
16.79
17.93
18.67
18.94
18.78
18.32
17.61
16.69
15.59
14.3
12.88
11.43
10.03
8.67
7.28
5.74
3.98
2.01
-0.07
-2.09
-3.96
-5.74
-7.63
-9.86
-12.58
-15.69
-18.87
-21.66
-23.56
-24.27
-23.68
-21.84
-18.97
-15.32
-11.19
-6.88
-2.69
1.16
4.5
7.25
9.35
10.78
11.53
11.64
11.28
10.64
9.96
9.38
9.0
8.83
8.8
8.93
9.22
9.65
10.15
10.6
10.78
10.55
9.85
8.73
7.34
5.85
4.36
2.89
1.41
-0.17
-1.85
-3.56
-5.21
-6.74
-8.19
-9.68
-11.36
-13.31
-15.47
-17.72
-19.86
-21.67
-22.95
-23.49
-23.07
-21.55
-18.88
-15.16
-10.67
-5.78
-0.85
3.79
7.83
11.05
13.32
14.65
15.19
15.2
14.88
14.38
13.73
12.93
12.0
11.05
10.22
9.66
9.46
9.6
10.01
10.56
11.09
11.46
11.59
11.44
11.07
10.55
9.9
9.12
8.12
6.85
5.29
3.49
1.52
-0.58
-2.74
-4.98
-7.3
-9.68
-12.16
-14.76
-17.48
-20.23
-22.85
-25.01
-26.44
-26.93
-26.36
-24.78
-22.24
-18.84
-14.72
-10.11
-5.31
-0.68
3.45
6.9
9.55
11.38
12.39
12.6
12.1
11.08
9.8
8.58
7.69
7.31
7.51
8.23
9.33
10.57
11.7
12.5
12.8
12.57
11.9
10.94
9.85
8.77
7.8
6.96
6.2
5.37
4.3
2.81
0.86
-1.38
-3.66
-5.7
-7.35
-8.64
-9.77
-10.99
-12.49
-14.37
-16.59
-18.96
-21.12
-22.66
-23.13
-22.16
-19.66
-15.77
-10.92
-5.62
-0.36
4.49
8.69
12.06
14.53
16.01
16.52
16.1
14.83
12.83
10.29
7.48
4.72
2.35
0.66
-0.2
-0.22
0.49
1.79
3.51
5.49
7.55
9.55
11.31
12.66
13.49
13.71
13.33
12.48
11.36
10.2
9.13
8.12
6.96
5.4
3.24
0.58
-2.33
-5.12
-7.56
-9.62
-11.54
-13.62
-16.11
-19.02
-22.1
-24.97
-27.17
-28.35
-28.31
-27.02
-24.58
-21.19
-17.07
-12.47
-7.67
-2.96
1.31
4.87
7.49
9.09
9.77
9.72
9.18
8.34
7.35
6.34
5.46
4.79
4.48
4.55
4.98
5.66
6.47
7.29
8.04
8.64
9.07
9.32
9.31
9.01
8.34
7.26
5.83
4.14
2.33
0.49
-1.36
-3.28
-5.38
-7.68
-10.17
-12.78
-15.45
-18.11
-20.68
-22.97
-24.72
-25.6
-25.32
-23.75
-20.97
-17.21
-12.83
-8.22
-3.77
0.14
3.28
5.56
7.07
8.02
8.61
8.98
9.08
8.83
8.19
7.23
6.17
5.36
5.04
5.3
6.05
7.02
7.95
8.58
8.83
8.7
8.26
7.58
6.65
5.52
4.23
2.87
1.53
0.28
-0.89
-2.02
-3.18
-4.39
-5.63
-6.93
-8.31
-9.87
-11.74
-13.94
-16.37
-18.78
-20.76
-21.94
-22.02
-20.86
-18.47
-15.09
-11.03
-6.72
-2.5
1.31
4.58
7.27
9.41
11.05
12.19
12.77
12.79
12.3
11.51
10.61
9.79
9.14
8.63
8.24
7.99
8.0
8.38
9.13
10.1
11.03
11.65
11.85
11.63
11.12
10.42
9.51
8.27
6.56
4.38
1.88
-0.67
-2.99
-4.92
-6.47
-7.81
-9.15
-10.68
-12.51
-14.68
-17.19
-19.94
-22.8
-25.49
-27.7
-29.06
-29.26
-28.12
-25.63
-21.94
-17.36
-12.31
-7.19
-2.41
1.83
5.36
8.2
10.42
12.1
13.34
14.24
14.85
15.23
15.38
15.31
15.02
14.6
14.23
14.1
14.37
15.02
15.83
16.46
16.61
16.11
15.0
13.44
11.66
9.81
7.94
6.1
4.29
2.59
1.03
-0.41
-1.85
-3.44
-5.33
-7.56
-10.03
-12.59
-15.12
-17.58
-20.01
-22.49
-24.98
-27.26
-28.97
-29.67
-29.07
-27.05
-23.76
-19.48
-14.57
-9.4
-4.26
0.6
4.9
8.48
11.19
13.03
14.12
14.64
14.8
14.77
14.63
14.4
14.07
13.59
12.99
12.33
11.69
11.14
10.7
10.33
9.91
9.32
8.47
7.34
6.0
4.59
3.22
1.96
0.86
-0.11
-0.99
-1.81
-2.59
-3.37
-4.19
-5.08
-6.06
-7.11
-8.19
-9.33
-10.61
-12.16
-14.09
-16.41
-18.92
-21.24
-22.86
-23.27
-22.09
-19.28
-15.08
-10.05
-4.84
-0.0
4.07
7.24
9.59
11.26
12.39
13.07
13.35
13.27
12.87
12.21
11.37
10.47
9.67
9.19
9.18
9.66
10.46
11.25
11.71
11.64
11.04
10.09
9.0
7.88
6.73
5.5
4.11
2.6
1.04
-0.48
-1.88
-3.17
-4.32
-5.41
-6.42
-7.36
-8.32
-9.39
-10.76
-12.59
-14.92
-17.6
-20.28
-22.47
-23.73
-23.76
-22.46
-19.97
-16.54
-12.46
-8.02
-3.53
0.74
4.57
7.79
10.32
12.15
13.33
13.9
13.96
13.61
13.01
12.26
11.46
10.67
9.95
9.36
9.03
9.05
9.45
10.14
10.93
11.56
11.85
11.66
10.96
9.87
8.55
7.18
5.89
4.68
3.46
2.1
0.48
-1.41
-3.46
-5.57
-7.68
-9.85
-12.21
-14.85
-17.78
-20.81
-23.57
-25.66
-26.67
-26.33
-24.56
-21.5
-17.51
-13.01
-8.47
-4.21
-0.42
2.84
5.54
7.66
9.16
10.02
10.35
10.31
10.11
9.88
9.65
9.38
9.11
8.93
9.04
9.54
10.4
11.38
12.19
12.57
12.44
11.82
10.84
9.58
8.11
6.51
4.87
3.28
1.84
0.55
-0.65
-1.84
-3.14
-4.57
-6.13
-7.82
-9.63
-11.52
-13.49
-15.52
-17.55
-19.44
-20.94
-21.73
-21.46
-19.9
-17.03
-13.05
-8.35
-3.39
1.37
5.59
9.04
11.72
13.71
15.22
16.44
17.45
18.19
18.57
18.54
18.22
17.85
17.68
17.83
18.22
18.65
18.97
19.1
19.09
18.95
18.66
18.04
16.94
15.32
13.26
10.95
8.55
6.17
3.8
1.4
-1.05
-3.55
-6.03
-8.4
-10.61
-12.65
-14.59
-16.58
-18.74
-21.12
-23.69
-26.28
-28.71
-30.79
-32.32
-33.1
-32.89
-31.43
-28.53
-24.21
-18.78
-12.79
-6.87
-1.55
2.88
6.38
9.14
11.37
13.22
14.78
16.03
16.91
17.39
17.52
17.43
17.35
17.45
17.89
18.65
19.64
20.64
21.48
22.01
22.17
21.97
21.46
20.69
19.75
18.65
17.4
15.92
14.1
11.89
9.25
6.27
3.07
-0.26
-3.59
-6.88
-9.95
-12.7
-15.06
-17.1
-19.07
-21.21
-23.64
-26.25
-28.58
-30.11
-30.34
-29.05
-26.27
-22.27
-17.45
-12.25
-7.1
-2.37
1.7
4.99
7.52
9.38
10.68
11.51
11.91
11.98
11.84
11.64
11.55
11.62
11.94
12.53
13.37
14.47
15.75
17.04
18.11
18.7
18.63
17.82
16.4
14.59
12.69
10.97
9.55
8.38
7.34
6.29
5.1
3.74
2.17
0.34
-1.79
-4.23
-6.9
-9.65
-12.34
-14.92
-17.4
-19.78
-21.98
-23.78
-24.9
-25.08
-24.14
-22.09
-19.0
-15.01
-10.36
-5.33
-0.32
4.26
8.09
10.9
12.63
13.25
12.82
11.49
9.51
7.22
5.0
3.21
2.06
1.66
1.96
2.86
4.21
5.87
7.67
9.44
11.01
12.22
12.97
13.17
12.82
11.92
10.6
8.98
7.15
5.13
2.9
0.42
-2.24
-4.94
-7.46
-9.66
-11.47
-13.06
-14.65
-16.46
-18.58
-20.88
-23.02
-24.54
-24.97
-23.97
-21.49
-17.75
-13.26
-8.6
-4.3
-0.72
2.04
4.05
5.46
6.43
7.07
7.52
7.86
8.24
8.72
9.31
9.91
10.37
10.49
10.21
9.55
8.65
7.75
6.99
6.42
5.92
5.32
4.43
3.16
1.64
0.02
-1.49
-2.73
-3.68
-4.36
-4.78
-4.98
-4.99
-4.94
-5.0
-5.37
-6.22
-7.63
-9.56
-11.9
-14.4
-16.78
-18.64
-19.6
-19.27
-17.5
-14.28
-9.9
-4.79
0.51
5.5
9.82
13.19
15.58
17.02
17.64
17.57
16.93
15.8
14.3
12.57
10.84
9.29
8.09
7.32
7.01
7.12
7.58
8.27
9.03
9.68
10.05
9.97
9.45
8.49
7.23
5.8
4.3
2.76
1.14
-0.58
-2.45
-4.38
-6.22
-7.86
-9.3
-10.71
-12.34
-14.45
-17.12
-20.24
-23.6
-26.95
-29.99
-32.44
-33.98
-34.21
-32.8
-29.55
-24.57
-18.27
-11.28
-4.28
2.09
7.38
11.39
14.13
15.83
16.8
17.37
17.76
18.08
18.3
18.39
18.27
17.92
17.39
16.75
16.09
15.52
15.08
14.71
14.24
13.49
12.32
10.7
8.7
6.45
4.06
1.6
-0.85
-3.17
-5.25
-6.99
-8.37
-9.47
-10.39
-11.17
-11.84
-12.45
-13.04
-13.82
-14.97
-16.6
-18.7
-21.12
-23.63
-25.96
-27.85
-28.92
-28.8
-27.19
-24.02
-19.52
-14.19
-8.65
-3.46
1.0
4.58
7.24
9.05
10.11
10.61
10.75
10.81
10.98
11.38
12.07
13.05
14.31
15.77
17.28
18.68
19.82
20.62
21.14
21.41
21.4
21.01
20.13
18.76
16.99
15.03
13.07
11.19
9.42
7.64
5.71
3.47
0.84
-2.15
-5.33
-8.48
-11.37
-13.95
-16.35
-18.81
-21.58
-24.75
-28.24
-31.82
-35.2
-38.05
-40.02
-40.73
-39.87
-37.33
-33.27
-28.14
-22.53
-16.96
-11.86
-7.39
-3.63
-0.51
2.05
4.15
5.9
7.36
8.56
9.44
9.98
10.24
10.36
10.56
11.03
11.87
13.04
14.38
15.77
17.04
18.06
18.74
18.93
18.54
17.54
16.02
14.15
12.07
9.95
7.88
5.84
3.87
1.94
0.06
-1.83
-3.77
-5.85
-8.15
-10.71
-13.5
-16.45
-19.39
-22.12
-24.33
-25.7
-25.89
-24.66
-21.91
-17.79
-12.67
-7.1
-1.62
3.29
7.27
10.17
11.98
12.79
12.84
12.41
11.8
11.26
10.95
10.9
11.06
11.41
11.89
12.45
13.03
13.54
13.94
14.2
14.32
14.23
13.83
12.95
11.53
9.61
7.34
4.83
2.16
-0.69
-3.72
-6.79
-9.63
-11.92
-13.53
-14.64
-15.68
-17.1
-19.22
-22.01
-25.16
-28.24
-30.83
-32.56
-33.14
-32.32
-29.9
-25.83
-20.32
-13.83
-7.04
-0.64
4.8
9.07
12.21
14.48
16.14
17.34
18.1
18.34
18.08
17.51
16.86
16.41
16.23
16.24
16.28
16.25
16.16
16.15
16.29
16.53
16.68
16.45
15.72
14.5
12.98
11.37
9.82
8.33
6.81
5.11
3.17
1.03
-1.21
-3.45
-5.72
-8.14
-10.88
-14.03
-17.54
-21.23
-24.85
-28.15
-30.89
-32.85
-33.81
-33.45
-31.53
-27.99
-22.98
-16.93
-10.45
-4.11
1.62
6.47
10.35
13.28
15.38
16.77
17.56
17.8
17.55
16.9
15.97
14.98
14.16
13.72
13.79
14.37
15.34
16.52
17.62
18.42
18.76
18.63
18.17
17.54
16.86
16.09
15.14
13.9
12.34
10.61
8.82
7.0
5.03
2.69
-0.1
-3.28
-6.59
-9.8
-12.84
-15.86
-19.18
-22.96
-27.14
-31.31
-34.87
-37.25
-38.1
-37.37
-35.24
-31.99
-27.9
-23.17
-18.05
-12.78
-7.71
-3.19
0.5
3.26
5.16
6.4
7.17
7.6
7.71
7.53
7.11
6.6
6.19
6.09
6.34
6.89
7.54
8.1
8.42
8.49
8.42
8.35
8.37
8.39
8.19
7.5
6.16
4.19
1.82
-0.6
-2.8
-4.62
-6.07
-7.27
-8.35
-9.42
-10.58
-11.95
-13.69
-15.97
-18.79
-21.97
-25.08
-27.44
-28.43
-27.59
-24.8
-20.29
-14.54
-8.2
-1.94
3.72
8.41
11.95
14.33
15.65
16.12
15.99
15.52
14.93
14.43
14.1
14.0
14.12
14.43
14.87
15.41
15.97
16.52
16.97
17.28
17.37
17.13
16.47
15.36
13.85
12.15
10.47
8.97
7.67
6.44
5.12
3.62
1.95
0.17
-1.73
-3.87
-6.42
-9.53
-13.2
-17.21
-21.16
-24.57
-27.01
-28.09
-27.57
-25.39
-21.66
-16.7
-10.97
-4.99
0.78
6.04
10.65
14.58
17.84
20.37
22.14
23.08
23.24
22.77
21.95
21.08
20.39
20.03
20.07
20.47
21.12
21.83
22.41
22.65
22.51
22.04
21.42
20.75
20.05
19.13
17.76
15.76
13.04
9.75
6.13
2.48
-0.97
-4.11
-6.98
-9.73
-12.58
-15.76
-19.39
-23.45
-27.74
-31.9
-35.47
-38.01
-39.12
-38.53
-36.15
-32.06
-26.55
-20.06
-13.1
-6.12
0.53
6.61
12.02
16.62
20.37
23.16
24.92
25.7
25.7
25.28
24.81
24.59
24.62
24.72
24.54
23.81
22.49
20.81
19.08
17.61
16.48
15.58
14.69
13.64
12.44
11.12
9.76
8.27
6.5
4.24
1.39
-1.96
-5.57
-9.15
-12.46
-15.48
-18.39
-21.48
-24.99
-29.0
-33.29
-37.38
-40.65
-42.49
-42.49
-40.45
-36.5
-31.0
-24.4
-17.23
-9.95
-3.0
3.28
8.63
12.91
16.06
18.19
19.48
20.1
20.19
19.82
19.05
17.97
16.76
15.65
14.87
14.58
14.8
15.42
16.26
17.09
17.74
18.06
17.95
17.35
16.21
14.45
12.04
9.08
5.77
2.42
-0.67
-3.37
-5.75
-8.04
-10.48
-13.2
-16.17
-19.29
-22.45
-25.61
-28.7
-31.54
-33.77
-34.94
-34.66
-32.76
-29.34
-24.7
-19.17
-13.02
-6.4
0.52
7.5
14.21
20.2
24.99
28.26
29.83
29.81
28.5
26.33
23.87
21.57
19.77
18.63
18.14
18.13
18.44
18.86
19.24
19.48
19.42
18.95
17.92
16.25
13.94
11.06
7.76
4.24
0.68
-2.75
-5.93
-8.83
-11.47
-13.93
-16.34
-18.88
-21.7
-24.86
-28.24
-31.57
-34.42
-36.29
-36.76
-35.56
-32.61
-28.04
-22.17
-15.45
-8.46
-1.78
4.12
8.94
12.63
15.28
17.06
18.08
18.39
18.03
17.08
15.74
14.36
13.24
12.62
12.56
12.96
13.59
14.22
14.64
14.77
14.58
14.14
13.46
12.55
11.37
9.94
8.28
6.42
4.37
2.06
-0.57
-3.58
-6.93
-10.52
-14.21
-17.91
-21.61
-25.37
-29.21
-33.04
-36.62
-39.56
-41.44
-41.84
-40.47
-37.22
-32.21
-25.78
-18.48
-10.91
-3.62
3.02
8.81
13.65
17.49
20.27
21.97
22.71
22.69
22.25
21.64
21.06
20.52
19.99
19.47
18.99
18.59
18.33
18.14
17.97
17.7
17.24
16.51
15.44
14.04
12.38
10.66
9.05
7.69
6.57
5.48
4.16
2.28
-0.32
-3.72
-7.84
-12.55
-17.63
-22.88
-27.99
-32.63
-36.32
-38.57
-38.93
-37.18
-33.41
-28.02
-21.63
-14.79
-7.96
-1.4
4.72
10.17
14.73
18.16
20.35
21.39
21.57
21.22
20.65
20.04
19.47
18.99
18.61
18.4
18.39
18.54
18.74
18.83
18.64
18.05
17.07
15.81
14.56
13.48
12.64
11.92
10.98
9.5
7.27
4.38
1.08
-2.29
-5.41
-8.2
-10.68
-12.99
-15.21
-17.44
-19.74
-22.19
-24.87
-27.75
-30.65
-33.17
-34.78
-34.99
-33.46
-30.17
-25.45
-19.86
-14.04
-8.53
-3.66
0.42
3.77
6.44
8.53
10.06
11.13
11.83
12.32
12.77
13.31
13.96
14.67
15.36
15.98
16.55
17.12
17.7
18.26
18.68
18.76
18.31
17.18
15.3
12.75
9.75
6.6
3.54
0.76
-1.72
-3.96
-6.08
-8.19
-10.36
-12.65
-15.09
-17.76
-20.76
-24.11
-27.74
-31.4
-34.74
-37.32
-38.72
-38.62
-36.91
-33.65
-29.12
-23.71
-17.91
-12.15
-6.76
-2.04
1.82
4.64
6.34
6.82
6.16
4.55
2.34
-0.1
-2.38
-4.27
-5.71
-6.73
-7.47
-8.0
-8.3
-8.37
-8.23
-8.02
-7.95
-8.21
-8.85
-9.78
-10.78
-11.61
-12.05
-12.0
-11.45
-10.45
-9.16
-7.82
-6.76
-6.36
-6.89
-8.47
-11.04
-14.42
-18.34
-22.48
-26.48
-29.85
-32.07
-32.65
-31.29
-27.95
-22.9
-16.62
-9.6
-2.39
4.59
10.92
16.27
20.39
23.19
24.73
25.3
25.26
24.92
24.52
24.09
23.59
22.97
22.27
21.64
21.27
21.31
21.72
22.27
22.64
22.55
21.92
20.83
19.51
18.14
16.8
15.4
13.81
11.88
9.59
6.99
4.2
1.27
-1.78
-4.97
-8.25
-11.52
-14.69
-17.66
-20.41
-22.99
-25.39
-27.45
-28.85
-29.16
-27.95
-25.02
-20.52
-14.87
-8.69
-2.49
3.38
8.82
13.81
18.32
22.19
25.24
27.35
28.59
29.21
29.55
29.87
30.29
30.79
31.3
31.71
32.0
32.17
32.24
32.23
32.12
31.92
31.57
30.99
30.05
28.65
26.75
24.39
21.69
18.83
15.97
13.19
10.5
7.81
5.0
1.98
-1.25
-4.66
-8.21
-11.9
-15.83
-20.11
-24.76
-29.63
-34.3
-38.2
-40.77
-41.56
-40.4
-37.37
-32.78
-27.04
-20.71
-14.32
-8.39
-3.33
0.68
3.61
5.6
6.89
7.66
8.1
8.29
8.34
8.38
8.51
8.83
9.36
10.09
10.95
11.87
12.76
13.55
14.16
14.51
14.58
14.3
13.64
12.57
11.09
9.28
7.3
5.29
3.33
1.43
-0.55
-2.72
-5.15
-7.79
-10.54
-13.27
-15.85
-18.3
-20.66
-23.09
-25.74
-28.74
-32.01
-35.24
-37.93
-39.46
-39.33
-37.32
-33.57
-28.48
-22.54
-16.19
-9.72
-3.38
2.62
7.99
12.46
15.86
18.16
19.49
20.08
20.15
19.89
19.44
18.95
18.61
18.65
19.23
20.34
21.8
23.26
24.4
24.97
24.88
24.2
23.09
21.71
20.23
18.75
17.3
15.81
14.15
12.18
9.81
7.09
4.19
1.3
-1.5
-4.23
-7.05
-10.19
-13.79
-17.9
-22.44
-27.19
-31.81
-35.8
-38.57
-39.56
-38.38
-34.9
-29.38
-22.33
-14.52
-6.65
0.59
6.8
11.74
15.44
18.02
19.67
20.56
20.81
20.49
19.66
18.46
17.11
15.9
15.12
14.94
15.38
16.34
17.6
18.93
20.15
21.08
21.6
21.59
20.97
19.72
17.84
15.42
12.57
9.45
6.2
2.97
-0.12
-3.03
-5.78
-8.52
-11.42
-14.65
-18.31
-22.32
-26.5
-30.48
-33.83
-36.12
-37.0
-36.23
-33.78
-29.78
-24.55
-18.49
-12.07
-5.7
0.3
5.71
10.41
14.34
17.45
19.64
20.87
21.15
20.63
19.59
18.38
17.33
16.67
16.53
16.92
17.77
18.94
20.3
21.65
22.79
23.59
23.95
23.89
23.48
22.81
21.97
20.98
19.87
18.61
17.21
15.65
13.89
11.91
9.67
7.12
4.19
0.89
-2.8
-6.85
-11.27
-15.95
-20.75
-25.39
-29.45
-32.47
-34.01
-33.8
-31.79
-28.19
-23.37
-17.82
-12.05
-6.49
-1.5
2.7
6.0
8.42
10.06
11.03
11.42
11.37
11.05
10.68
10.46
10.56
11.04
11.81
12.7
13.53
14.13
14.35
14.11
13.33
12.06
10.42
8.59
6.8
5.22
3.89
2.83
1.89
0.91
-0.35
-2.06
-4.36
-7.25
-10.59
-14.16
-17.72
-21.11
-24.29
-27.31
-30.35
-33.51
-36.83
-40.18
-43.3
-45.73
-47.02
-46.75
-44.71
-40.92
-35.67
-29.46
-22.9
-16.56
-10.94
-6.38
-2.98
-0.67
0.73
1.53
1.99
2.37
2.83
3.46
4.32
5.39
6.6
7.82
8.9
9.71
10.15
10.28
10.16
9.89
9.55
9.12
8.51
7.59
6.23
4.37
2.06
-0.56
-3.29
-6.02
-8.64
-11.15
-13.59
-16.08
-18.75
-21.68
-24.91
-28.41
-32.08
-35.75
-39.32
-42.66
-45.67
-48.16
-49.79
-50.15
-48.83
-45.58
-40.45
-33.76
-26.1
-18.14
-10.48
-3.54
2.51
7.7
12.16
16.02
19.31
21.93
23.74
24.64
24.69
24.07
23.13
22.19
21.52
21.24
21.35
21.71
22.12
22.36
22.21
21.53
20.28
18.58
16.61
14.6
12.7
10.97
9.31
7.6
5.72
3.59
1.29
-1.08
-3.38
-5.56
-7.64
-9.74
-12.02
-14.65
-17.77
-21.41
-25.45
-29.63
-33.56
-36.71
-38.59
-38.76
-36.94
-33.13
-27.6
-20.88
-13.59
-6.37
0.33
6.27
11.35
15.55
18.81
21.09
22.41
22.81
22.52
21.79
20.91
20.19
19.85
20.03
20.74
21.79
22.9
23.72
24.06
23.86
23.22
22.26
21.05
19.54
17.67
15.45
12.95
10.29
7.52
4.62
1.57
-1.57
-4.68
-7.58
-10.18
-12.56
-14.93
-17.58
-20.66
-24.16
-27.83
-31.23
-33.81
-35.05
-34.52
-32.02
-27.64
-21.79
-15.07
-8.16
-1.59
4.28
9.33
13.58
17.15
20.19
22.78
24.96
26.73
28.14
29.27
30.22
31.1
31.99
32.85
33.62
34.25
34.71
35.08
35.31
35.32
34.9
33.82
31.96
29.42
26.53
23.67
21.11
18.9
16.83
14.63
12.1
9.23
6.2
3.33
0.84
-1.17
-2.87
-4.59
-6.75
-9.73
-13.71
-18.55
-23.83
-28.89
-33.04
-35.65
-36.33
-34.93
-31.61
-26.72
-20.74
-14.23
-7.72
-1.56
3.97
8.68
12.41
15.03
16.43
16.68
16.03
14.91
13.79
13.04
12.83
13.15
13.81
14.64
15.49
16.3
17.02
17.58
17.91
17.92
17.58
16.91
15.95
14.71
13.2
11.33
9.03
6.29
3.23
0.09
-2.89
-5.55
-7.87
-9.98
-12.05
-14.21
-16.47
-18.81
-21.24
-23.87
-26.89
-30.45
-34.48
-38.63
-42.2
-44.42
-44.6
-42.37
-37.85
-31.51
-24.11
-16.38
-8.98
-2.3
3.46
8.17
11.85
14.51
16.25
17.26
17.71
17.75
17.42
16.73
15.7
14.49
13.39
12.74
12.76
13.5
14.77
16.32
17.88
19.27
20.37
21.06
21.22
20.73
19.53
17.66
15.2
12.19
8.71
4.89
0.89
-3.06
-6.81
-10.3
-13.6
-16.88
-20.22
-23.68
-27.29
-31.14
-35.29
-39.76
-44.26
-48.24
-50.94
-51.66
-50.01
-46.03
-40.16
-33.08
-25.53
-18.17
-11.47
-5.67
-0.84
3.12
6.34
8.86
10.68
11.73
12.05
11.8
11.32
11.0
11.12
11.85
13.15
14.86
16.77
18.65
20.27
21.46
22.07
22.07
21.47
20.38
18.91
17.2
15.34
13.34
11.17
8.77
6.05
2.98
-0.4
-3.96
-7.52
-10.95
-14.23
-17.45
-20.73
-24.17
-27.74
-31.21
-34.2
-36.21
-36.77
-35.57
-32.52
-27.85
-22.0
-15.48
-8.85
-2.51
3.2
8.06
11.96
14.85
16.78
17.84
18.13
17.74
16.75
15.33
13.74
12.37
11.6
11.67
12.63
14.24
16.15
17.96
19.4
20.3
20.59
20.33
19.61
18.54
17.2
15.61
13.69
11.35
8.53
5.33
1.95
-1.38
-4.52
-7.5
-10.51
-13.75
-17.42
-21.51
-25.82
-29.98
-33.48
-35.7
-36.11
-34.38
-30.54
-24.95
-18.21
-11.02
-3.95
2.59
8.3
13.04
16.67
19.16
20.56
21.08
20.95
20.44
19.72
18.91
18.08
17.28
16.65
16.35
16.49
17.12
18.17
19.45
20.69
21.66
22.19
22.2
21.72
20.78
19.41
17.54
15.2
12.43
9.39
6.29
3.32
0.57
-2.03
-4.61
-7.38
-10.51
-14.17
-18.44
-23.34
-28.78
-34.51
-40.02
-44.62
-47.6
-48.32
-46.44
-42.02
-35.49
-27.52
-18.94
-10.47
-2.69
4.07
9.69
14.18
17.61
20.12
21.87
23.05
23.88
24.51
25.07
25.66
26.27
26.83
27.21
27.24
26.81
25.91
24.68
23.32
22.1
21.15
20.47
19.93
19.35
18.62
17.67
16.52
15.17
13.61
11.8
9.7
7.33
4.74
2.02
-0.77
-3.58
-6.44
-9.52
-13.05
-17.25
-22.16
-27.49
-32.63
-36.77
-39.17
-39.36
-37.24
-33.07
-27.3
-20.44
-13.02
-5.54
1.49
7.67
12.71
16.53
19.23
21.01
22.07
22.58
22.66
22.43
22.02
21.53
21.07
20.69
20.39
20.19
20.02
19.81
19.44
18.83
17.94
16.8
15.48
14.04
12.49
10.77
8.89
6.87
4.81
2.75
0.69
-1.48
-3.89
-6.54
-9.36
-12.21
-15.04
-17.93
-21.1
-24.73
-28.83
-33.13
-37.14
-40.26
-41.92
-41.7
-39.39
-35.04
-28.9
-21.47
-13.42
-5.47
1.74
7.78
12.47
15.83
17.99
19.08
19.28
18.76
17.76
16.59
15.55
14.89
14.68
14.9
15.39
16.01
16.64
17.19
17.57
17.64
17.25
16.32
14.85
13.0
10.97
8.97
7.09
5.31
3.49
1.56
-0.54
-2.8
-5.23
-7.92
-11.03
-14.72
-19.02
-23.78
-28.69
-33.3
-37.12
-39.63
-40.37
-39.09
-35.76
-30.67
-24.33
-17.36
-10.34
-3.69
2.34
7.64
12.13
15.76
18.51
20.4
21.53
22.05
22.09
21.82
21.33
20.79
20.36
20.19
20.37
20.89
21.63
22.36
22.87
22.93
22.46
21.42
19.88
17.89
15.56
13.01
10.35
7.68
5.02
2.34
-0.47
-3.52
-6.89
-10.5
-14.26
-18.0
-21.61
-25.03
-28.21
-31.01
-33.24
-34.61
-34.93
-34.06
-32.02
-28.95
-25.02
-20.44
-15.4
-10.11
-4.82
0.25
4.96
9.24
13.07
16.42
19.13
20.98
21.82
21.69
20.88
19.83
19.01
18.64
18.71
19.04
19.44
19.75
19.93
19.95
19.71
19.08
17.94
16.32
14.32
12.13
9.86
7.54
5.11
2.52
-0.24
-3.1
-5.91
-8.58
-11.06
-13.38
-15.68
-18.15
-21.03
-24.54
-28.68
-33.26
-37.7
-41.29
-43.23
-42.96
-40.3
-35.46
-29.0
-21.66
-14.14
-6.98
-0.56
4.92
9.39
12.87
15.47
17.41
18.9
20.13
21.15
21.89
22.23
22.11
21.55
20.74
19.94
19.37
19.12
19.16
19.33
19.45
19.37
18.99
18.22
16.99
15.31
13.24
10.92
8.51
6.14
3.79
1.41
-1.08
-3.68
-6.31
-8.92
-11.5
-14.18
-17.18
-20.69
-24.84
-29.53
-34.45
-39.08
-42.81
-45.07
-45.43
-43.68
-39.87
-34.25
-27.28
-19.53
-11.69
-4.37
1.91
6.94
10.68
13.34
15.12
16.21
16.68
16.66
16.36
16.05
16.01
16.36
17.05
17.88
18.64
19.19
19.57
19.83
20.03
20.12
19.98
19.47
18.45
16.9
14.79
12.2
9.33
6.38
3.56
0.97
-1.38
-3.62
-5.86
-8.15
-10.5
-12.88
-15.35
-18.04
-21.14
-24.72
-28.72
-32.78
-36.4
-38.96
-39.9
-38.87
-35.71
-30.61
-24.01
-16.5
-8.73
-1.3
5.35
10.9
15.18
18.08
19.66
20.11
19.72
18.86
17.8
16.75
15.82
15.11
14.75
14.82
15.4
16.36
17.46
18.39
18.85
18.71
17.99
16.82
15.29
13.5
11.46
9.15
6.6
3.91
1.2
-1.4
-3.85
-6.14
-8.39
-10.74
-13.29
-16.14
-19.35
-22.96
-26.91
-31.0
-34.82
-37.77
-39.23
-38.68
-35.86
-30.9
-24.22
-16.48
-8.4
-0.64
6.26
12.0
16.42
19.53
21.4
22.19
22.1
21.32
20.12
18.7
17.29
16.03
15.04
14.37
14.11
14.29
14.89
15.84
16.92
17.89
18.47
18.5
17.88
16.57
14.56
11.83
8.47
4.67
0.68
-3.16
-6.63
-9.68
-12.45
-15.21
-18.29
-21.9
-26.15
-31.0
-36.27
-41.6
-46.44
-50.09
-51.91
-51.37
-48.31
-42.93
-35.79
-27.59
-19.06
-10.77
-3.1
3.81
9.9
15.11
19.34
22.45
24.35
25.06
24.81
23.95
22.8
21.61
20.47
19.41
18.46
17.75
17.5
17.85
18.82
20.19
21.5
22.28
22.14
20.94
18.83
16.11
13.14
10.19
7.32
4.48
1.57
-1.53
-4.81
-8.22
-11.68
-15.2
-18.84
-22.68
-26.84
-31.35
-36.18
-41.15
-45.96
-50.19
-53.29
-54.69
-53.97
-50.96
-45.83
-39.04
-31.21
-22.92
-14.62
-6.68
0.68
7.23
12.78
17.16
20.26
22.13
22.93
22.91
22.39
21.69
21.06
20.74
20.89
21.59
22.88
24.66
26.71
28.68
30.15
30.77
30.35
28.95
26.79
24.21
21.49
18.82
16.25
13.77
11.27
8.68
5.96
3.09
0.13
-2.8
-5.57
-8.06
-10.26
-12.31
-14.51
-17.22
-20.72
-25.07
-29.98
-34.85
-38.9
-41.33
-41.61
-39.59
-35.46
-29.72
-23.02
-15.95
-9.07
-2.77
2.73
7.28
10.87
13.53
15.34
16.43
16.96
17.07
16.92
16.57
16.05
15.45
14.92
14.7
14.98
15.83
17.06
18.3
19.14
19.31
18.73
17.57
16.06
14.39
12.68
10.98
9.31
7.7
6.16
4.61
2.93
0.96
-1.39
-4.13
-7.17
-10.46
-13.92
-17.52
-21.28
-25.21
-29.2
-32.99
-36.2
-38.25
-38.62
-36.92
-33.13
-27.57
-20.8
-13.48
-6.22
0.56
6.57
11.63
15.63
18.57
20.49
21.54
21.82
21.42
20.43
18.96
17.26
15.7
14.67
14.42
14.98
16.07
17.33
18.32
18.78
18.53
17.55
15.94
13.85
11.49
9.01
6.55
4.13
1.74
-0.58
-2.76
-4.75
-6.61
-8.55
-10.89
-13.88
-17.63
-21.94
-26.48
-30.81
-34.55
-37.32
-38.8
-38.67
-36.72
-32.91
-27.47
-20.81
-13.53
-6.19
0.7
6.82
12.0
16.22
19.46
21.7
22.9
23.05
22.23
20.73
19.01
17.57
16.82
16.93
17.83
19.27
20.93
22.53
23.8
24.54
24.61
23.91
22.46
20.32
17.65
14.59
11.32
7.97
4.62
1.38
-1.75
-4.75
-7.62
-10.38
-13.02
-15.58
-18.18
-20.98
-24.23
-28.11
-32.62
-37.48
-42.11
-45.77
-47.71
-47.37
-44.55
-39.43
-32.56
-24.68
-16.58
-8.89
-2.04
3.79
8.57
12.38
15.25
17.24
18.38
18.81
18.65
18.12
17.43
16.83
16.54
16.66
17.22
18.1
19.07
19.88
20.38
20.47
20.13
19.34
18.1
16.42
14.38
12.18
10.04
8.13
6.43
4.77
2.93
0.72
-1.86
-4.74
-7.73
-10.75
-13.82
-17.01
-20.44
-24.15
-28.07
-31.99
-35.58
-38.36
-39.77
-39.3
-36.55
-31.48
-24.42
-16.06
-7.37
0.79
7.76
13.31
17.56
20.82
23.32
25.16
26.21
26.32
25.43
23.7
21.52
19.38
17.73
16.83
16.72
17.21
18.02
18.82
19.34
19.43
19.01
18.09
16.71
14.97
13.04
11.06
9.13
7.19
5.06
2.45
-0.83
-4.78
-9.14
-13.52
-17.57
-21.1
-24.19
-27.1
-30.06
-33.21
-36.49
-39.7
-42.5
-44.48
-45.18
-44.19
-41.21
-36.19
-29.34
-21.18
-12.4
-3.76
4.1
10.73
15.96
19.82
22.53
24.33
25.48
26.2
26.55
26.53
26.03
24.88
23.02
20.48
17.51
14.5
11.87
9.9
8.61
7.79
7.15
6.48
5.78
5.21
4.84
4.65
4.36
3.56
1.97
-0.48
-3.6
-7.05
-10.53
-13.88
-17.11
-20.35
-23.77
-27.47
-31.39
-35.25
-38.57
-40.69
-40.99
-39.03
-34.76
-28.51
-20.96
-12.88
-4.98
2.2
8.36
