0
10.25
11.88
13.24
14.39
15.35
16.07
16.51
16.7
16.74
16.75
16.82
17.02
17.37
17.9
18.6
19.4
20.15
20.65
20.67
20.11
19.01
17.56
16.02
14.62
13.46
12.5
11.61
10.64
9.53
8.26
6.87
5.47
4.13
2.95
1.94
1.07
0.2
-0.81
-2.1
-3.69
-5.48
-7.33
-9.14
-10.9
-12.72
-14.71
-16.9
-19.24
-21.64
-24.04
-26.43
-28.8
-31.02
-32.77
-33.62
-33.13
-31.05
-27.47
-22.74
-17.41
-12.04
-7.07
-2.73
0.94
4.05
6.69
8.98
10.96
12.62
13.96
15.0
15.77
16.3
16.64
16.82
16.93
17.08
17.4
17.95
18.7
19.54
20.32
20.88
21.14
21.08
20.71
20.08
19.19
18.06
16.71
15.2
13.63
12.12
10.76
9.58
8.52
7.48
6.34
5.08
3.7
2.3
0.89
-0.56
-2.15
-3.9
-5.79
-7.69
-9.46
-11.04
-12.51
-14.06
-15.91
-18.2
-20.94
-24.0
-27.06
-29.68
-31.36
-31.63
-30.23
-27.2
-22.9
-17.94
-12.94
-8.36
-4.39
-0.97
2.08
4.86
7.36
9.48
11.05
12.04
12.52
12.7
12.81
13.06
13.54
14.24
15.02
15.75
16.29
16.6
16.74
16.82
16.94
17.11
17.22
17.12
16.69
15.9
14.89
13.84
12.87
12.03
11.25
10.37
9.25
7.87
6.29
4.68
3.21
1.96
0.9
-0.06
-1.05
-2.18
-3.51
-5.03
-6.71
-8.51
-10.39
-12.27
-14.11
-15.85
-17.52
-19.22
-21.11
-23.34
-25.92
-28.66
-31.17
-32.94
-33.47
-32.47
-29.92
-26.14
-21.59
-16.79
-12.15
-7.85
-3.95
-0.39
2.85
5.74
8.21
10.2
11.67
12.67
13.26
13.58
13.76
13.93
14.21
14.61
15.08
15.53
15.86
16.03
16.07
16.07
16.1
16.16
16.21
16.14
15.88
15.37
14.64
13.73
12.71
11.65
10.62
9.6
8.59
7.54
6.46
5.39
4.39
3.55
2.84
2.2
1.43
0.39
-1.06
-2.9
-5.03
-7.25
-9.37
-11.27
-12.99
-14.62
-16.36
-18.33
-20.59
-23.11
-25.78
-28.43
-30.84
-32.7
-33.68
-33.44
-31.76
-28.65
-24.38
-19.45
-14.42
-9.76
-5.72
-2.32
0.59
3.2
5.62
7.84
9.74
11.17
12.08
12.51
12.68
12.81
13.06
13.49
14.0
14.48
14.84
15.08
15.26
15.46
15.71
15.96
16.11
16.08
15.82
15.33
14.63
13.78
12.86
11.9
10.94
9.98
8.97
7.86
6.65
5.38
4.1
2.9
1.81
0.81
-0.2
-1.37
-2.8
-4.53
-6.46
-8.41
-10.22
-11.78
-13.13
-14.37
-15.68
-17.17
-18.93
-21.02
-23.47
-26.29
-29.36
-32.37
-34.8
-36.02
-35.53
-33.14
-29.08
-23.91
-18.34
-12.97
-8.17
-4.02
-0.44
2.73
5.57
8.13
10.38
12.29
13.86
15.06
15.88
16.31
16.4
16.27
16.07
16.0
16.18
16.67
17.38
18.21
19.01
19.66
20.02
19.97
19.44
18.46
17.19
15.85
14.69
13.82
13.17
12.54
11.65
10.32
8.56
6.54
4.53
2.75
1.33
0.2
-0.81
-1.89
-3.2
-4.8
-6.64
-8.56
-10.45
-12.22
-13.9
-15.61
-17.51
-19.75
-22.3
-24.95
-27.23
-28.61
-28.6
-27.03
-24.02
-19.97
-15.43
-10.84
-6.5
-2.5
1.16
4.46
7.31
9.6
11.22
12.14
12.48
12.41
12.17
11.95
11.87
11.98
12.24
12.58
12.91
13.21
13.46
13.69
13.88
13.99
13.95
13.67
13.15
12.41
11.54
10.59
9.58
8.46
7.2
5.8
4.3
2.8
1.38
0.07
-1.16
-2.35
-3.57
-4.89
-6.34
-7.99
-9.85
-11.92
-14.14
-16.44
-18.74
-21.07
-23.49
-26.02
-28.59
-30.92
-32.59
-33.15
-32.24
-29.75
-25.83
-20.9
-15.48
-10.1
-5.16
-0.86
2.76
5.77
8.27
10.36
12.12
13.62
14.92
16.06
17.07
17.89
18.47
18.75
18.77
18.64
18.5
18.43
18.43
18.42
18.33
18.09
17.68
17.13
16.41
15.48
14.32
12.94
11.42
9.9
8.48
7.17
5.91
4.58
3.11
1.47
-0.27
-1.99
-3.61
-5.09
-6.47
-7.85
-9.34
-11.0
-12.81
-14.74
-16.76
-18.92
-21.34
-24.13
-27.27
-30.52
-33.45
-35.5
-36.22
-35.34
-32.87
-29.08
-24.4
-19.31
-14.27
-9.57
-5.38
-1.7
1.52
4.38
6.92
9.13
11.01
12.53
13.7
14.58
15.25
15.77
16.17
16.52
16.87
17.28
17.8
18.45
19.2
19.93
20.46
20.6
20.27
19.46
18.29
16.95
15.59
14.3
13.09
11.88
10.63
9.27
7.77
6.15
4.46
2.79
1.24
-0.09
-1.21
-2.17
-3.14
-4.29
-5.71
-7.38
-9.19
-10.98
-12.64
-14.14
-15.61
-17.25
-19.27
-21.74
-24.59
-27.52
-30.05
-31.72
-32.13
-31.12
-28.72
-25.17
-20.79
-15.97
-11.07
-6.38
-2.12
1.62
4.87
7.75
10.39
12.84
15.03
16.82
18.12
18.96
19.51
19.95
20.39
20.79
21.0
20.85
20.28
19.35
18.18
16.88
15.49
14.06
12.62
11.29
10.18
9.34
8.76
8.34
7.99
7.67
7.34
7.0
6.6
6.1
5.5
4.86
4.3
3.86
3.47
2.94
2.03
0.62
-1.23
-3.28
-5.27
-7.04
-8.62
-10.18
-11.95
-14.14
-16.84
-19.97
-23.33
-26.52
-29.04
-30.37
-30.13
-28.2
-24.82
-20.45
-15.62
-10.75
-6.08
-1.71
2.29
5.87
8.89
11.28
13.07
14.35
15.29
16.01
16.59
17.04
17.38
17.66
17.96
18.34
18.84
19.38
19.88
20.18
20.21
19.95
19.43
18.76
17.98
17.13
16.21
15.2
14.11
12.99
11.91
10.87
9.84
8.71
7.43
5.99
4.53
3.2
2.06
1.1
0.11
-1.12
-2.76
-4.79
-7.07
-9.37
-11.54
-13.52
-15.42
-17.38
-19.57
-22.1
-24.96
-27.98
-30.82
-33.05
-34.25
-34.11
-32.49
-29.51
-25.46
-20.71
-15.72
-10.84
-6.36
-2.43
0.95
3.88
6.45
8.7
10.59
12.05
13.04
13.62
13.93
14.15
14.36
14.57
14.76
14.91
15.06
15.25
15.53
15.9
16.33
16.76
17.12
17.37
17.42
17.21
16.66
15.8
14.69
13.47
12.29
11.25
10.34
9.45
8.44
7.19
5.7
4.07
2.49
1.14
0.04
-0.92
-1.96
-3.28
-4.92
-6.8
-8.76
-10.65
-12.48
-14.35
-16.38
-18.63
-21.08
-23.67
-26.4
-29.26
-32.17
-34.83
-36.72
-37.24
-35.95
-32.81
-28.23
-22.99
-17.85
-13.33
-9.52
-6.22
-3.16
-0.18
2.64
5.09
7.02
8.43
9.52
10.5
11.46
12.35
13.01
13.36
13.47
13.6
13.98
14.71
15.62
16.4
16.77
16.67
16.24
15.78
15.46
15.29
15.11
14.71
14.04
13.16
12.2
11.27
10.35
9.27
7.9
6.18
4.25
2.37
0.78
-0.44
-1.37
-2.26
-3.35
-4.82
-6.65
-8.71
-10.82
-12.87
-14.81
-16.73
-18.73
-20.9
-23.22
-25.58
-27.72
-29.3
-29.91
-29.24
-27.13
-23.68
-19.2
-14.15
-9.05
-4.29
-0.11
3.42
6.32
8.66
10.52
11.98
13.09
13.91
14.47
14.8
14.9
14.81
14.59
14.35
14.18
14.17
14.36
14.72
15.17
15.61
15.91
15.97
15.72
15.14
14.24
13.05
11.64
10.08
8.46
6.91
5.55
4.42
3.52
2.72
1.86
0.82
-0.42
-1.74
-3.03
-4.2
-5.33
-6.56
-8.06
-9.86
-11.86
-13.91
-15.89
-17.85
-19.93
-22.34
-25.05
-27.8
-30.04
-31.19
-30.8
-28.76
-25.32
-20.97
-16.28
-11.69
-7.49
-3.78
-0.53
2.26
4.6
6.47
7.88
8.92
9.77
10.56
11.37
12.13
12.71
12.98
12.95
12.8
12.81
13.19
13.95
14.92
15.77
16.21
16.11
15.51
14.58
13.5
12.37
11.23
10.07
8.88
7.67
6.43
5.19
3.86
2.4
0.77
-1.02
-2.86
-4.62
-6.17
-7.46
-8.57
-9.62
-10.78
-12.2
-13.93
-15.97
-18.27
-20.84
-23.65
-26.62
-29.52
-31.96
-33.48
-33.73
-32.54
-30.02
-26.45
-22.25
-17.76
-13.25
-8.88
-4.77
-0.98
2.42
5.38
7.88
9.94
11.58
12.83
13.75
14.4
14.89
15.28
15.67
16.1
16.57
17.07
17.56
18.01
18.35
18.56
18.62
18.52
18.25
17.81
17.21
16.48
15.64
14.78
13.97
13.22
12.5
11.71
10.7
9.36
7.74
5.96
4.23
2.68
1.3
-0.07
-1.62
-3.47
-5.58
-7.77
-9.87
-11.79
-13.54
-15.24
-17.0
-18.86
-20.89
-23.21
-25.96
-29.19
-32.77
-36.26
-38.97
-40.19
-39.41
-36.57
-32.05
-26.52
-20.72
-15.17
-10.09
-5.51
-1.34
2.45
5.83
8.69
10.95
12.61
13.75
14.51
15.0
15.3
15.48
15.55
15.59
15.65
15.82
16.17
16.75
17.53
18.42
19.26
19.88
20.14
20.01
19.51
18.77
17.87
16.87
15.84
14.8
13.82
12.91
12.01
11.02
9.82
8.37
6.76
5.19
3.88
2.87
2.06
1.19
0.01
-1.62
-3.65
-5.92
-8.24
-10.46
-12.55
-14.57
-16.6
-18.78
-21.23
-24.0
-27.03
-30.07
-32.67
-34.31
-34.55
-33.2
-30.36
-26.41
-21.81
-17.0
-12.26
-7.73
-3.47
0.46
4.0
7.03
9.47
11.3
12.53
13.25
13.54
13.52
13.28
12.97
12.72
12.67
12.94
13.55
14.45
15.53
16.6
17.5
18.11
18.36
18.23
17.75
16.99
16.08
15.19
14.47
13.93
13.49
12.96
12.12
10.83
9.1
7.09
5.08
3.31
1.95
1.02
0.4
-0.13
-0.78
-1.73
-3.1
-4.96
-7.32
-10.13
-13.24
-16.48
-19.63
-22.54
-25.19
-27.63
-29.87
-31.84
-33.25
-33.72
-32.88
-30.6
-27.05
-22.64
-17.87
-13.13
-8.6
-4.3
-0.16
3.82
7.52
10.7
13.18
14.88
15.87
16.33
16.47
16.42
16.25
15.99
15.7
15.49
15.47
15.69
16.12
16.64
17.07
17.28
17.23
16.97
16.61
16.24
15.93
15.64
15.29
14.77
13.93
12.72
11.16
9.38
7.54
5.84
4.38
3.23
2.35
1.65
0.94
0.01
-1.38
-3.32
-5.69
-8.18
-10.39
-12.06
-13.22
-14.23
-15.65
-17.98
-21.35
-25.54
-29.96
-33.88
-36.6
-37.65
-36.79
-34.06
-29.8
-24.54
-18.93
-13.5
-8.61
-4.35
-0.6
2.85
6.14
9.34
12.37
15.09
17.35
19.05
20.09
20.46
20.26
19.72
19.21
19.1
19.64
20.84
22.43
23.9
24.75
24.59
23.31
21.12
18.42
15.66
13.22
11.29
9.92
9.0
8.38
7.82
7.08
5.93
4.25
2.06
-0.44
-2.96
-5.22
-7.11
-8.67
-10.08
-11.51
-13.01
-14.51
-15.88
-17.05
-18.03
-18.94
-19.91
-20.97
-22.14
-23.41
-24.85
-26.59
-28.71
-31.06
-33.21
-34.49
-34.21
-31.95
-27.73
-22.0
-15.5
-8.93
-2.85
2.49
7.01
10.7
13.53
15.42
16.35
16.38
15.76
14.91
14.23
14.04
14.45
15.33
16.42
17.41
18.15
18.66
19.09
19.59
20.17
20.67
20.89
20.64
19.92
18.93
17.94
17.14
16.54
15.93
15.02
13.61
11.72
9.6
7.61
6.02
4.89
4.01
3.05
1.69
-0.13
-2.26
-4.39
-6.24
-7.71
-8.96
-10.24
-11.87
-14.02
-16.7
-19.8
-23.15
-26.45
-29.36
-31.45
-32.28
-31.52
-29.08
-25.14
-20.11
-14.56
-9.01
-3.86
0.68
4.53
7.74
10.37
12.44
13.95
14.88
15.23
15.13
14.75
14.34
14.1
14.12
14.38
14.78
15.22
15.67
16.14
16.61
17.01
17.14
16.82
15.97
14.64
13.03
11.4
9.91
8.57
7.32
5.99
4.51
2.89
1.21
-0.42
-1.93
-3.33
-4.7
-6.11
-7.67
-9.41
-11.32
-13.33
-15.36
-17.31
-19.18
-21.09
-23.22
-25.81
-28.96
-32.5
-36.0
-38.79
-40.2
-39.74
-37.26
-33.04
-27.6
-21.56
-15.48
-9.73
-4.53
0.05
3.98
7.27
10.0
12.26
14.16
15.77
17.09
18.04
18.55
18.64
18.41
18.04
17.75
17.63
17.73
17.97
18.27
18.55
18.77
18.88
18.82
18.55
18.05
17.41
16.72
16.11
15.6
15.09
14.39
13.3
11.73
9.7
7.39
5.02
2.77
0.76
-1.02
-2.64
-4.24
-5.95
-7.86
-9.97
-12.19
-14.42
-16.56
-18.59
-20.58
-22.68
-25.06
-27.83
-30.95
-34.22
-37.21
-39.39
-40.19
-39.17
-36.2
-31.5
-25.58
-19.15
-12.85
-7.14
-2.2
1.98
5.53
8.58
11.17
13.31
14.98
16.21
17.05
17.58
17.87
17.95
17.85
17.61
17.33
17.13
17.18
17.57
18.31
19.21
20.03
20.52
20.52
20.03
19.18
18.16
17.12
16.14
15.18
14.18
13.07
11.78
10.33
8.69
6.88
4.93
2.94
1.05
-0.57
-1.8
-2.7
-3.42
-4.24
-5.41
-7.06
-9.15
-11.48
-13.85
-16.11
-18.22
-20.28
-22.41
-24.75
-27.37
-30.24
-33.22
-36.0
-38.17
-39.25
-38.81
-36.61
-32.66
-27.29
-21.04
-14.58
-8.52
-3.25
1.1
4.67
7.68
10.34
12.74
14.81
16.45
17.62
18.41
18.96
19.39
19.74
19.92
19.88
19.68
19.54
19.73
20.38
21.39
22.43
23.14
23.28
22.85
22.06
21.11
20.11
19.03
17.74
16.18
14.37
12.42
10.44
8.5
6.61
4.79
3.06
1.41
-0.2
-1.89
-3.79
-5.99
-8.41
-10.87
-13.15
-15.08
-16.71
-18.25
-19.98
-22.17
-24.94
-28.2
-31.61
-34.65
-36.71
-37.23
-35.84
-32.49
-27.49
-21.44
-15.03
-8.87
-3.32
1.52
5.65
9.09
11.81
13.74
14.88
15.42
15.64
15.83
16.13
16.51
16.8
16.86
16.7
16.5
16.47
16.75
17.29
17.93
18.42
18.58
18.35
17.75
16.87
15.79
14.59
13.31
11.96
10.54
9.04
7.47
5.87
4.29
2.8
1.38
-0.04
-1.52
-3.14
-4.89
-6.73
-8.58
-10.4
-12.17
-13.93
-15.69
-17.5
-19.39
-21.41
-23.68
-26.32
-29.4
-32.88
-36.51
-39.81
-42.14
-42.85
-41.51
-38.04
-32.77
-26.35
-19.55
-13.0
-7.09
-1.96
2.43
6.18
9.34
11.94
14.02
15.66
16.94
17.99
18.85
19.49
19.91
20.08
20.09
20.06
20.14
20.41
20.88
21.45
21.97
22.28
22.23
21.78
20.93
19.76
18.37
16.89
15.42
14.0
12.66
11.37
10.1
8.77
7.34
5.76
4.04
2.26
0.48
-1.22
-2.84
-4.46
-6.2
-8.13
-10.21
-12.32
-14.35
-16.23
-18.02
-19.88
-21.98
-24.45
-27.37
-30.7
-34.32
-37.96
-41.18
-43.35
-43.9
-42.42
-38.85
-33.57
-27.22
-20.52
-14.06
-8.15
-2.89
1.76
5.82
9.26
11.99
13.95
15.2
15.9
16.28
16.6
17.01
17.56
18.18
18.77
19.25
19.65
20.04
20.55
21.24
22.07
22.93
23.63
24.01
23.92
23.28
22.13
20.61
18.94
17.33
15.94
14.73
13.51
12.07
10.25
8.1
5.87
3.87
2.34
1.22
0.27
-0.83
-2.31
-4.17
-6.26
-8.37
-10.35
-12.2
-13.99
-15.81
-17.75
-19.87
-22.28
-25.06
-28.25
-31.65
-34.83
-37.15
-37.91
-36.64
-33.23
-28.01
-21.62
-14.84
-8.31
-2.44
2.64
6.97
10.65
13.73
16.2
18.01
19.16
19.78
20.05
20.15
20.2
20.18
20.03
19.75
19.4
19.15
19.17
19.52
20.11
20.69
21.01
20.87
20.22
19.16
17.86
16.51
15.24
14.11
13.09
12.06
10.89
9.48
7.82
6.0
4.14
2.38
0.74
-0.83
-2.46
-4.24
-6.22
-8.36
-10.58
-12.78
-14.86
-16.8
-18.63
-20.5
-22.62
-25.18
-28.24
-31.59
-34.77
-37.11
-37.97
-36.89
-33.79
-28.92
-22.84
-16.23
-9.74
-3.85
1.2
5.4
8.91
11.88
14.39
16.42
17.85
18.65
18.86
18.67
18.32
18.05
17.95
18.02
18.15
18.3
18.49
18.78
19.24
19.83
20.4
20.71
20.55
19.84
18.68
17.32
16.02
14.97
14.16
13.43
12.53
11.28
9.64
7.69
5.66
3.73
1.99
0.42
-1.13
-2.81
-4.73
-6.87
-9.15
-11.45
-13.71
-15.92
-18.12
-20.35
-22.65
-25.04
-27.57
-30.34
-33.39
-36.62
-39.67
-41.92
-42.63
-41.27
-37.69
-32.23
-25.62
-18.67
-12.02
-6.0
-0.67
4.01
8.09
11.53
14.25
16.24
17.61
18.56
19.28
19.93
20.55
21.09
21.51
21.84
22.15
22.53
23.02
23.56
23.98
24.09
23.75
22.93
21.72
20.26
18.72
17.17
15.65
14.17
12.7
11.23
9.79
8.36
6.92
5.4
3.74
1.91
-0.06
-2.06
-3.97
-5.71
-7.31
-8.84
-10.39
-11.96
-13.51
-15.0
-16.44
-17.93
-19.58
-21.45
-23.59
-26.0
-28.77
-31.95
-35.47
-39.03
-42.04
-43.74
-43.52
-41.11
-36.72
-30.93
-24.46
-17.94
-11.79
-6.22
-1.25
3.1
6.85
9.96
12.43
14.31
15.69
16.74
17.58
18.24
18.69
18.82
18.6
18.13
17.67
17.47
17.71
18.33
19.14
19.89
20.42
20.65
20.63
20.35
19.79
18.94
17.83
16.62
15.48
14.5
13.64
12.73
11.59
10.1
8.32
6.46
4.71
3.21
1.94
0.77
-0.5
-2.03
-3.91
-6.12
-8.57
-11.08
-13.52
-15.78
-17.89
-19.95
-22.13
-24.56
-27.28
-30.17
-32.96
-35.21
-36.44
-36.18
-34.14
-30.31
-24.99
-18.76
-12.28
-6.13
-0.63
4.12
8.18
11.65
14.47
16.57
17.84
18.32
18.19
17.7
17.11
16.6
16.24
16.05
16.07
16.33
16.82
17.48
18.14
18.62
18.77
18.53
17.95
17.13
16.16
15.1
13.96
12.72
11.37
9.88
8.23
6.43
4.53
2.6
0.68
-1.17
-2.98
-4.77
-6.55
-8.34
-10.1
-11.83
-13.57
-15.37
-17.31
-19.42
-21.72
-24.23
-26.96
-29.91
-32.96
-35.77
-37.84
-38.58
-37.53
-34.53
-29.77
-23.79
-17.25
-10.8
-4.93
0.07
4.13
7.37
9.96
12.09
13.86
15.27
16.28
16.89
17.16
17.27
17.39
17.64
18.01
18.43
18.82
19.17
19.54
19.96
20.42
20.79
20.9
20.62
19.94
18.92
17.7
16.38
14.98
13.47
11.81
10.0
8.08
6.14
4.25
2.44
0.71
-0.98
-2.69
-4.43
-6.24
-8.1
-9.99
-11.9
-13.82
-15.74
-17.72
-19.82
-22.09
-24.61
-27.45
-30.61
-34.02
-37.47
-40.57
-42.78
-43.54
-42.4
-39.2
-34.12
-27.73
-20.76
-13.92
-7.72
-2.33
2.31
6.36
9.92
12.96
15.37
17.1
18.21
18.9
19.36
19.75
20.05
20.19
20.15
19.98
19.83
19.85
20.06
20.39
20.69
20.83
20.76
20.48
20.01
19.31
18.35
17.15
15.79
14.43
13.2
12.17
11.26
10.32
9.19
7.78
6.12
4.35
2.6
0.96
-0.59
-2.18
-3.96
-6.03
-8.4
-10.93
-13.43
-15.75
-17.82
-19.72
-21.65
-23.84
-26.46
-29.6
-33.2
-37.07
-40.82
-43.9
-45.7
-45.68
-43.53
-39.31
-33.45
-26.61
-19.52
-12.77
-6.67
-1.29
3.42
7.55
11.12
14.1
16.43
18.11
19.23
19.92
20.32
20.56
20.72
20.85
20.97
21.11
21.28
21.47
21.67
21.88
22.1
22.32
22.52
22.61
22.46
21.98
21.18
20.17
19.12
18.16
17.3
16.38
15.21
13.68
11.82
9.84
7.98
6.38
5.03
3.79
2.46
0.9
-0.9
-2.85
-4.8
-6.66
-8.38
-10.01
-11.66
-13.48
-15.63
-18.25
-21.4
-25.04
-28.91
-32.56
-35.36
-36.68
-36.02
-33.27
-28.69
-22.88
-16.6
-10.52
-5.07
-0.4
3.53
6.85
9.66
12.06
14.09
15.81
17.27
18.45
19.33
19.86
20.01
19.85
19.51
19.18
19.05
19.27
19.91
20.91
22.05
23.05
23.63
23.63
23.06
22.1
20.98
19.84
18.72
17.48
15.93
13.96
11.59
9.0
6.4
3.99
1.81
-0.19
-2.16
-4.2
-6.34
-8.52
-10.62
-12.54
-14.27
-15.89
-17.5
-19.21
-21.09
-23.22
-25.68
-28.49
-31.61
-34.76
-37.44
-38.99
-38.83
-36.63
-32.49
-26.89
-20.54
-14.12
-8.11
-2.72
2.03
6.19
9.77
12.74
15.05
16.71
17.78
18.36
18.56
18.5
18.25
17.9
17.57
17.32
17.25
17.37
17.69
18.17
18.74
19.34
19.82
20.04
19.87
19.28
18.37
17.31
16.29
15.42
14.69
14.0
13.17
12.08
10.63
8.79
6.61
4.24
1.93
-0.06
-1.53
-2.5
-3.21
-4.03
-5.26
-7.03
-9.24
-11.65
-14.05
-16.34
-18.58
-20.87
-23.33
-26.02
-28.94
-32.12
-35.47
-38.73
-41.42
-42.89
-42.58
-40.2
-35.86
-30.08
-23.53
-16.84
-10.42
-4.51
0.77
5.29
8.94
11.64
13.48
14.7
15.58
16.38
17.19
17.96
18.59
18.94
19.0
18.84
18.64
18.55
18.7
19.08
19.57
20.04
20.33
20.35
20.09
19.57
18.8
17.8
16.58
15.17
13.67
12.23
11.0
10.03
9.23
8.43
7.43
6.11
4.5
2.76
1.09
-0.36
-1.57
-2.67
-3.87
-5.31
-7.05
-9.0
-11.01
-12.94
-14.74
-16.49
-18.34
-20.47
-22.98
-25.92
-29.26
-32.86
-36.46
-39.64
-41.85
-42.46
-41.03
-37.45
-32.08
-25.59
-18.82
-12.42
-6.73
-1.8
2.49
6.23
9.44
12.1
14.24
15.94
17.33
18.49
19.41
19.99
20.17
20.01
19.69
19.43
19.42
19.69
20.21
20.85
21.47
21.95
22.19
22.11
21.65
20.85
19.78
18.56
17.35
16.21
15.19
14.23
13.29
12.29
11.17
9.91
8.52
7.01
5.44
3.83
2.18
0.47
-1.33
-3.24
-5.24
-7.34
-9.5
-11.72
-13.96
-16.2
-18.45
-20.74
-23.2
-25.94
-28.99
-32.19
-35.16
-37.34
-38.13
-37.14
-34.26
-29.76
-24.15
-18.02
-11.91
-6.2
-1.1
3.29
6.92
9.8
11.93
13.36
14.19
14.56
14.61
14.49
14.28
14.03
13.8
13.67
13.75
14.13
14.82
15.75
16.75
17.62
18.21
18.41
18.27
17.84
17.22
16.46
15.6
14.68
13.71
12.7
11.66
10.55
9.31
7.93
6.37
4.66
2.83
0.98
-0.79
-2.38
-3.73
-4.89
-6.01
-7.28
-8.83
-10.74
-12.94
-15.29
-17.66
-19.97
-22.25
-24.63
-27.3
-30.41
-33.95
-37.74
-41.33
-44.09
-45.32
-44.49
-41.42
-36.34
-29.82
-22.65
-15.6
-9.23
-3.83
0.58
4.2
7.28
10.06
12.62
14.91
16.81
18.19
19.02
19.36
19.35
19.13
18.85
18.61
18.48
18.55
18.89
19.51
20.36
21.27
22.0
22.31
22.05
21.19
19.84
18.19
16.49
14.98
13.75
12.78
11.92
10.99
9.82
8.35
6.64
4.84
3.12
1.6
0.36
-0.65
-1.56
-2.54
-3.73
-5.22
-7.03
-9.09
-11.33
-13.68
-16.09
-18.51
-20.95
-23.45
-26.08
-28.97
-32.25
-35.89
-39.6
-42.84
-44.87
-45.05
-43.04
-38.94
-33.26
-26.73
-20.07
-13.76
-8.07
-3.03
1.38
5.21
8.47
11.17
13.34
15.06
16.41
17.43
18.13
18.52
18.63
18.59
18.58
18.79
19.35
20.21
21.17
22.0
22.52
22.68
22.54
22.21
21.71
21.0
20.03
18.78
17.37
15.98
14.77
13.72
12.68
11.43
9.84
7.95
5.95
4.07
2.48
1.17
-0.01
-1.26
-2.75
-4.56
-6.64
-8.85
-11.03
-13.03
-14.81
-16.4
-17.87
-19.34
-20.9
-22.64
-24.69
-27.14
-30.05
-33.29
-36.48
-38.98
-40.08
-39.2
-36.12
-31.07
-24.67
-17.68
-10.83
-4.56
0.92
5.67
9.8
13.4
16.44
18.81
20.42
21.25
21.42
21.18
20.8
20.49
20.32
20.25
20.19
20.08
19.94
19.83
19.82
19.98
20.25
20.49
20.53
20.21
19.43
18.23
16.75
15.18
13.67
12.24
10.82
9.26
7.5
5.61
3.75
2.16
0.9
-0.12
-1.16
-2.49
-4.27
-6.46
-8.87
-11.27
-13.51
-15.58
-17.57
-19.63
-21.91
-24.55
-27.6
-31.02
-34.59
-37.88
-40.28
-41.17
-40.11
-36.96
-31.96
-25.63
-18.63
-11.63
-5.14
0.55
5.32
9.21
12.34
14.81
16.67
17.99
18.81
19.26
19.47
19.59
19.64
19.59
19.35
18.95
18.49
18.21
18.29
18.76
19.47
20.09
20.33
20.0
19.15
17.94
16.62
15.33
14.11
12.86
11.45
9.8
7.93
5.96
4.06
2.37
0.92
-0.35
-1.59
-2.94
-4.51
-6.35
-8.44
-10.74
-13.12
-15.45
-17.58
-19.45
-21.15
-22.93
-25.13
-28.01
-31.63
-35.75
-39.81
-43.0
-44.57
-43.96
-41.02
-36.04
-29.66
-22.66
-15.73
-9.31
-3.59
1.44
5.82
9.57
12.69
15.17
17.08
18.5
19.54
20.24
20.63
20.74
20.63
20.4
20.17
20.04
20.03
20.14
20.31
20.48
20.6
20.58
20.34
19.86
19.15
18.28
17.35
16.43
15.51
14.49
13.24
11.66
9.74
7.57
5.3
3.08
0.96
-1.05
-2.97
-4.81
-6.57
-8.27
-9.96
-11.75
-13.72
-15.9
-18.24
-20.67
-23.14
-25.73
-28.6
-31.85
-35.38
-38.79
-41.46
-42.72
-42.03
-39.25
-34.58
-28.54
-21.81
-15.02
-8.66
-3.01
1.87
6.04
9.63
12.73
15.36
17.49
19.06
20.07
20.56
20.66
20.54
20.34
20.19
20.1
20.09
20.13
20.25
20.44
20.68
20.9
20.95
20.68
20.0
18.93
17.63
16.3
15.07
13.97
12.88
11.68
10.28
8.7
7.04
5.4
3.87
2.47
1.16
-0.14
-1.48
-2.93
-4.49
-6.16
-7.9
-9.69
-11.54
-13.49
-15.58
-17.87
-20.38
-23.15
-26.22
-29.56
-33.03
-36.29
-38.8
-39.96
-39.28
-36.57
-32.04
-26.22
-19.79
-13.4
-7.51
-2.31
2.23
6.24
9.85
13.13
16.0
18.34
20.03
21.0
21.33
21.17
20.75
20.29
19.98
19.93
20.18
20.68
21.36
22.11
22.8
23.3
23.51
23.37
22.84
21.93
20.66
19.09
17.3
15.37
13.41
11.5
9.71
8.04
6.42
4.8
3.14
1.45
-0.22
-1.81
-3.35
-4.88
-6.51
-8.33
-10.35
-12.56
-14.92
-17.46
-20.19
-23.18
-26.35
-29.49
-32.15
-33.82
-33.96
-32.31
-28.84
-23.89
-17.95
-11.63
-5.46
0.16
4.95
8.77
11.64
13.68
15.07
16.0
16.62
16.95
17.0
16.78
16.39
15.97
15.68
15.61
15.79
16.18
16.72
17.38
18.1
18.77
19.25
19.36
18.97
18.1
16.84
15.39
13.89
12.4
10.87
9.22
7.36
5.34
3.27
1.28
-0.52
-2.15
-3.7
-5.3
-7.04
-8.93
-10.95
-13.02
-15.08
-17.14
-19.25
-21.5
-23.99
-26.81
-30.0
-33.46
-36.88
-39.76
-41.46
-41.44
-39.39
-35.42
-29.94
-23.58
-16.94
-10.49
-4.53
0.77
5.31
9.05
11.99
14.21
15.8
16.9
17.65
18.15
18.47
18.69
18.9
19.14
19.44
19.8
20.21
20.64
21.07
21.45
21.68
21.65
21.27
20.47
19.29
17.88
16.39
15.0
13.77
12.67
11.54
10.18
8.46
6.39
4.12
1.9
-0.02
-1.56
-2.77
-3.81
-4.91
-6.19
-7.72
-9.44
-11.27
-13.15
-15.06
-17.05
-19.24
-21.73
-24.65
-28.04
-31.83
-35.75
-39.27
-41.74
-42.47
-41.02
-37.34
-31.83
-25.24
-18.4
-12.02
-6.46
-1.8
2.12
5.49
8.46
11.1
13.4
15.35
16.91
18.09
18.9
19.37
19.54
19.49
19.29
19.05
18.9
18.98
19.36
20.02
20.82
21.52
21.89
21.74
21.07
19.96
18.58
17.1
15.61
14.14
12.69
11.2
9.64
7.99
6.28
4.54
2.82
1.18
-0.39
-1.92
-3.44
-4.99
-6.59
-8.24
-9.99
-11.88
-13.9
-16.04
-18.23
-20.44
-22.76
-25.35
-28.35
-31.75
-35.2
-38.08
-39.64
-39.26
-36.72
-32.23
-26.36
-19.83
-13.29
-7.21
-1.83
2.78
6.64
9.8
12.31
14.27
15.75
16.87
17.74
18.46
19.07
19.58
19.94
20.14
20.19
20.2
20.27
20.5
20.88
21.34
21.73
21.89
21.71
21.16
20.24
19.06
17.71
16.29
14.85
13.42
11.95
10.4
8.74
6.96
5.08
3.15
1.2
-0.73
-2.62
-4.41
-6.1
-7.69
-9.25
-10.92
-12.81
-14.97
-17.38
-19.96
-22.68
-25.54
-28.57
-31.65
-34.47
-36.43
-36.87
-35.31
-31.66
-26.3
-19.97
-13.51
-7.55
-2.43
1.8
5.27
8.12
10.45
12.34
13.82
14.92
15.69
16.15
16.33
16.28
16.09
15.92
15.91
16.15
16.65
17.32
18.02
18.6
18.94
18.98
18.67
18.03
17.13
16.04
14.88
13.77
12.76
11.83
10.91
9.86
8.55
6.94
5.08
3.07
1.04
-0.92
-2.78
-4.55
-6.26
-7.94
-9.56
-11.17
-12.78
-14.51
-16.43
-18.57
-20.89
-23.3
-25.77
-28.36
-31.18
-34.25
-37.33
-39.91
-41.23
-40.64
-37.78
-32.83
-26.39
-19.3
-12.33
-6.02
-0.6
3.9
7.55
10.43
12.65
14.32
15.55
16.49
17.23
17.84
18.29
18.59
18.73
18.76
18.73
18.72
18.78
18.95
19.22
19.58
20.0
20.4
20.68
20.72
20.4
19.63
18.46
17.01
15.47
13.99
12.61
11.28
9.92
8.45
6.89
5.29
3.71
2.16
0.59
-1.04
-2.72
-4.38
-5.9
-7.23
-8.4
-9.56
-10.9
-12.54
-14.52
-16.73
-19.04
-21.34
-23.66
-26.14
-28.98
-32.26
-35.83
-39.26
-41.86
-42.92
-41.94
-38.79
-33.79
-27.59
-20.94
-14.54
-8.83
-4.0
0.03
3.44
6.44
9.15
11.58
13.64
15.27
16.44
17.21
17.68
17.97
18.15
18.26
18.33
18.44
18.71
19.21
19.89
20.6
21.14
21.31
21.05
20.42
19.53
18.51
17.44
16.35
15.25
14.15
13.01
11.77
10.36
8.72
6.89
5.0
3.27
1.85
0.79
-0.01
-0.76
-1.7
-2.96
-4.57
-6.44
-8.46
-10.55
-12.67
-14.79
-16.91
-19.01
-21.12
-23.33
-25.77
-28.57
-31.71
-34.92
-37.71
-39.4
-39.4
-37.31
-33.18
-27.43
-20.75
-13.85
-7.32
-1.49
3.52
7.71
11.14
13.78
15.68
16.91
17.61
17.97
18.15
18.23
18.2
18.02
17.64
17.13
16.58
16.15
15.98
16.12
16.52
17.01
17.39
17.48
17.18
16.52
15.62
14.63
13.7
12.85
12.02
11.09
9.91
8.42
6.65
4.74
2.87
1.18
-0.36
-1.89
-3.59
-5.58
-7.82
-10.17
-12.45
-14.58
-16.56
-18.43
-20.29
-22.19
-24.21
-26.51
-29.2
-32.33
-35.64
-38.6
-40.46
-40.53
-38.43
-34.21
-28.37
-21.63
-14.73
-8.24
-2.46
2.49
6.68
10.18
13.07
15.35
16.96
17.86
18.13
17.91
17.46
16.99
16.65
16.47
16.39
16.41
16.59
17.02
17.74
18.65
19.5
20.03
20.04
19.52
18.57
17.35
15.98
14.51
12.94
11.3
9.62
7.99
6.41
4.86
3.27
1.58
-0.21
-2.07
-3.92
-5.66
-7.27
-8.76
-10.21
-11.76
-13.53
-15.56
-17.83
-20.24
-22.72
-25.29
-28.09
-31.25
-34.77
-38.39
-41.56
-43.62
-43.91
-42.11
-38.22
-32.67
-26.11
-19.23
-12.62
-6.61
-1.35
3.22
7.17
10.57
13.43
15.77
17.6
18.95
19.9
20.48
20.75
20.78
20.62
20.42
20.29
20.38
20.74
21.39
22.24
23.13
23.82
24.11
23.85
22.99
21.62
19.88
17.97
16.06
14.29
12.71
11.3
10.01
8.71
7.3
5.69
3.84
1.8
-0.32
-2.42
-4.43
-6.33
-8.16
-9.99
-11.87
-13.81
-15.81
-17.88
-20.06
-22.48
-25.27
-28.56
-32.35
-36.45
-40.42
-43.64
-45.44
-45.28
-42.91
-38.45
-32.38
-25.4
-18.2
-11.33
-5.08
0.47
5.38
9.69
13.42
16.48
18.83
20.47
21.5
22.06
22.31
22.35
22.24
22.04
21.81
21.63
21.63
21.84
22.24
22.75
23.25
23.63
23.78
23.62
23.12
22.26
21.11
19.79
18.45
17.17
15.92
14.64
13.2
11.57
9.78
7.95
6.21
4.68
3.36
2.2
1.07
-0.18
-1.65
-3.37
-5.24
-7.11
-8.84
-10.39
-11.82
-13.35
-15.2
-17.57
-20.52
-24.03
-27.89
-31.72
-34.98
-36.99
-37.17
-35.17
-31.07
-25.35
-18.77
-12.12
-5.98
-0.64
3.9
7.72
10.92
13.51
15.47
16.78
17.53
17.88
18.06
18.23
18.47
18.73
18.92
18.97
18.9
18.82
18.9
19.23
19.77
20.34
20.7
20.63
20.07
19.08
17.8
16.39
14.97
13.6
12.28
10.98
9.63
8.16
6.49
4.59
2.55
0.55
-1.18
-2.52
-3.52
-4.41
-5.51
-7.02
-8.96
-11.15
-13.36
-15.42
-17.35
-19.3
-21.53
-24.18
-27.27
-30.63
-33.96
-36.83
-38.81
-39.5
-38.57
-35.92
-31.66
-26.17
-19.97
-13.62
-7.58
-2.12
2.68
6.87
10.53
13.72
16.38
18.42
19.73
20.29
