0
10.13
10.97
11.93
12.84
13.62
14.28
14.79
15.08
15.04
14.55
13.6
12.29
10.84
9.49
8.41
7.6
6.93
6.16
5.06
3.5
1.61
-0.34
-2.01
-3.18
-3.87
-4.32
-4.96
-6.14
-7.97
-10.35
-13.0
-15.6
-17.94
-19.93
-21.51
-22.67
-23.49
-24.1
-24.74
-25.62
-26.76
-27.86
-28.38
-27.72
-25.5
-21.75
-16.96
-11.86
-7.14
-3.22
-0.18
2.2
4.22
6.1
7.91
9.54
10.79
11.49
11.61
11.32
10.88
10.62
10.75
11.28
12.09
12.91
13.53
13.85
13.92
13.9
13.9
13.95
13.88
13.49
12.63
11.3
9.7
8.12
6.8
5.82
5.12
4.5
3.8
2.95
1.98
0.99
0.11
-0.62
-1.22
-1.81
-2.62
-3.87
-5.7
-8.11
-10.94
-13.94
-16.87
-19.59
-22.04
-24.23
-26.14
-27.78
-29.25
-30.73
-32.35
-34.13
-35.77
-36.73
-36.41
-34.47
-30.96
-26.41
-21.52
-16.92
-12.97
-9.64
-6.68
-3.86
-1.1
1.44
3.43
4.6
4.89
4.57
4.16
4.25
5.29
7.41
10.42
13.89
17.35
20.42
22.85
24.61
25.75
26.41
26.75
26.88
26.86
26.69
26.27
25.51
24.31
22.65
20.51
18.0
15.21
12.31
9.51
7.04
5.11
3.77
2.89
2.21
1.4
0.18
-1.49
-3.48
-5.57
-7.58
-9.42
-11.13
-12.72
-14.16
-15.32
-16.13
-16.6
-16.88
-17.15
-17.4
-17.39
-16.74
-15.06
-12.23
-8.45
-4.16
0.14
4.14
7.7
10.87
13.73
16.28
18.46
20.15
21.21
21.58
21.21
20.16
18.55
16.6
14.56
12.69
11.15
10.01
9.24
8.76
8.46
8.28
8.12
7.87
7.37
6.51
5.29
3.88
2.64
1.94
2.05
2.97
4.43
5.96
7.11
7.6
7.4
6.73
5.82
4.84
3.81
2.64
1.18
-0.68
-2.97
-5.65
-8.62
-11.73
-14.79
-17.63
-20.12
-22.29
-24.26
-26.16
-27.99
-29.56
-30.48
-30.39
-29.05
-26.55
-23.18
-19.35
-15.4
-11.56
-7.95
-4.65
-1.65
1.1
3.71
6.24
8.66
10.73
12.2
12.91
12.98
12.78
12.73
13.12
13.97
15.01
15.92
16.49
16.73
16.79
16.79
16.7
16.33
15.46
13.99
12.04
9.9
7.89
6.26
5.01
3.99
2.96
1.73
0.31
-1.14
-2.44
-3.5
-4.38
-5.26
-6.28
-7.44
-8.62
-9.69
-10.62
-11.58
-12.82
-14.49
-16.51
-18.61
-20.5
-22.06
-23.41
-24.71
-26.01
-27.02
-27.23
-26.17
-23.65
-19.92
-15.54
-11.17
-7.22
-3.89
-1.13
1.2
3.25
5.1
6.74
8.12
9.11
9.6
9.59
9.19
8.64
8.22
8.09
8.3
8.74
9.27
9.8
10.3
10.79
11.3
11.72
11.93
11.81
11.27
10.34
9.12
7.72
6.24
4.75
3.24
1.73
0.2
-1.32
-2.76
-4.03
-5.04
-5.67
-5.86
-5.64
-5.09
-4.42
-3.87
-3.68
-3.99
-4.71
-5.63
-6.46
-7.03
-7.41
-7.83
-8.63
-10.01
-11.91
-14.05
-16.06
-17.76
-19.15
-20.43
-21.71
-22.85
-23.4
-22.8
-20.69
-17.17
-12.79
-8.32
-4.46
-1.53
0.59
2.26
3.91
5.77
7.83
9.88
11.71
13.1
13.93
14.21
14.02
13.57
13.12
12.97
13.34
14.29
15.7
17.27
18.72
19.84
20.56
20.96
21.15
21.22
21.17
21.0
20.68
20.26
19.83
19.49
19.29
19.21
19.16
19.02
18.74
18.3
17.73
17.08
16.39
15.67
14.92
14.13
13.3
12.47
11.67
10.9
10.11
9.15
7.83
5.97
3.5
0.5
-2.78
-6.02
-8.99
-11.64
-14.09
-16.53
-19.01
-21.33
-23.06
-23.74
-23.06
-21.04
-18.01
-14.41
-10.68
-7.11
-3.87
-1.04
1.4
3.46
5.18
6.57
7.6
8.16
8.12
7.49
6.44
5.27
4.29
3.74
3.62
3.78
4.06
4.31
4.55
4.83
5.24
5.75
6.28
6.66
6.72
6.34
5.52
4.36
3.04
1.75
0.61
-0.36
-1.26
-2.17
-3.09
-3.92
-4.52
-4.82
-4.89
-4.89
-5.02
-5.44
-6.21
-7.3
-8.6
-9.97
-11.24
-12.32
-13.21
-14.03
-14.99
-16.27
-17.94
-19.87
-21.85
-23.71
-25.45
-27.16
-28.86
-30.41
-31.41
-31.38
-30.0
-27.24
-23.4
-18.97
-14.44
-10.14
-6.22
-2.7
0.46
3.34
5.96
8.35
10.47
12.2
13.39
13.96
13.98
13.68
13.37
13.36
13.74
14.46
15.27
15.93
16.28
16.33
16.16
15.91
15.57
15.06
14.25
13.06
11.58
9.99
8.56
7.39
6.44
5.53
4.4
2.96
1.28
-0.38
-1.75
-2.7
-3.3
-3.77
-4.36
-5.17
-6.13
-7.07
-7.85
-8.5
-9.19
-10.14
-11.46
-13.06
-14.74
-16.31
-17.7
-19.04
-20.53
-22.25
-24.08
-25.81
-27.25
-28.42
-29.49
-30.58
-31.55
-31.92
-31.05
-28.51
-24.33
-19.05
-13.51
-8.47
-4.29
-0.91
2.01
4.73
7.34
9.68
11.5
12.69
13.3
13.53
13.6
13.65
13.73
13.81
13.88
13.99
14.21
14.61
15.2
15.92
16.66
17.3
17.77
18.03
18.06
17.85
17.42
16.8
16.05
15.27
14.51
13.78
13.06
12.33
11.6
10.9
10.29
9.77
9.32
8.89
8.5
8.2
8.01
7.9
7.77
7.44
6.79
5.85
4.75
3.68
2.68
1.67
0.48
-1.03
-2.82
-4.7
-6.41
-7.83
-9.08
-10.38
-11.93
-13.63
-15.07
-15.67
-14.99
-12.99
-10.08
-6.91
-4.07
-1.83
-0.11
1.34
2.78
4.31
5.86
7.29
8.49
9.38
9.85
9.88
9.5
8.9
8.38
8.23
8.63
9.51
10.64
11.77
12.77
13.65
14.49
15.3
15.94
16.17
15.79
14.75
13.25
11.6
10.14
9.05
8.31
7.76
7.21
6.56
5.81
5.08
4.44
3.93
3.46
2.89
2.09
1.03
-0.22
-1.59
-2.99
-4.46
-6.05
-7.81
-9.68
-11.58
-13.41
-15.16
-16.89
-18.63
-20.32
-21.8
-22.92
-23.69
-24.35
-25.2
-26.4
-27.73
-28.62
-28.37
-26.52
-23.1
-18.66
-13.98
-9.7
-6.13
-3.19
-0.7
1.51
3.43
4.97
6.09
6.85
7.44
8.02
8.65
9.26
9.7
9.85
9.71
9.42
9.24
9.44
10.22
11.58
13.41
15.46
17.41
18.96
19.87
19.99
19.29
17.88
15.96
13.81
11.73
9.95
8.58
7.58
6.81
6.1
5.34
4.55
3.79
3.13
2.55
1.93
1.12
0.02
-1.34
-2.82
-4.26
-5.57
-6.82
-8.16
-9.75
-11.67
-13.96
-16.56
-19.37
-22.24
-24.91
-27.18
-28.91
-30.23
-31.43
-32.85
-34.56
-36.24
-37.26
-36.91
-34.84
-31.17
-26.52
-21.64
-17.15
-13.3
-10.04
-7.16
-4.48
-1.92
0.43
2.45
3.97
4.91
5.26
5.15
4.87
4.75
5.14
6.23
7.99
10.21
12.54
14.62
16.25
17.36
18.06
18.54
18.92
19.24
19.4
19.27
18.71
17.67
16.22
14.5
12.71
11.02
9.59
8.46
7.58
6.81
5.97
4.9
3.54
2.01
0.47
-0.89
-1.99
-2.89
-3.74
-4.69
-5.81
-7.1
-8.52
-10.02
-11.58
-13.18
-14.75
-16.17
-17.34
-18.25
-18.98
-19.6
-20.09
-20.28
-19.84
-18.48
-16.04
-12.65
-8.57
-4.18
0.27
4.6
8.68
12.39
15.59
18.19
20.16
21.61
22.67
23.44
23.89
24.0
23.77
23.33
22.91
22.68
22.7
22.79
22.71
22.27
21.49
20.59
19.87
19.48
19.29
18.92
17.95
16.16
13.65
10.88
8.37
6.47
5.25
4.45
3.75
2.9
1.85
0.67
-0.52
-1.71
-3.0
-4.51
-6.32
-8.31
-10.32
-12.15
-13.73
-15.14
-16.5
-17.91
-19.37
-20.81
-22.15
-23.43
-24.72
-26.07
-27.31
-28.06
-27.84
-26.31
-23.42
-19.5
-15.09
-10.7
-6.61
-2.89
0.52
3.69
6.6
9.16
11.23
12.71
13.53
13.69
13.26
12.42
11.42
10.57
10.07
10.03
10.35
10.86
11.39
11.87
12.31
12.8
13.37
13.99
14.51
14.72
14.48
13.71
12.51
11.11
9.74
8.56
7.6
6.7
5.63
4.22
2.48
0.59
-1.14
-2.49
-3.44
-4.2
-5.09
-6.35
-7.99
-9.82
-11.57
-13.08
-14.47
-15.98
-17.85
-20.08
-22.46
-24.63
-26.41
-27.8
-28.94
-29.95
-30.69
-30.8
-29.88
-27.69
-24.29
-20.08
-15.55
-11.15
-7.11
-3.48
-0.24
2.62
5.06
7.02
8.47
9.43
9.96
10.14
10.06
9.81
9.5
9.24
9.16
9.31
9.69
10.19
10.71
11.17
11.55
11.86
12.13
12.29
12.22
11.78
10.84
9.43
7.69
5.85
4.1
2.61
1.43
0.6
0.12
-0.02
0.11
0.43
0.85
1.29
1.74
2.13
2.31
2.06
1.18
-0.39
-2.41
-4.53
-6.37
-7.83
-9.05
-10.41
-12.19
-14.44
-16.97
-19.52
-21.93
-24.17
-26.23
-27.98
-29.03
-28.89
-27.25
-24.09
-19.79
-14.96
-10.17
-5.74
-1.7
2.04
5.59
8.97
12.05
14.67
16.74
18.28
19.37
20.19
20.88
21.61
22.46
23.48
24.67
25.97
27.32
28.65
29.88
30.97
31.82
32.32
32.38
31.9
30.87
29.39
27.58
25.56
23.49
21.41
19.41
17.49
15.62
13.7
11.61
9.21
6.49
3.6
0.78
-1.7
-3.66
-5.13
-6.28
-7.29
-8.35
-9.58
-11.04
-12.77
-14.76
-16.87
-18.89
-20.54
-21.7
-22.42
-22.94
-23.51
-24.15
-24.66
-24.64
-23.74
-21.79
-18.89
-15.32
-11.38
-7.35
-3.48
-0.01
2.89
5.14
6.75
7.81
8.4
8.47
7.92
6.78
5.26
3.79
2.81
2.62
3.22
4.33
5.57
6.62
7.33
7.76
8.02
8.3
8.65
9.06
9.44
9.67
9.63
9.37
9.01
8.69
8.51
8.37
8.07
7.45
6.48
5.3
4.19
3.31
2.62
1.83
0.58
-1.38
-3.99
-6.93
-9.8
-12.32
-14.46
-16.41
-18.39
-20.48
-22.56
-24.38
-25.75
-26.66
-27.23
-27.61
-27.8
-27.6
-26.69
-24.85
-22.11
-18.79
-15.34
-12.17
-9.47
-7.14
-4.99
-2.83
-0.58
1.63
3.56
4.98
5.76
5.9
5.61
5.17
4.85
4.79
5.01
5.4
5.82
6.18
6.44
6.65
6.85
7.03
7.13
7.04
6.68
6.07
5.28
4.39
3.5
2.63
1.75
0.81
-0.18
-1.19
-2.13
-2.92
-3.52
-3.91
-4.1
-4.07
-3.78
-3.23
-2.53
-1.88
-1.47
-1.45
-1.83
-2.52
-3.48
-4.73
-6.36
-8.46
-10.98
-13.74
-16.51
-19.12
-21.44
-23.34
-24.58
-24.82
-23.81
-21.5
-18.16
-14.27
-10.29
-6.46
-2.84
0.6
3.81
6.63
8.89
10.54
11.74
12.74
13.68
14.56
15.27
15.78
16.28
17.1
18.55
20.73
23.43
26.24
28.72
30.6
31.82
32.46
32.6
32.23
31.33
29.86
27.96
25.83
23.79
22.07
20.75
19.74
18.76
17.58
16.05
14.21
12.24
10.34
8.57
6.83
4.93
2.68
0.03
-2.9
-5.86
-8.61
-11.03
-13.05
-14.71
-16.11
-17.39
-18.79
-20.52
-22.6
-24.75
-26.41
-26.9
-25.81
-23.15
-19.42
-15.38
-11.68
-8.63
-6.13
-3.9
-1.67
0.67
3.05
5.29
7.16
8.49
9.18
9.19
8.66
7.82
7.01
6.51
6.52
7.08
8.04
9.19
10.31
11.21
11.79
11.93
11.54
10.6
9.13
7.32
5.47
3.92
2.88
2.36
2.08
1.66
0.78
-0.66
-2.46
-4.21
-5.51
-6.18
-6.28
-6.16
-6.26
-6.9
-8.18
-9.97
-12.0
-13.98
-15.74
-17.22
-18.45
-19.48
-20.38
-21.29
-22.39
-23.81
-25.49
-27.11
-28.08
-27.84
-26.1
-22.97
-18.94
-14.63
-10.47
-6.65
-3.08
0.38
3.72
6.77
9.33
11.25
12.54
13.35
13.83
14.09
14.18
14.17
14.23
14.61
15.47
16.79
18.26
19.45
19.96
19.73
18.99
18.16
17.56
17.24
16.95
16.35
15.21
13.59
11.75
9.99
8.5
7.2
5.92
4.46
2.75
0.88
-0.95
-2.58
-3.89
-4.89
-5.69
-6.42
-7.24
-8.27
-9.52
-10.97
-12.56
-14.3
-16.25
-18.44
-20.81
-23.18
-25.32
-27.12
-28.65
-30.08
-31.53
-32.83
-33.6
-33.34
-31.74
-28.88
-25.22
-21.34
-17.69
-14.37
-11.23
-8.08
-4.85
-1.69
1.09
3.18
4.45
4.93
4.82
4.44
4.12
4.13
4.65
5.72
7.26
9.06
10.91
12.65
14.17
15.48
16.58
17.45
18.03
18.26
18.12
17.66
16.92
15.99
14.94
13.83
12.7
11.57
10.45
9.27
7.95
6.42
4.7
2.95
1.39
0.2
-0.6
-1.16
-1.76
-2.62
-3.8
-5.17
-6.5
-7.6
-8.5
-9.37
-10.42
-11.71
-13.09
-14.33
-15.25
-15.87
-16.37
-16.89
-17.33
-17.33
-16.4
-14.23
-10.86
-6.7
-2.3
1.9
5.71
9.18
12.4
15.38
18.04
20.27
22.03
23.38
24.38
25.05
25.32
25.17
24.57
23.64
22.5
21.29
20.14
19.15
18.4
17.91
17.67
17.56
17.4
16.99
16.23
15.09
13.67
12.09
10.44
8.82
7.3
5.92
4.71
3.66
2.69
1.69
0.55
-0.8
-2.31
-3.91
-5.51
-7.08
-8.68
-10.38
-12.27
-14.33
-16.46
-18.44
-20.11
-21.37
-22.33
-23.24
-24.41
-26.0
-27.85
-29.48
-30.2
-29.43
-26.95
-23.04
-18.37
-13.68
-9.46
-5.84
-2.66
0.3
3.16
5.81
8.05
9.71
10.69
11.04
10.87
10.38
9.78
9.32
9.25
9.73
10.76
12.2
13.75
15.15
16.2
16.85
17.16
17.2
16.99
16.48
15.64
14.52
13.19
11.82
10.49
9.19
7.86
6.42
4.88
3.35
1.95
0.77
-0.19
-1.03
-1.88
-2.88
-4.13
-5.7
-7.58
-9.66
-11.74
-13.57
-15.05
-16.28
-17.54
-19.09
-21.02
-23.11
-25.01
-26.49
-27.55
-28.42
-29.27
-29.96
-30.06
-29.0
-26.46
-22.57
-17.83
-12.92
-8.32
-4.18
-0.43
3.04
6.23
8.99
11.09
12.42
13.01
13.02
12.65
12.1
11.45
10.78
10.17
9.75
9.72
10.21
11.23
12.59
13.92
14.77
14.9
14.26
13.09
11.68
10.27
8.94
7.57
6.11
4.54
3.04
1.82
0.98
0.43
-0.13
-1.01
-2.41
-4.28
-6.36
-8.31
-9.86
-10.9
-11.51
-11.86
-12.18
-12.62
-13.27
-14.16
-15.22
-16.37
-17.48
-18.39
-19.0
-19.34
-19.55
-19.83
-20.4
-21.29
-22.32
-23.08
-23.07
-21.92
-19.53
-16.11
-12.1
-7.94
-3.92
-0.15
3.4
6.74
9.81
12.44
14.49
15.9
16.73
17.09
17.09
16.81
16.33
15.77
15.25
14.97
15.05
15.6
16.6
17.97
19.53
21.1
22.51
23.66
24.5
25.01
25.19
25.02
24.5
23.71
22.81
21.97
21.3
20.74
20.06
19.0
17.44
15.52
13.56
11.94
10.85
10.24
9.76
9.0
7.68
5.74
3.32
0.64
-2.16
-5.02
-7.95
-10.88
-13.67
-16.14
-18.17
-19.85
-21.38
-22.91
-24.35
-25.33
-25.36
-24.06
-21.38
-17.66
-13.45
-9.32
-5.62
-2.47
0.18
2.48
4.55
6.48
8.28
9.87
11.1
11.76
11.79
11.32
10.7
10.37
10.69
11.69
13.09
14.43
15.33
15.61
15.38
14.94
14.54
14.25
13.95
13.42
12.46
11.06
9.39
7.72
6.29
5.17
4.27
3.4
2.36
1.05
-0.52
-2.2
-3.83
-5.26
-6.47
-7.54
-8.61
-9.8
-11.12
-12.54
-13.96
-15.34
-16.7
-18.1
-19.57
-21.07
-22.53
-23.95
-25.39
-26.95
-28.54
-29.84
-30.3
-29.39
-26.83
-22.83
-17.93
-12.86
-8.15
-4.1
-0.67
2.33
5.05
7.54
9.74
11.56
12.88
13.68
13.92
13.65
13.0
12.2
11.49
11.11
11.19
11.73
12.57
13.48
14.26
14.78
15.02
15.01
14.83
14.53
14.16
13.72
13.2
12.56
11.76
10.81
9.77
8.74
7.8
6.99
6.23
5.41
4.43
3.25
1.89
0.48
-0.9
-2.22
-3.5
-4.83
-6.28
-7.92
-9.76
-11.77
-13.88
-15.98
-18.04
-20.05
-22.08
-24.21
-26.49
-28.92
-31.45
-34.01
-36.41
-38.42
-39.64
-39.67
-38.23
-35.35
-31.35
-26.79
-22.23
-17.98
-14.05
-10.25
-6.38
-2.39
1.52
5.07
8.01
10.25
11.87
13.03
13.94
14.76
15.59
16.45
17.35
18.26
19.11
19.88
20.5
20.99
21.32
21.48
21.41
21.03
20.27
19.13
17.68
16.06
14.45
13.0
11.76
10.71
9.79
8.94
8.09
7.25
6.36
5.4
4.35
3.26
2.22
1.33
0.55
-0.24
-1.25
-2.62
-4.26
-5.9
-7.21
-7.99
-8.35
-8.64
-9.25
-10.4
-12.07
-14.04
-16.12
-18.17
-20.11
-21.76
-22.73
-22.53
-20.79
-17.5
-13.08
-8.27
-3.8
-0.08
2.9
5.39
7.72
10.07
12.46
14.75
16.75
18.31
19.3
19.65
19.41
18.74
17.91
17.21
16.85
16.8
16.9
16.97
16.89
16.76
16.76
16.99
17.34
17.51
17.14
16.02
14.24
12.15
10.22
8.77
7.84
7.23
6.58
5.63
4.3
2.74
1.17
-0.3
-1.73
-3.28
-5.13
-7.27
-9.51
-11.55
-13.19
-14.42
-15.43
-16.5
-17.77
-19.21
-20.7
-22.11
-23.47
-24.94
-26.62
-28.34
-29.65
-29.88
-28.51
-25.41
-20.91
-15.7
-10.54
-5.98
-2.19
0.92
3.56
5.91
8.04
9.9
11.42
12.54
13.22
13.43
13.21
12.62
11.85
11.11
10.63
10.53
10.81
11.33
11.87
12.28
12.51
12.6
12.64
12.61
12.4
11.9
11.03
9.88
8.67
7.63
6.83
6.17
5.44
4.45
3.18
1.8
0.57
-0.35
-0.99
-1.52
-2.22
-3.27
-4.74
-6.52
-8.46
-10.41
-12.29
-14.13
-15.98
-17.9
-19.93
-22.06
-24.28
-26.52
-28.67
-30.48
-31.58
-31.6
-30.3
-27.7
-24.08
-19.89
-15.52
-11.23
-7.06
-2.99
0.95
4.64
7.86
10.42
12.21
13.23
13.56
13.38
12.91
12.41
12.12
12.25
12.86
13.88
15.15
16.42
17.52
18.35
18.87
19.09
18.99
18.49
17.5
16.02
14.14
12.08
10.12
8.5
7.29
6.34
5.38
4.15
2.53
0.64
-1.19
-2.65
-3.53
-3.9
-4.05
-4.42
-5.38
-7.06
-9.31
-11.76
-14.03
-15.93
-17.5
-18.96
-20.55
-22.42
-24.58
-26.99
-29.57
-32.18
-34.6
-36.43
-37.19
-36.49
-34.18
-30.44
-25.77
-20.74
-15.85
-11.4
-7.5
-4.12
-1.13
1.61
4.22
6.7
8.99
10.92
12.33
13.2
13.67
13.97
14.34
14.91
15.73
16.76
17.96
19.25
20.52
21.63
22.36
22.57
22.23
21.42
20.32
19.09
17.8
16.47
15.09
13.66
12.26
10.97
9.8
8.75
7.75
6.76
5.77
4.76
3.75
2.72
1.64
0.44
-0.92
-2.46
-4.17
-6.0
-7.9
-9.81
-11.66
-13.43
-15.15
-16.85
-18.56
-20.27
-21.87
-23.17
-23.95
-23.95
-22.98
-20.98
-18.01
-14.32
-10.17
-5.84
-1.54
2.6
6.49
10.05
13.2
15.92
18.19
20.05
21.5
22.49
22.94
22.82
22.21
21.35
20.54
20.06
20.05
20.44
21.06
21.68
22.1
22.22
21.98
21.35
20.3
18.83
16.98
14.9
12.81
10.92
9.35
8.09
7.0
5.92
4.74
3.49
2.31
1.34
0.67
0.21
-0.23
-0.93
-2.1
-3.78
-5.89
-8.25
-10.68
-13.08
-15.41
-17.65
-19.74
-21.58
-23.11
-24.38
-25.51
-26.59
-27.56
-28.12
-27.86
-26.41
-23.66
-19.83
-15.33
-10.62
-6.02
-1.7
2.25
5.76
8.68
10.9
12.37
13.13
13.37
13.25
12.91
12.49
12.14
12.07
12.48
13.47
14.98
16.7
18.26
19.31
19.69
19.48
18.89
18.14
17.35
16.48
15.47
14.22
12.79
11.27
9.82
8.51
7.36
6.24
5.0
3.54
1.86
0.09
-1.57
-2.99
-4.18
-5.32
-6.66
-8.36
-10.37
-12.48
-14.47
-16.19
-17.76
-19.43
-21.45
-23.96
-26.92
-30.11
-33.24
-35.95
-37.88
-38.64
-37.92
-35.61
-31.86
-27.08
-21.86
-16.72
-11.97
-7.71
-3.82
-0.19
3.23
6.39
9.17
11.48
13.28
14.55
15.31
15.62
15.57
15.3
14.99
14.81
14.86
15.13
15.53
15.94
16.28
16.56
16.81
17.05
17.19
17.1
16.62
15.65
14.19
12.41
10.55
8.82
7.34
6.1
4.9
3.56
1.93
0.05
-1.9
-3.66
-5.08
-6.18
-7.15
-8.29
-9.77
-11.6
-13.58
-15.52
-17.28
-18.97
-20.76
-22.84
-25.24
-27.84
-30.46
-32.91
-35.03
-36.58
-37.25
-36.69
-34.66
-31.14
-26.38
-20.86
-15.11
-9.56
-4.46
0.16
4.36
8.23
11.81
15.01
17.61
19.38
20.14
19.9
18.88
17.51
16.24
15.4
15.15
15.41
16.01
16.72
17.37
17.86
18.14
18.23
18.18
18.01
17.74
17.33
16.75
15.98
15.04
13.97
12.79
11.49
10.04
8.42
6.71
5.05
3.63
2.58
1.91
1.52
1.22
0.79
0.04
-1.09
-2.55
-4.19
-5.78
-7.12
-8.1
-8.74
-9.22
-9.73
-10.48
-11.58
-13.0
-14.63
-16.22
-17.43
-17.86
-17.15
-15.05
-11.65
-7.29
-2.57
1.93
5.78
8.81
11.08
12.75
13.99
14.89
15.44
15.59
15.29
14.51
13.31
11.88
10.45
9.3
8.62
8.53
8.97
9.78
10.79
11.81
12.73
13.45
13.87
13.92
13.56
12.83
11.87
10.87
10.03
9.45
9.09
8.76
8.19
7.14
5.54
3.55
1.48
-0.3
-1.59
-2.44
-3.13
-4.0
-5.27
-6.97
-8.93
-10.94
-12.86
-14.68
-16.45
-18.19
-19.93
-21.67
-23.51
-25.58
-27.94
-30.39
-32.44
-33.41
-32.75
-30.24
-26.14
-21.08
-15.79
-10.83
-6.46
-2.67
0.65
3.63
6.28
8.52
10.25
11.41
12.07
12.35
12.45
12.51
12.61
12.79
13.09
13.56
14.24
15.08
15.99
16.81
17.4
17.72
17.73
17.45
16.81
15.81
14.47
12.93
11.37
9.94
8.66
7.38
5.91
4.12
2.09
0.04
-1.77
-3.18
-4.22
-5.08
-5.98
-7.05
-8.3
-9.64
-10.94
-12.13
-13.25
-14.33
-15.44
-16.58
-17.75
-19.01
-20.47
-22.21
-24.17
-26.02
-27.28
-27.48
-26.34
-23.9
-20.49
-16.54
-12.46
-8.51
-4.8
-1.39
1.68
4.37
6.64
8.41
9.62
10.24
10.29
9.95
9.51
9.3
9.53
10.18
11.05
11.77
12.08
11.85
11.17
10.24
9.3
8.49
7.82
7.21
6.56
5.81
5.0
4.2
3.49
2.89
2.36
1.82
1.24
0.6
-0.03
-0.56
-0.91
-1.08
-1.15
-1.26
-1.58
-2.2
-3.15
-4.38
-5.75
-7.18
-8.6
-10.07
-11.68
-13.5
-15.53
-17.73
-20.03
-22.35
-24.55
-26.42
-27.63
-27.84
-26.81
-24.54
-21.26
-17.42
-13.47
-9.69
-6.19
-2.93
0.19
3.14
5.89
8.32
10.41
12.2
13.74
15.06
16.2
17.12
17.81
18.28
18.67
19.1
19.75
20.68
21.87
23.18
24.47
25.56
26.26
26.44
26.0
24.97
23.46
21.68
19.91
18.36
17.1
15.99
14.78
13.18
11.05
8.44
5.63
2.93
0.59
-1.31
-2.91
-4.4
-5.97
-7.67
-9.46
-11.21
-12.81
-14.23
-15.52
-16.8
-18.17
-19.69
-21.27
-22.68
-23.59
-23.67
-22.68
-20.6
-17.58
-13.97
-10.12
-6.32
-2.74
0.58
3.67
6.51
9.05
11.16
12.65
13.35
13.23
12.36
11.05
9.65
8.53
7.93
7.92
8.39
9.18
10.08
10.95
11.67
12.14
12.26
11.95
11.2
10.05
8.67
7.2
5.83
4.66
3.72
2.99
2.38
1.77
1.09
0.32
-0.48
-1.19
-1.76
-2.27
-2.92
-3.97
-5.53
-7.47
-9.5
-11.33
-12.82
-14.07
-15.34
-16.83
-18.59
-20.54
-22.59
-24.72
-26.95
-29.13
-30.84
-31.49
-30.48
-27.63
-23.21
-17.95
-12.69
-8.03
-4.2
-1.08
1.57
3.96
6.14
8.07
9.66
10.85
11.63
12.01
12.06
11.95
11.91
12.22
13.02
14.3
15.85
17.35
18.5
19.14
19.33
19.18
18.83
18.28
17.45
16.28
14.8
13.14
11.51
9.99
8.58
7.11
5.43
3.49
1.4
-0.64
-2.38
-3.7
-4.64
-5.41
-6.26
-7.39
-8.85
-10.56
-12.39
-14.28
-16.25
-18.37
-20.67
-23.06
-25.38
-27.53
-29.51
-31.46
-33.41
-35.21
-36.39
-36.39
-34.74
-31.36
-26.58
-21.06
-15.47
-10.32
-5.82
-1.95
1.45
4.52
7.37
10.01
12.34
14.23
15.52
16.14
16.19
15.91
15.55
15.32
15.3
15.46
15.76
16.18
16.76
17.48
18.27
18.97
19.33
19.19
18.46
17.25
15.73
14.18
12.83
11.8
11.07
10.44
9.66
8.53
7.06
5.44
4.0
2.97
2.32
1.82
1.15
0.13
-1.19
-2.57
-3.74
-4.63
-5.37
-6.25
-7.45
-9.0
-10.76
-12.52
-14.14
-15.58
-16.76
-17.53
-17.67
-16.95
-15.31
-12.91
-10.05
-7.04
-4.1
-1.28
1.43
4.02
6.46
8.69
10.65
12.3
13.61
14.55
15.09
15.31
15.37
15.5
15.89
16.52
17.24
17.75
17.84
17.47
16.79
16.06
15.44
14.92
14.37
13.58
12.47
11.06
9.48
7.87
6.25
4.61
2.93
1.26
-0.28
-1.56
-2.56
-3.4
-4.32
-5.48
-6.96
-8.64
-10.37
-12.06
-13.73
-15.46
-17.28
-19.11
-20.8
-22.26
-23.62
-25.11
-26.94
-28.96
-30.68
-31.35
-30.33
-27.42
-23.0
-17.81
-12.68
-8.13
-4.28
-0.93
2.2
5.33
8.43
11.35
13.85
15.66
16.66
16.82
16.31
15.4
14.43
13.71
13.41
13.56
14.04
14.71
15.44
16.1
16.59
16.79
16.62
15.99
14.97
13.66
12.24
10.86
9.61
8.48
7.42
6.32
5.13
3.82
2.46
1.15
0.03
-0.83
-1.42
-1.91
-2.53
-3.49
-4.89
-6.68
-8.69
-10.79
-12.92
-15.1
-17.35
-19.6
-21.75
-23.73
-25.51
-27.13
-28.53
-29.47
-29.55
-28.38
-25.8
-21.99
-17.43
-12.69
-8.16
-4.01
-0.21
3.32
6.56
9.41
11.75
13.52
14.76
15.57
16.04
16.23
16.14
15.78
15.22
14.58
14.07
13.9
14.14
14.74
15.46
15.97
15.99
15.42
14.33
12.95
11.56
10.34
9.34
8.48
7.6
6.52
5.2
3.64
1.99
0.48
-0.66
-1.28
-1.44
-1.44
-1.69
-2.53
-4.02
-5.81
-7.27
-7.75
-6.97
-5.22
-3.34
-2.34
-2.92
-5.04
-7.91
-10.35
-11.31
-10.47
-8.31
-5.87
-4.14
-3.52
-3.62
-3.42
-1.77
2.19
8.83
17.96
28.71
39.22
46.47
46.6
36.09
13.38
-19.77
-58.0
-93.83
-120.21
-133.01
-132.26
-121.5
-105.65
-88.88
-73.24
-58.91
-45.25
-31.95
-19.42
-8.32
1.11
9.5
18.07
27.89
39.13
50.86
61.38
69.08
73.06
73.53
71.6
68.79
66.43
65.14
64.66
63.94
61.45
55.84
46.52
34.03
19.96
6.47
-4.49
-11.79
-15.38
-16.12
-15.21
-13.73
-12.38
-11.43
-10.97
-10.9
-11.06
-11.2
-11.02
-10.26
-8.83
-6.84
-4.5
-2.12
0.05
1.84
3.14
4.0
4.56
5.04
5.58
6.17
6.65
6.78
6.45
5.78
5.05
4.61
4.65
5.16
6.0
7.02
8.13
9.32
10.59
11.88
13.01
13.76
13.98
13.63
12.79
11.62
10.31
8.98
7.68
6.39
5.08
3.73
2.33
0.85
-0.76
-2.57
-4.57
-6.7
-8.83
-10.88
-12.84
-14.75
-16.69
-18.58
-20.32
-21.79
-23.03
-24.17
-25.41
-26.77
-28.0
-28.64
-28.19
-26.35
-23.18
-19.04
-14.44
-9.79
-5.39
-1.38
2.15
5.14
7.53
9.34
10.65
11.57
12.16
12.47
12.57
12.59
12.7
13.05
13.68
14.46
15.16
15.56
15.62
15.46
15.25
15.1
14.98
14.7
14.13
13.22
12.0
10.57
9.0
7.25
5.28
3.11
0.88
-1.19
-2.9
-4.17
-5.08
-5.86
-6.7
-7.66
-8.71
-9.76
-10.76
-11.78
-12.96
-14.4
-16.1
-17.98
-19.91
-21.88
-23.91
-26.02
-28.06
-29.65
-30.28
-29.53
-27.3
-23.83
-19.66
-15.29
-11.02
-6.94
-3.03
0.71
4.11
6.94
9.01
10.31
11.01
11.37
11.59
11.77
11.91
12.01
12.08
12.19
12.37
12.58
12.74
12.75
12.61
12.41
12.26
12.21
12.16
11.89
11.19
9.98
8.36
6.61
5.06
3.91
3.19
2.75
2.33
1.73
0.87
-0.19
-1.26
-2.21
-3.03
-3.85
-4.85
-6.16
-7.74
-9.38
-10.83
-11.92
-12.7
-13.4
-14.34
-15.76
-17.69
-19.97
-22.31
-24.36
-25.78
-26.34
-25.86
-24.28
-21.66
-18.17
-14.08
-9.73
-5.44
-1.47
2.05
5.16
7.97
10.56
12.94
14.93
16.32
16.94
16.85
16.34
15.82
15.69
16.16
17.19
18.56
20.02
21.37
22.53
23.46
24.12
24.43
24.3
23.67
22.57
21.17
19.69
18.36
17.28
16.4
15.5
14.35
12.81
10.97
9.05
7.31
5.87
4.59
3.15
1.26
-1.18
-3.98
-6.81
-9.32
-11.37
-13.04
-14.53
-16.04
-17.71
-19.54
-21.5
-23.5
-25.38
-26.88
-27.69
-27.49
-26.12
-23.61
-20.14
-16.03
-11.6
-7.18
-3.07
0.51
3.45
5.77
7.63
9.16
10.4
11.3
11.73
11.69
11.3
10.86
10.63
10.79
11.31
12.04
12.77
13.39
13.83
14.12
14.3
14.44
14.53
14.54
14.34
13.8
12.86
11.58
10.15
8.76
7.54
6.44
5.33
4.09
2.73
1.38
0.21
-0.67
-1.32
-1.94
-2.8
-4.09
-5.84
-7.94
-10.15
-12.22
-13.98
-15.44
-16.74
-18.09
-19.65
-21.43
-23.3
-25.02
-26.3
-26.91
-26.67
-25.5
-23.42
-20.57
-17.17
-13.53
-9.9
-6.39
-3.04
0.19
3.32
6.27
8.88
11.0
12.52
13.48
13.98
14.16
14.19
14.21
14.3
14.47
14.66
14.73
14.6
14.23
13.7
13.19
12.88
12.8
12.84
12.8
12.47
11.8
10.95
10.15
9.58
9.21
8.78
7.98
6.56
4.49
1.99
-0.62
-3.0
-4.94
-6.36
-7.32
-8.01
-8.67
-9.6
-10.97
-12.81
-14.95
-17.1
-19.05
-20.74
-22.31
-24.03
-26.08
-28.52
-31.26
-34.18
-37.07
-39.71
-41.7
-42.6
-42.0
-39.68
-35.8
-30.77
-25.17
-19.49
-14.05
-8.96
-4.24
0.07
3.93
7.3
10.25
12.86
15.19
17.19
18.68
19.5
19.57
19.08
18.35
17.78
17.66
18.02
18.68
19.34
19.75
19.76
19.36
18.61
17.61
16.44
15.21
14.03
13.0
12.16
11.43
10.71
9.9
8.92
7.81
6.63
5.46
4.34
3.3
2.31
1.31
0.23
-1.02
-2.42
-3.88
-5.23
-6.33
-7.16
-7.8
-8.46
-9.28
-10.3
-11.51
-12.88
-14.41
-16.12
-17.92
-19.52
-20.41
-20.08
-18.22
-14.87
-10.4
-5.46
-0.6
3.77
7.54
10.81
13.73
16.45
18.99
21.21
22.84
23.59
23.26
21.88
19.76
17.44
15.47
14.17
13.6
13.55
13.71
13.88
14.01
14.13
14.24
14.21
13.83
12.97
11.65
10.13
8.71
7.64
6.99
6.64
6.37
5.97
5.31
4.37
3.24
1.99
0.73
-0.5
-1.7
-2.89
-4.09
-5.29
-6.5
-7.74
-9.04
-10.42
-11.86
-13.26
-14.5
-15.5
-16.33
-17.19
-18.27
-19.59
-20.88
-21.61
-21.24
-19.45
-16.29
-12.17
-7.65
-3.18
0.97
4.7
8.02
10.88
13.23
14.98
16.15
16.8
17.04
17.02
16.85
16.62
16.38
16.14
15.89
15.58
15.16
14.62
13.98
13.3
12.62
11.95
11.28
10.56
9.71
8.68
7.43
5.96
4.35
2.71
1.15
-0.24
-1.49
-2.66
-3.82
-5.01
-6.2
-7.37
-8.52
-9.7
-10.96
-12.36
-13.93
-15.63
-17.46
-19.41
-21.47
-23.61
-25.77
-27.98
-30.26
-32.65
-35.0
-36.97
-38.08
-37.84
-36.03
-32.74
-28.41
-23.58
-18.73
-14.18
-10.03
-6.28
-2.93
-0.01
2.47
4.56
6.28
7.67
8.71
9.39
9.77
9.99
10.23
10.7
11.48
12.53
13.73
14.94
16.03
16.94
17.66
18.15
18.35
18.18
17.61
16.64
15.39
14.0
12.68
11.52
10.5
9.51
8.38
7.03
5.47
3.86
2.36
1.07
-0.04
-1.12
-2.33
-3.76
-5.42
-7.26
-9.16
-11.05
-12.83
-14.39
-15.66
-16.66
-17.56
-18.6
-19.91
-21.4
-22.68
-23.23
-22.54
-20.36
-16.8
-12.23
-7.13
-1.96
2.91
7.24
10.93
13.94
16.38
18.37
20.0
21.23
21.94
22.0
21.46
20.56
19.68
19.11
18.96
19.1
19.25
19.2
18.89
18.42
17.85
17.19
16.33
15.17
13.72
12.09
10.44
8.87
7.38
5.95
4.57
3.33
