0
-108.22
-110.98
-104.55
-88.68
-65.31
-38.07
-11.04
12.47
30.77
43.78
52.4
57.63
60.08
59.95
57.35
52.81
47.32
42.14
38.38
36.57
36.58
37.8
39.46
40.93
41.88
42.17
41.67
40.21
37.49
33.31
27.67
20.93
13.64
6.37
-0.56
-7.22
-13.99
-21.3
-29.35
-37.92
-46.45
-54.22
-60.71
-65.84
-70.06
-74.3
-79.72
-87.41
-97.89
-110.58
-123.55
-133.72
-137.6
-132.48
-117.42
-93.78
-64.86
-34.76
-7.11
15.85
33.51
46.46
55.69
61.98
65.79
67.42
67.28
66.11
64.77
63.97
63.93
64.41
64.87
64.89
64.4
63.73
63.28
63.17
63.11
62.35
60.08
55.78
49.47
41.76
33.55
25.71
18.71
12.48
6.45
-0.11
-7.74
-16.53
-26.0
-35.29
-43.57
-50.35
-55.81
-60.69
-66.14
-73.33
-83.08
-95.44
-109.33
-122.47
-131.74
-133.93
-126.82
-110.04
-85.44
-56.49
-27.18
-0.79
20.94
37.75
50.41
59.89
66.84
71.49
73.91
74.36
73.4
71.91
70.77
70.55
71.35
72.75
74.14
74.94
74.91
74.27
73.44
72.7
71.98
70.7
68.02
63.32
56.5
48.16
39.4
31.36
24.78
19.7
15.42
10.93
5.28
-1.92
-10.36
-19.18
-27.35
-34.15
-39.45
-43.82
-48.27
-53.95
-61.88
-72.57
-85.84
-100.45
-114.12
-123.77
-126.25
-119.39
-102.89
-78.59
-50.02
-21.33
4.04
24.13
38.62
48.3
54.34
57.65
58.82
58.17
56.2
53.62
51.32
49.99
49.91
50.83
52.14
53.23
53.81
53.98
54.06
54.32
54.7
54.72
53.67
50.87
46.04
39.4
31.7
23.87
16.67
10.42
4.86
-0.67
-6.83
-13.94
-21.73
-29.44
-36.24
-41.63
-45.66
-48.98
-52.62
-57.69
-65.07
-75.08
-87.07
-99.27
-108.84
-112.59
-107.99
-94.19
-72.46
-45.93
-18.45
6.52
26.92
42.19
52.82
59.66
63.31
64.1
62.27
58.32
53.18
48.06
44.09
41.91
41.57
42.58
44.23
45.95
47.35
48.25
48.39
47.42
44.87
40.5
34.4
27.12
19.39
11.85
4.75
-2.08
-9.06
-16.52
-24.5
-32.69
-40.51
-47.43
-53.15
-57.8
-61.87
-66.17
-71.68
-79.28
-89.39
-101.53
-114.03
-124.05
-128.29
-124.02
-110.15
-87.84
-60.27
-31.55
-5.41
15.81
31.49
42.28
49.35
53.68
55.86
56.22
55.11
53.08
50.83
49.0
48.0
47.87
48.34
49.03
49.62
49.96
50.08
50.1
49.94
49.3
47.59
44.24
38.98
32.12
24.44
16.93
10.23
4.36
-1.29
-7.55
-15.02
-23.62
-32.7
-41.27
-48.45
-53.95
-58.13
-61.94
-66.63
-73.41
-83.01
-95.33
-109.0
-121.47
-129.42
-129.67
-120.33
-101.54
-75.6
-46.33
-17.8
6.78
25.85
39.41
48.46
54.22
57.62
59.17
59.23
58.21
56.73
55.44
54.84
55.04
55.82
56.77
57.54
58.05
58.43
58.88
59.45
59.84
59.45
57.58
53.78
48.03
40.92
33.35
26.29
20.25
15.14
10.28
4.81
-1.84
-9.7
-18.15
-26.27
-33.27
-38.86
-43.39
-47.72
-52.92
-60.02
-69.66
-81.84
-95.64
-109.01
-119.05
-122.64
-117.41
-102.68
-79.9
-52.3
-23.84
2.02
23.16
39.07
50.33
57.93
62.65
64.91
64.97
63.28
60.55
57.7
55.51
54.35
54.1
54.32
54.53
54.51
54.32
54.19
54.25
54.3
53.81
52.04
48.41
42.78
35.61
27.77
20.21
13.54
7.75
2.29
-3.57
-10.32
-17.87
-25.59
-32.64
-38.38
-42.7
-46.15
-49.67
-54.38
-61.26
-70.78
-82.66
-95.58
-107.14
-114.25
-114.01
-104.7
-86.55
-61.83
-34.22
-7.57
15.24
32.87
45.44
53.88
59.17
61.86
62.1
60.02
56.06
51.19
46.67
43.63
42.67
43.68
45.91
48.38
50.2
50.82
50.13
48.26
45.46
42.01
38.09
33.73
28.83
23.11
16.31
8.3
-0.67
-9.98
-18.86
-26.65
-33.11
-38.52
-43.55
-49.06
-55.88
-64.58
-75.37
-87.81
-100.59
-111.47
-117.55
-116.1
-105.56
-86.3
-60.74
-32.67
-6.01
16.36
33.22
44.95
52.8
57.99
61.25
62.75
62.4
60.35
57.16
53.65
50.69
48.87
48.29
48.72
49.65
50.6
51.12
50.91
49.71
47.36
43.8
39.05
33.3
26.83
19.92
12.79
5.53
-1.94
-9.71
-17.79
-26.01
-34.01
-41.37
-47.84
-53.52
-58.87
-64.65
-71.78
-81.03
-92.61
-105.7
-118.29
-127.37
-129.67
-122.84
-106.47
-82.38
-54.12
-25.78
-0.64
19.66
35.07
46.53
55.15
61.59
65.99
68.26
68.51
67.2
65.1
63.03
61.53
60.73
60.42
60.22
59.89
59.46
59.1
58.92
58.72
57.87
55.55
51.18
44.72
36.79
28.45
20.72
14.15
8.59
3.37
-2.37
-9.18
-17.06
-25.44
-33.49
-40.51
-46.28
-51.14
-55.96
-61.83
-69.79
-80.4
-93.36
-107.23
-119.41
-126.67
-126.02
-115.77
-96.3
-70.11
-41.08
-13.14
10.85
29.75
43.92
54.45
62.33
67.98
71.35
72.38
71.35
69.08
66.67
65.09
64.85
65.8
67.3
68.58
69.08
68.72
67.84
66.93
66.25
65.62
64.37
61.68
56.98
50.25
42.18
33.83
26.22
19.89
14.7
9.96
4.73
-1.74
-9.64
-18.54
-27.55
-35.66
-42.21
-47.16
-51.15
-55.3
-60.85
-68.82
-79.7
-93.19
-107.98
-121.67
-131.14
-133.23
-125.81
-108.59
-83.51
-54.16
-24.7
1.45
22.43
38.01
49.03
56.57
61.41
63.89
64.17
62.62
59.94
57.06
54.88
53.84
53.9
54.55
55.2
55.48
55.37
55.12
54.95
54.75
54.04
52.09
48.34
42.73
35.81
28.51
21.8
16.23
11.72
7.63
3.07
-2.62
-9.58
-17.3
-24.83
-31.21
-35.94
-39.19
-41.89
-45.43
-51.18
-60.04
-72.01
-85.84
-99.13
-108.65
-111.28
-104.93
-89.39
-66.57
-39.91
-13.26
10.27
29.06
42.97
52.72
59.15
62.76
63.7
62.15
58.6
54.0
49.47
45.97
43.99
43.53
44.23
45.54
46.94
48.03
48.41
47.74
45.71
42.14
37.12
31.0
24.28
17.45
10.76
4.12
-2.75
-10.13
-18.08
-26.36
-34.48
-41.92
-48.41
-54.06
-59.32
-64.91
-71.64
-80.26
-91.03
-103.4
-115.68
-125.09
-128.47
-123.25
-108.56
-85.74
-58.04
-29.49
-3.66
17.41
33.3
44.78
52.91
58.53
62.02
63.54
63.39
62.1
60.39
58.89
57.9
57.41
57.14
56.88
56.55
56.25
56.1
56.04
55.72
54.52
51.86
47.43
41.45
34.55
27.45
20.69
14.37
8.19
1.71
-5.39
-13.05
-20.93
-28.52
-35.41
-41.44
-46.8
-51.96
-57.65
-64.76
-74.02
-85.62
-98.66
-111.01
-119.52
-120.92
-113.01
-95.63
-70.9
-42.64
-15.03
8.73
27.17
40.49
49.88
56.51
61.04
63.56
63.99
62.56
59.96
57.17
55.05
53.96
53.69
53.64
53.25
52.29
50.94
49.58
48.45
47.44
46.04
43.57
39.53
33.88
27.1
20.01
13.39
7.63
2.55
-2.46
-8.12
-14.82
-22.4
-30.19
-37.35
-43.31
-48.03
-52.07
-56.41
-62.13
-70.14
-80.74
-93.36
-106.26
-116.66
-121.35
-117.64
-104.44
-82.86
-55.92
-27.68
-1.76
19.54
35.7
47.41
55.81
61.74
65.46
66.98
66.38
64.13
61.15
58.37
56.42
55.44
55.15
55.13
55.17
55.36
55.82
56.57
57.18
56.9
54.93
50.79
44.6
37.09
29.29
22.12
16.05
10.85
5.85
0.21
-6.59
-14.54
-23.04
-31.24
-38.36
-44.09
-48.67
-52.81
-57.53
-63.83
-72.45
-83.46
-95.96
-107.86
-116.19
-117.85
-110.74
-94.59
-71.33
-44.5
-18.06
4.82
22.54
35.07
43.32
48.39
50.97
51.32
49.52
45.9
41.23
36.64
33.2
31.62
31.92
33.66
36.09
38.52
40.48
41.78
42.27
41.86
40.36
37.68
33.86
29.11
23.73
17.97
11.94
5.56
-1.22
-8.37
-15.61
-22.52
-28.68
-33.94
-38.57
-43.27
-48.97
-56.58
-66.56
-78.57
-91.24
-102.21
-108.59
-107.79
-98.34
-80.63
-56.89
-30.53
-5.12
16.7
33.76
46.22
54.93
60.81
64.39
65.89
65.49
63.57
60.76
57.84
55.42
53.77
52.88
52.54
52.52
52.75
53.22
53.84
54.26
53.8
51.67
47.3
40.67
32.47
23.84
15.93
9.34
3.96
-0.96
-6.36
-12.86
-20.54
-28.91
-37.17
-44.54
-50.59
-55.4
-59.57
-64.14
-70.33
-79.15
-90.81
-104.26
-117.09
-125.95
-127.47
-119.47
-101.81
-76.56
-47.48
-18.68
6.49
26.31
40.73
50.79
57.72
62.39
65.06
65.72
64.54
62.02
59.04
56.42
54.61
53.58
52.91
52.18
51.27
50.36
49.82
49.81
50.04
49.81
48.24
44.75
39.3
32.47
25.19
18.33
12.31
6.95
1.63
-4.36
-11.42
-19.35
-27.48
-34.95
-41.09
-45.82
-49.67
-53.67
-59.08
-66.98
-77.81
-91.01
-104.75
-116.08
-121.6
-118.46
-105.45
-83.61
-56.03
-26.85
-0.01
21.95
38.22
49.4
56.69
61.17
63.5
63.96
62.84
60.63
58.02
55.63
53.82
52.63
51.82
51.14
50.47
49.88
49.44
49.07
48.45
47.05
44.39
40.16
34.48
27.77
20.65
13.65
7.04
0.79
-5.37
-11.71
-18.34
-25.06
-31.54
-37.34
-42.28
-46.47
-50.39
-54.87
-60.84
-69.06
-79.57
-91.4
-102.32
-109.26
-109.11
-99.87
-81.54
-56.31
-27.91
-0.39
23.07
40.95
53.34
61.28
66.02
68.36
68.62
66.93
63.52
59.03
54.36
50.46
47.95
46.94
47.06
47.67
48.1
47.88
46.77
44.69
41.69
37.83
33.2
27.93
22.13
15.81
8.9
1.3
-6.97
-15.7
-24.46
-32.74
-40.16
-46.59
-52.23
-57.49
-62.97
-69.34
-77.26
-87.16
-98.79
-110.82
-120.68
-125.05
-120.94
-106.95
-84.07
-55.49
-25.56
1.75
24.0
40.66
52.57
61.01
66.86
70.45
71.79
71.01
68.73
65.83
63.21
61.41
60.55
60.32
60.33
60.3
60.16
59.9
59.48
58.6
56.73
53.34
48.16
41.35
33.62
25.81
18.66
12.33
6.44
0.28
-6.82
-15.11
-24.28
-33.48
-41.81
-48.6
-53.75
-57.8
-61.81
-67.06
-74.65
-85.03
-97.58
-110.4
-120.49
-124.48
-119.61
-104.78
-81.13
-51.85
-21.23
6.72
29.36
45.87
57.0
64.17
68.6
70.94
71.36
69.95
67.12
63.7
60.65
58.65
57.85
57.87
58.04
57.86
57.21
56.39
55.75
55.43
55.05
53.83
50.88
45.68
38.42
29.95
21.41
13.73
7.19
1.37
-4.53
-11.21
-18.83
-26.97
-34.79
-41.47
-46.57
-50.29
-53.46
-57.33
-63.2
-72.06
-84.12
-98.41
-112.64
-123.52
-127.49
-121.84
-105.7
-80.58
-50.07
-18.76
9.13
31.03
46.33
56.1
62.06
65.65
67.53
67.69
65.97
62.55
58.06
53.42
49.47
46.67
45.06
44.39
44.31
44.47
44.57
44.29
43.3
41.32
38.14
33.68
28.05
21.46
14.16
6.44
-1.49
-9.52
-17.52
-25.38
-32.83
-39.52
-45.17
-49.74
-53.52
-57.18
-61.59
-67.65
-75.88
-86.07
-96.93
-106.09
-110.44
-107.15
-94.68
-73.63
-46.72
-17.98
8.56
30.14
45.78
56.02
62.11
65.16
65.73
63.96
59.99
54.37
48.11
42.45
38.48
36.72
37.01
38.65
40.63
42.05
42.28
41.11
38.59
34.93
30.31
24.86
18.65
11.66
3.89
-4.59
-13.58
-22.73
-31.52
-39.46
-46.26
-51.93
-56.83
-61.55
-66.81
-73.33
-81.71
-92.18
-104.24
-116.31
-125.75
-129.38
-124.46
-109.81
-86.47
-57.49
-27.01
1.12
24.42
42.1
54.73
63.48
69.27
72.59
73.5
72.15
68.99
64.89
60.86
57.7
55.73
54.82
54.58
54.61
54.67
54.64
54.37
53.56
51.77
48.6
43.85
37.74
30.75
23.45
16.28
9.31
2.32
-5.08
-13.17
-21.92
-30.91
-39.47
-46.96
-53.08
-58.11
-62.86
-68.48
-76.03
-86.06
-98.1
-110.46
-120.34
-124.47
-120.04
-105.85
-82.82
-53.94
-23.34
5.05
28.61
46.42
59.03
67.59
73.08
76.04
76.72
75.38
72.66
69.5
66.83
65.28
64.88
65.16
65.47
65.33
64.59
63.49
62.42
61.52
60.58
59.02
56.15
51.56
45.35
38.07
30.56
23.43
16.82
10.41
3.59
-4.06
-12.49
-21.07
-28.89
-35.18
-39.64
-42.77
-45.58
-49.47
-55.68
-64.98
-77.28
-91.4
-104.95
-114.71
-117.39
-110.67
-94.11
-69.55
-40.53
-11.27
14.71
35.42
50.52
60.79
67.35
71.02
72.24
71.24
68.4
64.37
60.07
56.33
53.74
52.44
52.11
52.3
52.56
52.64
52.45
51.97
50.99
49.1
45.83
40.87
34.34
26.81
19.05
11.7
4.95
-1.48
-8.16
-15.48
-23.4
-31.42
-38.79
-44.88
-49.54
-53.15
-56.61
-61.03
-67.43
-76.34
-87.28
-98.57
-107.45
-110.68
-105.63
-91.29
-68.89
-41.58
-13.44
11.88
32.15
46.85
56.68
62.73
65.81
66.26
64.19
59.96
54.33
48.48
43.58
40.46
39.36
39.94
41.47
43.08
43.97
43.63
41.82
38.6
34.25
29.09
23.4
17.3
10.76
3.65
-4.07
-12.37
-21.0
-29.6
-37.79
-45.26
-51.87
-57.68
-62.96
-68.14
-73.91
-81.1
-90.38
-101.85
-114.39
-125.57
-131.91
-130.04
-117.97
-96.09
-67.25
-35.82
-6.24
18.36
36.79
49.5
57.8
62.94
65.72
66.54
65.64
63.4
60.44
57.4
54.76
52.69
51.12
49.85
48.76
47.87
47.26
46.93
46.64
45.86
43.96
40.44
35.17
28.49
21.06
13.56
6.43
-0.31
-6.95
-13.86
-21.24
-28.91
-36.39
-43.04
-48.44
-52.6
-56.08
-59.86
-65.1
-72.74
-83.04
-95.23
-107.23
-116.06
-118.43
-111.91
-95.79
-71.6
-42.7
-13.21
13.31
34.78
50.78
62.08
69.79
74.77
77.47
78.13
77.13
75.11
72.81
70.84
69.41
68.4
67.54
66.63
65.66
64.81
64.22
63.87
63.46
62.42
60.12
56.06
50.07
42.48
33.97
25.39
17.41
10.24
3.63
-2.99
-10.15
-18.06
-26.41
-34.52
-41.7
-47.57
-52.35
-56.81
-62.12
-69.43
-79.48
-92.09
-105.91
-118.44
-126.44
-126.83
-117.78
-99.4
-73.99
-45.31
-17.45
6.42
24.76
37.65
46.15
51.45
54.37
55.19
54.07
51.35
47.75
44.3
41.98
41.39
42.59
45.12
48.23
51.15
53.28
54.32
54.21
53.07
51.06
48.26
44.65
40.12
34.57
28.0
20.59
12.65
4.6
-3.17
-10.37
-16.89
-22.77
-28.21
-33.56
-39.31
-45.98
-54.06
-63.74
-74.63
-85.47
-94.14
-97.96
-94.58
-82.8
-63.27
-38.51
-12.12
12.33
32.42
47.33
57.51
64.02
67.74
69.05
68.04
64.91
60.25
55.06
50.39
46.99
45.11
44.53
44.81
45.5
46.23
46.76
46.8
46.06
44.2
40.96
36.3
30.46
23.92
17.21
10.75
4.65
-1.31
-7.52
-14.29
-21.6
-29.14
-36.33
-42.7
-48.09
-52.81
-57.56
-63.23
-70.6
-79.94
-90.63
-100.93
-108.19
-109.45
-102.49
-86.76
-63.82
-37.02
-10.35
12.8
30.64
43.09
51.29
56.66
60.19
62.25
62.8
61.87
59.79
57.17
54.7
52.79
51.52
50.62
49.78
48.88
48.01
47.39
47.1
46.9
46.19
44.21
40.44
34.84
27.95
20.7
14.01
8.38
3.66
-0.83
-5.98
-12.34
-19.86
-27.85
-35.3
-41.41
-45.91
-49.28
-52.52
-56.9
-63.49
-72.9
-84.84
-97.94
-109.72
-117.07
-117.02
-107.88
-89.91
-65.46
-38.2
-11.96
10.5
27.99
40.73
49.66
55.71
59.36
60.8
60.22
58.12
55.32
52.7
50.85
49.93
49.61
49.44
49.08
48.47
47.81
47.38
47.2
46.94
45.9
43.34
38.79
32.31
24.58
16.57
9.27
3.13
-1.98
-6.7
-11.79
-17.7
-24.3
-31.03
-37.14
-42.09
-45.86
-48.93
-52.17
-56.61
-63.17
-72.3
-83.59
-95.55
-105.66
-110.88
-108.58
-97.51
-78.43
-53.99
-27.87
-3.66
16.21
30.88
40.85
47.21
50.99
52.75
52.65
50.75
47.45
43.46
39.77
37.22
36.23
36.74
38.27
40.19
41.91
42.98
43.11
42.09
39.82
36.29
31.65
26.25
20.47
14.68
9.04
3.44
-2.38
-8.73
-15.72
-23.18
-30.62
-37.46
-43.29
-48.12
-52.42
-57.0
-62.75
-70.43
-80.22
-91.47
-102.43
-110.48
-112.62
-106.53
-91.54
-69.05
-42.29
-15.24
8.67
27.49
41.06
50.39
56.79
61.2
63.85
64.59
63.4
60.65
57.22
54.13
52.16
51.5
51.72
52.06
51.87
50.94
49.51
48.06
46.87
45.77
44.14
41.24
36.59
30.28
23.0
15.71
9.28
4.08
-0.12
-4.07
-8.65
-14.5
-21.66
-29.53
-37.16
-43.64
-48.56
-52.18
-55.34
-59.18
-64.79
-72.89
-83.65
-96.34
-109.16
-119.35
-123.7
-119.56
-105.86
-83.73
-56.31
-27.72
-1.7
19.45
35.16
46.13
53.53
58.33
61.02
61.81
60.95
58.94
56.47
54.3
52.96
52.56
52.9
53.57
54.17
54.52
54.68
54.86
55.22
55.69
55.85
55.05
52.6
48.09
41.53
33.48
24.88
16.78
10.07
5.06
1.43
-1.68
-5.31
-10.22
-16.61
-23.99
-31.5
-38.22
-43.59
-47.53
-50.53
-53.44
-57.28
-63.06
-71.47
-82.61
-95.53
-108.08
-117.11
-119.33
-112.33
-95.64
-71.09
-42.28
-13.49
11.73
31.45
45.48
54.76
60.59
63.83
64.84
63.73
60.83
56.94
53.15
50.48
49.44
49.81
50.79
51.5
51.36
50.37
49.01
47.83
47.14
46.68
45.78
43.56
39.46
33.54
26.43
19.19
12.74
7.53
3.27
-0.83
-5.65
-11.68
-18.73
-26.03
-32.57
-37.6
-40.96
-43.15
-45.17
-48.21
-53.32
-61.12
-71.58
-83.76
-95.75
-104.81
-107.97
-102.98
-89.08
-67.55
-41.4
-14.45
9.88
29.47
43.8
53.51
59.59
62.75
63.24
61.12
56.81
51.26
45.87
41.92
40.12
40.37
41.93
43.87
45.48
46.49
46.97
47.12
46.92
46.06
43.99
40.18
34.45
27.12
19.08
11.48
5.17
0.34
-3.63
-7.93
-13.61
-21.08
-29.8
-38.59
-46.2
-51.91
-55.84
-58.84
-62.22
-67.27
-74.93
-85.53
-98.39
-111.7
-122.58
-127.6
-123.85
-109.99
-86.88
-57.51
-26.05
3.38
27.92
46.38
59.12
67.24
71.95
74.05
73.99
72.12
69.03
65.56
62.56
60.63
59.85
59.76
59.69
59.13
58.0
56.66
55.62
55.13
54.94
54.26
52.09
47.68
40.89
32.38
23.32
14.89
7.85
2.15
-2.84
-8.06
-14.24
-21.5
-29.4
-37.1
-43.81
-49.16
-53.29
-56.94
-61.18
-67.14
-75.75
-87.28
-100.94
-114.71
-125.47
-129.75
-124.76
-109.45
-85.08
-54.95
-23.4
5.51
29.15
46.67
58.71
66.54
71.29
73.6
73.67
71.75
68.41
64.61
61.35
59.32
58.6
58.68
58.84
58.54
57.75
56.8
56.18
56.04
56.04
55.37
53.07
48.49
41.6
33.05
23.94
15.45
8.35
2.75
-1.96
-6.74
-12.52
-19.69
-27.98
-36.5
-44.22
-50.42
-55.08
-58.88
-62.99
-68.64
-76.77
-87.66
-100.67
-114.14
-125.37
-131.15
-128.54
-115.97
-93.91
-65.1
-33.69
-4.03
20.68
39.02
51.27
58.62
62.32
63.17
61.53
57.74
52.39
46.5
41.19
37.41
35.55
35.44
36.43
37.7
38.56
38.63
37.84
36.43
34.68
32.82
30.83
28.39
25.06
20.38
14.12
6.44
-2.11
-10.76
-18.78
-25.67
-31.34
-36.06
-40.34
-44.85
-50.25
-57.17
-65.96
-76.4
-87.34
-96.62
-101.36
-98.86
-87.59
-67.98
-42.51
-14.93
10.94
32.4
48.33
59.07
65.62
68.94
69.59
67.84
64.03
58.88
53.45
48.87
45.96
44.91
45.32
46.41
47.35
47.51
46.68
44.91
42.4
39.38
35.93
32.02
27.54
22.33
16.27
9.31
1.54
-6.85
-15.43
-23.75
-31.34
-37.92
-43.46
-48.3
-53.04
-58.54
-65.8
-75.59
-88.05
-102.21
-115.75
-125.28
-127.32
-119.5
-101.57
-75.73
-45.87
-16.41
9.21
29.27
43.79
53.87
60.86
65.67
68.73
70.17
70.16
69.09
67.47
65.76
64.23
62.93
61.78
60.73
59.78
58.92
58.0
56.72
54.67
51.47
47.01
41.38
34.87
27.8
20.39
12.68
4.66
-3.69
-12.26
-20.71
-28.64
-35.65
-41.56
-46.53
-51.08
-55.96
-62.01
-69.97
-80.17
-92.19
-104.59
-114.91
-120.1
-117.45
-105.58
-85.1
-58.64
-30.0
-2.93
19.98
37.74
50.77
60.11
66.74
71.18
73.58
74.1
73.12
71.35
69.62
68.49
68.13
68.24
68.35
68.13
67.56
66.92
66.49
66.23
65.64
63.86
60.12
54.18
46.45
37.96
29.8
22.79
17.11
12.3
7.52
2.01
-4.63
-12.2
-20.0
-27.17
-33.08
-37.62
-41.34
-45.28
-50.58
-58.18
-68.39
-80.61
-93.23
-103.68
-108.99
-106.52
-94.98
-75.08
-49.45
-21.88
3.9
25.37
41.64
53.21
61.14
66.28
68.95
69.08
66.68
62.24
56.77
51.52
47.55
45.41
45.0
45.75
46.89
47.78
48.01
47.34
45.61
42.63
38.25
32.53
25.81
18.66
11.63
5.05
-1.21
-7.52
-14.25
-21.48
-28.85
-35.76
-41.68
-46.4
-50.16
-53.62
-57.67
-63.26
-71.13
-81.41
-93.24
-104.53
-112.22
-113.09
-104.92
-87.4
-62.53
-33.92
-5.68
18.9
38.19
52.15
61.73
68.0
71.67
72.95
71.96
69.07
65.13
61.24
58.35
56.91
56.67
56.99
57.08
56.51
55.26
53.73
52.36
51.31
50.34
48.79
45.89
41.11
34.41
26.35
17.94
10.19
3.74
-1.43
-5.95
-10.76
-16.6
-23.69
-31.56
-39.35
-46.17
-51.53
-55.54
-58.92
-62.76
-68.27
-76.43
-87.65
-101.32
-115.57
-127.43
-133.36
-130.39
-117.14
-94.53
-65.62
-34.59
-5.5
18.94
37.76
51.46
61.22
68.12
72.76
75.36
76.0
75.02
72.98
70.6
68.49
66.98
66.11
65.72
65.56
65.4
65.08
64.49
63.56
62.21
60.36
57.86
54.55
50.28
44.97
38.73
31.83
24.7
17.84
11.68
6.47
2.18
-1.48
-4.97
-8.79
-13.32
-18.64
-24.64
-30.98
-37.37
-43.64
-49.83
-56.18
-63.12
-71.22
-81.04
-92.88
-106.26
-119.62
-130.19
-134.57
-129.79
-114.5
-89.65
-58.47
-25.41
5.18
30.38
49.2
62.28
71.06
76.91
80.68
82.67
82.96
81.65
79.06
75.55
71.49
67.08
62.4
57.5
52.51
47.58
42.96
38.76
34.96
31.37
27.69
23.54
18.61
12.7
5.8
-1.88
-10.01
-18.16
-25.94
-32.98
-39.04
-44.11
-48.42
-52.42
-56.7
-61.66
-67.29
-73.13
-78.36
-82.26
-84.5
-85.39
-85.75
-86.66
-89.17
-94.12
-101.98
-112.52
-124.55
-135.58
-142.19
-140.8
-129.05
-106.88
-76.85
-43.45
-11.62
14.89
34.37
47.11
54.65
58.65
60.33
60.23
58.61
55.86
52.61
49.68
47.67
46.81
46.77
47.02
47.05
46.73
46.35
46.37
47.07
48.25
49.2
48.88
46.43
41.52
34.59
26.7
19.09
12.77
8.12
4.76
1.8
-1.79
-6.74
-13.17
-20.54
-27.89
-34.3
-39.23
-42.81
-45.77
-49.27
-54.5
-62.29
-72.75
-84.92
-96.68
-105.11
-107.16
-100.65
-85.12
-62.18
-35.02
-7.5
17.07
36.7
50.89
60.21
65.67
68.09
68.0
65.8
62.01
57.45
53.09
49.78
47.97
47.54
47.98
48.67
49.19
49.44
49.6
49.79
49.89
49.42
47.67
43.99
38.16
30.53
21.98
13.64
6.45
0.77
-3.76
-8.06
-13.21
-19.88
-28.05
-36.96
-45.49
-52.66
-58.02
-61.85
-65.07
-68.95
-74.74
-83.27
-94.51
-107.24
-118.95
-126.31
-126.03
-116.06
-96.45
-69.49
-39.06
-9.37
16.33
36.42
50.86
60.53
66.52
69.64
70.35
69.11
66.53
63.52
60.93
59.3
58.65
58.58
58.43
57.82
56.74
55.61
54.99
55.21
56.09
56.88
56.5
53.97
48.89
41.57
32.98
24.36
16.65
10.19
4.56
-1.11
-7.69
-15.58
-24.55
-33.85
-42.53
-49.9
-55.75
-60.52
-65.15
-70.82
-78.58
-88.98
-101.6
-114.76
-125.67
-130.96
-127.73
-114.54
-92.18
-63.46
-32.41
-3.0
21.99
41.41
55.48
65.16
71.39
74.72
75.42
73.8
70.5
66.49
62.8
60.18
58.86
58.51
58.52
58.4
57.92
57.24
56.57
55.96
55.07
53.23
49.75
44.35
37.35
29.64
22.31
16.13
11.21
6.95
2.35
-3.49
-10.92
-19.59
-28.65
-37.05
-44.05
-49.48
-53.81
-58.08
-63.56
-71.43
-82.22
-95.43
-109.23
-120.64
-126.24
-123.12
-109.97
-87.61
-58.93
-28.0
1.09
25.37
43.55
55.9
63.59
67.86
69.57
69.09
66.63
62.59
57.78
53.2
49.8
48.04
47.76
48.28
48.8
48.71
47.8
46.21
44.23
42.09
39.78
37.07
33.57
28.89
22.8
15.37
6.96
-1.82
-10.29
-17.88
-24.28
-29.56
-34.12
-38.63
-43.88
-50.65
-59.54
-70.54
-82.78
-94.23
-102.0
-103.02
-95.17
-78.14
-53.83
-25.83
1.76
25.6
44.0
56.88
65.15
69.92
71.9
71.42
68.7
64.33
59.23
54.55
51.19
49.57
49.54
50.54
51.86
52.87
53.11
52.34
50.44
47.45
43.47
38.7
33.27
27.29
20.66
13.2
4.72
-4.84
-15.21
-25.83
-35.96
-44.96
-52.55
-58.97
-64.86
-71.18
-78.87
-88.63
-100.66
-114.19
-127.3
-136.88
-139.4
-132.02
-113.88
-86.7
-54.47
-22.09
6.25
28.28
43.87
54.37
61.47
66.41
69.65
71.22
71.13
69.7
67.54
65.32
63.55
62.41
61.76
61.32
60.77
59.93
58.69
57.05
54.92
52.14
48.48
43.79
38.06
31.48
24.28
16.71
8.83
0.67
-7.72
-16.13
-24.19
-31.51
-37.91
-43.49
-48.78
-54.53
-61.58
-70.64
-81.97
-94.97
-107.97
-118.25
-122.6
-118.34
-104.35
-81.74
-53.61
-24.13
2.87
24.96
41.48
53.12
61.12
66.46
69.6
70.64
69.74
67.4
64.43
61.65
59.58
58.25
57.34
56.42
55.28
54.0
52.88
52.15
51.67
50.91
49.12
45.64
40.32
33.59
26.31
19.3
12.96
7.05
0.92
-6.11
-14.29
-23.27
-32.24
-40.3
-46.91
-52.11
-56.52
-61.16
-67.2
-75.6
-86.7
-99.91
-113.33
-124.0
-128.53
-124.17
-109.87
-86.8
-58.14
-28.1
-0.57
21.9
38.59
50.17
57.98
63.17
66.31
67.54
66.94
64.85
61.99
59.18
56.97
55.56
54.72
54.19
53.8
53.53
53.36
53.04
52.13
50.1
46.67
41.84
35.94
29.39
22.54
15.56
8.54
1.57
-5.21
-11.66
-17.62
-23.0
-27.78
-32.08
-36.19
-40.61
-46.03
-53.19
-62.52
-73.82
-85.91
-96.62
-103.13
-102.76
-93.86
-76.6
-53.01
-26.46
-0.62
21.68
39.13
51.82
60.67
66.66
70.36
71.85
71.15
68.42
64.32
59.74
55.65
52.61
50.83
50.07
49.85
49.76
49.44
48.7
47.33
45.02
41.41
36.22
29.48
21.65
13.55
6.06
-0.31
-5.59
-10.4
-15.54
-21.59
-28.64
-36.23
-43.56
-49.93
-55.02
-59.1
-63.04
-68.09
-75.49
-85.88
-98.85
-112.55
-123.97
-129.63
-126.69
-114.01
-92.64
-65.52
-36.49
-9.1
14.33
33.0
47.29
58.01
65.81
70.96
73.51
73.73
72.32
70.31
68.72
68.11
68.46
69.13
69.36
68.65
66.94
64.62
62.31
60.43
58.98
57.49
55.16
51.28
45.52
38.15
30.0
22.06
15.11
9.28
4.08
-1.38
-7.89
-15.67
-24.35
-33.07
-40.9
-47.25
-52.09
-55.94
-59.75
-64.63
-71.58
-81.23
-93.44
-107.08
-119.86
-128.68
-130.36
-122.68
-105.3
-80.05
-50.55
-21.02
5.04
25.8
41.22
52.44
60.84
67.23
71.76
74.15
74.32
72.71
70.18
67.68
65.91
65.05
64.82
64.77
64.49
63.81
62.82
61.69
60.56
59.39
57.89
55.58
52.02
46.97
40.56
33.29
25.86
18.97
13.1
8.34
4.39
0.6
-3.81
-9.51
-16.72
-25.05
-33.65
-41.46
-47.7
-52.27
-55.75
-59.26
-64.02
-71.03
-80.85
-93.25
-107.11
-120.19
-129.37
-131.38
-123.87
-106.38
-80.81
-50.89
-20.98
5.34
26.14
41.24
51.61
58.48
62.74
64.81
64.92
63.44
61.03
58.53
56.65
55.64
55.31
55.15
54.68
53.73
52.56
51.67
51.44
51.88
52.37
51.98
49.67
44.87
37.64
28.77
19.41
10.77
3.63
-1.9
-6.34
-10.58
-15.5
-21.57
-28.66
-36.1
-42.98
-48.58
-52.72
-55.81
-58.8
-62.84
-69.0
-77.83
-89.06
-101.29
-112.07
-118.33
-117.18
-107.01
-88.07
-62.64
-34.31
-6.89
16.73
35.1
48.19
56.79
61.82
63.97
63.63
61.13
57.07
52.38
48.1
45.07
43.65
43.6
44.36
45.3
46.07
46.6
46.92
46.91
46.18
44.12
40.24
34.45
27.25
19.5
12.1
5.61
-0.04
-5.38
-11.23
-18.18
-26.27
-34.96
-43.29
-50.31
-55.57
-59.32
-62.52
-66.52
-72.77
-82.17
-94.73
-109.13
-122.72
-131.96
-133.39
-124.79
-106.06
-79.47
-48.95
-18.85
7.41
28.1
43.1
53.3
59.81
63.47
64.75
64.04
61.89
59.08
56.44
54.59
53.68
53.41
53.19
52.49
51.16
49.48
47.95
47.04
46.75
46.56
45.56
42.86
37.99
31.17
23.23
15.25
8.16
2.35
-2.42
-6.91
-11.97
-18.15
-25.4
-33.09
-40.28
-46.19
-50.63
-54.1
-57.63
-62.46
-69.57
-79.4
-91.55
-104.65
-116.34
-123.64
-123.64
-114.49
-96.16
-70.72
-41.76
-13.29
11.54
31.16
45.59
55.82
62.94
67.68
70.27
70.79
69.47
66.86
63.73
60.86
58.72
57.37
56.5
55.67
54.5
52.93
51.19
49.63
48.35
47.07
45.15
41.79
36.51
29.41
21.24
13.1
6.02
0.48
-3.77
-7.6
-12.12
-18.15
-25.82
-34.52
-43.05
-50.21
-55.29
-58.43
-60.54
-63.07
-67.45
-74.7
-85.14
-98.11
-111.81
-123.46
-129.71
-127.55
-115.34
-93.67
-65.31
-34.45
-5.32
19.12
37.7
50.82
59.65
65.25
68.28
69.09
68.05
65.8
63.19
60.99
59.63
59.03
58.75
58.23
57.17
55.69
54.24
53.35
53.22
53.43
53.1
51.19
47.08
40.93
33.56
26.09
19.34
13.51
8.14
2.48
-4.03
-11.49
-19.44
-27.13
-33.85
-39.18
-43.18
-46.48
-50.05
-55.1
-62.65
-73.06
-85.57
-98.1
-107.56
-110.64
-104.89
-89.68
-66.6
-39.02
-10.96
14.13
34.31
49.3
59.84
66.93
71.19
72.77
71.68
68.26
63.37
58.19
53.81
50.82
49.17
48.42
48.01
47.65
47.33
47.19
47.26
47.26
46.54
44.28
39.91
33.34
25.15
16.42
8.29
1.51
-3.96
-8.82
-14.15
-20.75
-28.86
-37.92
-46.93
-54.85
-61.03
-65.54
-69.09
-72.85
-78.13
-85.96
-96.58
-109.11
-121.35
-130.1
-132.01
-124.62
-107.39
-81.99
-51.9
-21.27
6.33
28.77
45.63
57.61
65.8
71.06
73.81
74.32
72.99
70.59
68.12
66.45
65.93
66.35
67.06
67.39
66.99
65.99
64.85
64.0
63.56
63.17
62.08
59.48
54.85
48.26
40.34
32.16
24.68
18.48
13.35
8.54
3.05
-3.82
-12.08
-21.05
-29.66
-36.92
-42.45
-46.61
-50.48
-55.47
-62.91
-73.53
-87.07
-101.97
-115.54
-124.36
-125.31
-116.48
-97.96
-71.92
-41.98
-12.15
14.36
35.78
51.87
63.38
71.32
76.41
78.9
78.9
76.71
73.13
69.23
66.04
64.06
63.11
62.5
61.57
60.06
58.3
56.87
56.17
56.02
55.64
53.97
50.22
44.22
36.56
28.29
20.52
13.91
8.5
3.67
-1.5
-7.77
-15.42
-24.08
-32.95
-41.1
-47.92
-53.3
-57.71
-62.0
-67.28
-74.62
-84.68
-97.26
-110.93
-123.04
-130.18
-129.22
-118.44
-98.33
-71.52
-42.04
-14.02
9.58
27.45
39.86
47.92
52.77
55.13
55.25
53.25
49.53
44.9
40.45
37.16
35.54
35.48
36.44
37.75
38.88
39.55
39.6
38.89
37.27
34.63
31.05
26.78
22.12
17.3
12.36
7.18
1.65
-4.22
-10.28
-16.27
-21.94
-27.1
-31.75
-36.05
-40.39
-45.46
-52.06
-60.85
-71.81
-83.82
-94.52
-100.77
-99.65
-89.51
-70.76
-45.85
-18.53
7.43
29.33
46.02
57.76
65.53
70.27
72.58
72.76
71.09
68.14
64.72
61.61
59.29
57.81
56.9
56.18
55.43
54.62
53.82
52.94
51.71
49.65
46.32
41.48
35.25
28.07
20.51
13.05
5.83
-1.32
-8.78
-16.82
-25.42
-34.17
-42.44
-49.69
-55.73
-60.84
-65.71
-71.32
-78.61
-88.26
-100.15
-113.1
-124.66
-131.53
-130.53
-119.77
-99.56
-72.5
-42.59
-13.93
10.59
29.85
44.24
54.85
62.75
68.45
72.07
73.61
73.3
71.64
69.3
66.9
