0
8.0
28.24
45.08
57.9
66.4
70.56
70.6
67.07
60.84
52.95
44.5
36.51
29.77
24.81
21.83
20.68
20.96
22.08
23.44
24.57
25.15
25.03
24.12
22.36
19.65
15.93
11.17
5.44
-1.09
-8.16
-15.43
-22.53
-29.14
-35.08
-40.41
-45.47
-50.89
-57.35
-65.35
-74.91
-85.25
-94.77
-101.3
-102.68
-97.36
-84.93
-66.3
-43.39
-18.64
5.57
27.38
45.54
59.38
68.67
73.5
74.24
71.58
66.37
59.58
52.16
44.93
38.54
33.43
29.85
27.89
27.47
28.42
30.45
33.13
35.87
38.0
38.88
38.07
35.46
31.33
26.17
20.53
14.78
9.03
3.18
-2.95
-9.47
-16.33
-23.33
-30.2
-36.67
-42.61
-48.04
-53.27
-58.84
-65.45
-73.57
-83.07
-92.9
-101.08
-105.21
-103.17
-93.86
-77.6
-56.03
-31.52
-6.55
16.81
37.1
53.48
65.54
73.17
76.57
76.21
72.8
67.25
60.54
53.61
47.26
42.06
38.27
35.9
34.82
34.84
35.85
37.7
40.13
42.64
44.55
45.17
43.98
40.86
36.08
30.22
23.96
17.88
12.26
7.08
2.01
-3.38
-9.46
-16.34
-23.79
-31.29
-38.25
-44.26
-49.25
-53.55
-57.78
-62.67
-68.87
-76.69
-85.87
-95.36
-103.36
-107.61
-106.01
-97.33
-81.68
-60.5
-36.17
-11.28
12.0
32.17
48.47
60.54
68.25
71.62
70.88
66.57
59.55
50.97
42.02
33.81
27.14
22.49
19.91
19.16
19.73
21.07
22.66
24.1
25.17
25.73
25.66
24.79
22.89
19.75
15.29
9.64
3.13
-3.76
-10.57
-16.95
-22.76
-28.03
-33.01
-38.15
-44.05
-51.24
-59.95
-69.77
-79.46
-87.07
-90.43
-87.78
-78.35
-62.63
-42.22
-19.4
3.54
24.64
42.58
56.56
66.25
71.59
72.75
70.12
64.33
56.32
47.23
38.32
30.69
25.1
21.74
20.31
20.17
20.66
21.31
21.86
22.18
22.15
21.55
20.13
17.69
14.18
9.64
4.24
-1.9
-8.61
-15.69
-22.87
-29.81
-36.31
-42.38
-48.4
-54.99
-62.81
-72.16
-82.7
-93.21
-101.75
-106.11
-104.34
-95.41
-79.46
-57.83
-32.71
-6.62
18.1
39.66
56.91
69.32
76.87
79.88
78.96
74.93
68.71
61.29
53.6
46.39
40.16
35.16
31.5
29.17
28.18
28.47
29.82
31.79
33.71
34.88
34.71
32.95
29.72
25.38
20.35
14.94
9.29
3.3
-3.16
-10.15
-17.54
-25.02
-32.16
-38.64
-44.38
-49.69
-55.18
-61.59
-69.47
-78.79
-88.68
-97.45
-102.92
-102.94
-96.07
-82.05
-61.84
-37.46
-11.39
13.93
36.57
55.25
69.27
78.41
82.82
82.88
79.27
72.89
64.82
56.18
48.0
41.02
35.69
32.11
30.21
29.8
30.66
32.48
34.79
36.97
38.35
38.34
36.66
33.39
28.94
23.83
18.51
13.17
7.71
1.89
-4.52
-11.64
-19.32
-27.22
-34.9
-41.96
-48.2
-53.77
-59.14
-65.02
-72.07
-80.56
-89.99
-99.02
-105.56
-107.36
-102.59
-90.52
-71.75
-48.13
-22.26
3.24
26.2
45.24
59.75
69.63
74.99
76.07
73.22
67.01
58.39
48.61
39.03
30.88
24.94
21.5
20.3
20.84
22.48
24.66
26.92
28.89
30.25
30.67
29.87
27.6
23.74
18.34
11.62
3.99
-4.01
-11.91
-19.35
-26.22
-32.63
-38.84
-45.21
-52.09
-59.81
-68.52
-77.97
-87.26
-94.78
-98.44
-96.28
-87.09
-70.95
-49.28
-24.35
1.27
25.33
46.17
62.75
74.49
81.24
83.2
80.99
75.57
68.09
59.73
51.52
44.24
38.43
34.38
32.1
31.39
31.89
33.2
34.91
36.58
37.77
37.97
36.77
33.95
29.67
24.36
18.65
13.02
7.63
2.28
-3.45
-9.9
-17.11
-24.75
-32.25
-39.05
-44.83
-49.69
-54.07
-58.71
-64.43
-71.85
-81.11
-91.46
-101.22
-107.98
-109.21
-103.14
-89.31
-68.8
-43.88
-17.3
8.42
31.38
50.39
64.86
74.54
79.53
80.24
77.43
72.09
65.32
58.08
51.18
45.19
40.47
37.16
35.29
34.73
35.3
36.77
38.81
40.97
42.65
43.25
42.24
39.45
35.06
29.61
23.72
17.85
12.18
6.53
0.55
-6.04
-13.28
-20.92
-28.49
-35.5
-41.66
-46.98
-51.77
-56.58
-62.06
-68.78
-76.95
-86.14
-95.14
-102.08
-104.76
-101.36
-91.01
-74.15
-52.38
-28.0
-3.42
19.36
38.96
54.55
65.7
72.29
74.39
72.43
67.12
59.47
50.65
41.82
34.03
28.05
24.31
22.86
23.41
25.44
28.28
31.26
33.78
35.32
35.52
34.2
31.36
27.27
22.3
16.86
11.19
5.39
-0.61
-6.93
-13.58
-20.46
-27.3
-33.83
-39.87
-45.42
-50.74
-56.34
-62.78
-70.46
-79.21
-88.01
-95.04
-98.01
-94.93
-84.75
-67.82
-45.79
-21.12
3.61
26.26
45.35
60.14
70.3
75.87
77.1
74.47
68.78
61.07
52.6
44.61
38.12
33.75
31.56
31.22
32.18
33.89
35.96
38.13
40.1
41.49
41.81
40.6
37.66
33.14
27.53
21.47
15.48
9.83
4.43
-1.04
-6.95
-13.54
-20.78
-28.4
-35.92
-42.91
-49.09
-54.46
-59.36
-64.43
-70.37
-77.73
-86.5
-95.83
-103.97
-108.64
-107.62
-99.48
-84.09
-62.69
-37.56
-11.38
13.39
34.95
52.31
65.12
73.5
77.79
78.47
76.11
71.39
65.15
58.32
51.86
46.6
43.06
41.37
41.32
42.42
44.15
46.08
47.87
49.3
50.12
50.1
48.99
46.67
43.15
38.6
33.36
27.75
22.09
16.56
11.2
5.95
0.59
-5.1
-11.29
-18.01
-25.01
-31.93
-38.35
-43.98
-48.8
-53.04
-57.16
-61.78
-67.48
-74.73
-83.6
-93.48
-102.93
-109.86
-111.99
-107.49
-95.69
-77.26
-54.07
-28.61
-3.41
19.47
38.63
53.32
63.29
68.72
70.04
67.89
63.01
56.25
48.5
40.68
33.7
28.28
24.81
23.28
23.29
24.26
25.58
26.86
27.87
28.49
28.58
27.94
26.3
23.43
19.23
13.84
7.57
0.84
-5.91
-12.36
-18.33
-23.84
-29.07
-34.34
-40.08
-46.71
-54.53
-63.46
-72.86
-81.45
-87.46
-89.0
-84.55
-73.48
-56.37
-34.87
-11.36
11.66
32.11
48.69
60.8
68.43
71.79
71.23
67.21
60.41
51.81
42.57
33.9
26.75
21.62
18.55
17.25
17.28
18.14
19.39
20.63
21.49
21.68
21.02
19.41
16.78
13.05
8.15
2.11
-4.84
-12.27
-19.61
-26.38
-32.4
-37.82
-43.06
-48.7
-55.3
-63.27
-72.68
-83.03
-93.04
-100.72
-103.79
-100.27
-89.31
-71.45
-48.51
-23.06
2.33
25.6
45.36
60.82
71.64
77.79
79.59
77.74
73.15
66.81
59.64
52.35
45.58
39.82
35.47
32.76
31.69
32.07
33.53
35.61
37.79
39.51
40.23
39.43
36.88
32.63
27.1
20.91
14.61
8.48
2.49
-3.63
-10.18
-17.21
-24.55
-31.79
-38.52
-44.5
-49.8
-54.79
-60.09
-66.39
-74.16
-83.34
-93.01
-101.38
-106.11
-104.94
-96.45
-80.6
-58.7
-33.09
-6.46
18.76
40.8
58.55
71.55
79.75
83.43
83.15
79.66
73.83
66.58
58.8
51.35
44.91
39.9
36.46
34.46
33.68
33.9
35.0
36.83
39.08
41.15
42.28
41.79
39.28
34.9
29.21
23.01
16.91
11.2
5.76
0.2
-5.87
-12.62
-19.92
-27.41
-34.63
-41.24
-47.07
-52.21
-57.03
-62.12
-68.14
-75.57
-84.4
-93.78
-102.02
-106.93
-106.35
-98.86
-84.27
-63.71
-39.28
-13.54
11.12
32.83
50.47
63.49
71.86
75.84
75.9
72.62
66.71
58.99
50.4
41.91
34.38
28.45
24.38
22.11
21.29
21.49
22.3
23.4
24.54
25.48
25.92
25.49
23.76
20.42
15.37
8.85
1.41
-6.25
-13.49
-19.93
-25.61
-30.85
-36.22
-42.28
-49.49
-58.01
-67.58
-77.3
-85.66
-90.77
-90.81
-84.58
-71.94
-53.89
-32.28
-9.31
12.96
32.95
49.61
62.27
70.6
74.49
74.15
70.17
63.44
55.12
46.36
38.08
30.87
24.93
20.23
16.72
14.39
13.34
13.56
14.85
16.64
18.12
18.33
16.59
12.67
6.88
0.01
-7.06
-13.63
-19.48
-24.84
-30.23
-36.26
-43.42
-51.9
-61.51
-71.5
-80.55
-86.84
-88.46
-83.98
-72.94
-56.12
-35.29
-12.68
9.56
29.76
46.83
60.09
69.14
73.85
74.34
71.14
65.1
57.23
48.53
39.84
31.73
24.59
18.68
14.19
11.26
9.86
9.77
10.45
11.19
11.18
9.87
7.05
2.92
-2.04
-7.3
-12.49
-17.48
-22.48
-27.91
-34.3
-42.17
-51.69
-62.41
-73.06
-81.7
-86.12
-84.59
-76.37
-62.12
-43.56
-22.95
-2.45
16.35
32.52
45.58
55.26
61.3
63.5
61.85
56.7
48.87
39.5
29.91
21.3
14.5
9.86
7.3
6.42
6.69
7.53
8.4
8.82
8.42
6.97
4.49
1.15
-2.76
-7.03
-11.55
-16.42
-21.94
-28.5
-36.4
-45.5
-55.0
-63.36
-68.57
-68.76
-62.87
-51.04
-34.64
-15.79
3.31
20.89
35.81
47.46
55.48
59.64
59.82
56.18
49.31
40.2
30.15
20.44
12.15
5.93
1.96
-0.08
-0.78
-0.88
-1.08
-1.93
-3.67
-6.37
-9.91
-14.07
-18.63
-23.41
-28.38
-33.67
-39.67
-46.85
-55.59
-65.8
-76.62
-86.35
-92.73
-93.6
-87.59
-74.61
-55.89
-33.56
-10.0
12.66
32.87
49.62
62.29
70.56
74.41
74.12
70.36
64.04
56.21
47.82
39.67
32.33
26.15
21.35
18.05
16.22
15.71
16.15
16.89
17.14
16.1
13.24
8.52
2.34
-4.62
-11.69
-18.51
-25.17
-32.12
-40.06
-49.65
-61.15
-74.08
-87.03
-97.78
-103.7
-102.56
-93.21
-76.02
-52.78
-26.19
0.94
26.2
47.99
65.39
78.05
85.91
89.16
88.21
83.74
76.67
68.15
59.37
51.39
44.93
40.25
37.16
35.25
34.08
33.41
33.14
33.24
33.52
33.48
32.45
29.77
25.03
18.34
10.24
1.54
-6.98
-14.8
-21.81
-28.29
-34.78
-41.94
-50.41
-60.61
-72.39
-84.86
-96.28
-104.28
-106.49
-101.19
-87.88
-67.48
-42.08
-14.36
13.03
37.9
58.77
74.79
85.68
91.57
92.93
90.46
85.05
77.71
69.45
61.22
53.84
47.92
43.76
41.4
40.66
41.17
42.43
43.92
45.08
45.41
44.56
42.37
38.9
34.36
29.05
23.24
17.13
10.83
4.32
-2.42
-9.44
-16.68
-23.97
-31.09
-37.78
-43.91
-49.62
-55.38
-61.86
-69.73
-79.2
-89.66
-99.48
-106.28
-107.52
-101.31
-87.05
-65.67
-39.39
-11.12
16.25
40.43
59.99
74.3
83.34
87.48
87.32
83.63
77.36
69.54
61.22
53.35
46.64
41.51
38.12
36.45
36.36
37.61
39.84
42.6
45.33
47.49
48.65
48.51
47.02
44.24
40.35
35.6
30.22
24.45
18.47
12.48
6.62
1.0
-4.35
-9.54
-14.81
-20.39
-26.42
-32.81
-39.21
-45.2
-50.42
-54.78
-58.55
-62.24
-66.55
-72.11
-79.28
-87.84
-96.78
-104.33
-108.25
-106.43
-97.5
-81.36
-59.23
-33.35
-6.38
19.11
41.14
58.43
70.41
77.08
78.89
76.6
71.18
63.72
55.3
46.91
39.32
33.02
28.27
25.07
23.33
22.93
23.79
25.77
28.65
32.0
35.15
37.34
37.89
36.39
32.86
27.77
21.83
15.76
10.07
4.85
-0.1
-5.14
-10.51
-16.28
-22.29
-28.31
-34.06
-39.36
-44.12
-48.44
-52.63
-57.24
-62.85
-69.78
-77.63
-85.19
-90.51
-91.47
-86.47
-74.97
-57.72
-36.45
-13.42
9.16
29.46
46.19
58.62
66.49
69.93
69.36
65.44
58.94
50.74
41.72
32.83
24.88
18.48
13.93
11.19
10.02
10.09
11.16
13.02
15.44
18.03
20.21
21.34
20.92
18.84
15.4
11.2
6.85
2.7
-1.28
-5.49
-10.38
-16.2
-22.78
-29.57
-35.89
-41.19
-45.33
-48.55
-51.47
-54.85
-59.41
-65.63
-73.51
-82.36
-90.73
-96.65
-98.02
-93.23
-81.63
-63.78
-41.32
-16.56
8.01
30.23
48.49
61.89
70.22
73.8
73.28
69.43
63.06
54.93
45.86
36.69
28.27
21.31
16.2
12.98
11.46
11.36
12.43
14.46
17.18
20.15
22.78
24.42
24.58
23.01
19.83
15.46
10.49
5.46
0.68
-3.83
-8.35
-13.27
-18.89
-25.25
-32.11
-39.05
-45.62
-51.54
-56.77
-61.54
-66.31
-71.7
-78.3
-86.43
-95.75
-105.1
-112.56
-115.83
-112.9
-102.7
-85.47
-62.69
-36.66
-9.92
15.2
36.98
54.32
66.72
74.15
76.93
75.57
70.74
63.28
54.16
44.47
35.31
27.58
21.87
18.36
16.89
17.12
18.68
21.23
24.43
27.91
31.17
33.62
34.7
34.05
31.64
27.78
23.01
17.9
12.81
7.82
2.74
-2.73
-8.81
-15.52
-22.65
-29.9
-36.93
-43.49
-49.45
-54.88
-60.07
-65.53
-71.94
-79.91
-89.61
-100.41
-110.76
-118.37
-120.79
-116.16
-103.75
-84.23
-59.41
-31.79
-3.95
21.9
44.09
61.55
73.79
80.77
82.85
80.71
75.18
67.18
57.58
47.24
37.01
27.7
20.04
14.56
11.56
10.99
12.53
15.55
19.29
22.97
25.95
27.83
28.44
27.77
25.87
22.78
18.5
13.11
6.77
-0.22
-7.51
-14.78
-21.84
-28.63
-35.3
-42.12
-49.53
-58.03
-67.95
-79.12
-90.54
-100.33
-106.07
-105.48
-97.16
-81.07
-58.55
-31.88
-3.72
23.49
47.75
67.55
81.89
90.28
92.82
90.26
83.83
74.98
65.06
55.03
45.53
36.93
29.57
23.81
19.99
18.36
18.84
21.06
24.36
27.89
30.85
32.6
32.8
31.48
28.88
25.3
20.95
15.83
9.82
2.88
-4.88
-13.06
-21.16
-28.79
-35.87
-42.61
-49.48
-56.99
-65.6
-75.59
-86.87
-98.7
-109.54
-117.17
-119.09
-113.31
-99.07
-77.13
-49.68
-19.65
10.02
36.9
59.36
76.53
88.1
94.18
95.23
91.94
85.19
75.93
65.17
53.88
43.13
33.86
26.87
22.6
21.04
21.79
24.18
27.46
30.97
34.15
36.57
37.86
37.74
36.04
32.78
28.14
22.44
15.98
9.04
1.76
-5.73
-13.29
-20.75
-27.97
-34.93
-41.87
-49.34
-57.98
-68.29
-80.12
-92.42
-103.23
-110.01
-110.4
-102.78
-86.94
-64.09
-36.54
-7.2
21.15
46.22
66.55
81.35
90.49
94.26
93.25
88.32
80.48
70.85
60.55
50.58
41.79
34.77
29.88
27.31
27.02
28.74
31.93
35.79
39.41
41.92
42.75
41.72
39.04
35.18
30.59
25.57
20.16
14.21
7.51
-0.01
-8.21
-16.76
-25.21
-33.15
-40.38
-46.95
-53.29
-60.1
-68.13
-77.75
-88.49
-98.82
-106.32
-108.31
-102.74
-88.89
-67.67
-41.34
-12.84
14.95
39.79
60.26
75.62
85.7
90.57
90.59
86.3
78.56
68.5
57.45
46.75
37.53
30.53
25.99
23.7
23.23
24.04
25.63
27.62
29.69
31.49
32.68
32.83
31.53
28.45
23.48
16.79
8.88
0.49
-7.67
-15.09
-21.62
-27.5
-33.2
-39.28
-46.25
-54.47
-64.03
-74.56
-84.94
-93.31
-97.3
-94.69
-84.24
-66.28
-42.73
-16.52
9.33
32.51
51.72
66.5
76.86
82.83
84.5
82.05
76.02
67.34
57.16
46.66
36.9
28.73
22.74
19.23
18.13
19.02
21.22
23.99
26.68
28.84
30.14
30.31
29.16
26.53
22.43
17.03
10.6
3.46
-4.15
-12.01
-19.93
-27.63
-34.85
-41.45
-47.5
-53.42
-59.85
-67.42
-76.43
-86.48
-96.28
-103.72
-106.34
-101.98
-89.55
-69.43
-43.54
-14.8
13.59
38.95
59.53
74.58
84.11
88.54
88.45
84.51
77.49
68.37
58.22
48.17
39.19
31.97
26.87
23.98
23.19
24.3
26.97
30.72
34.87
38.58
41.03
41.59
40.0
36.45
31.44
25.58
19.37
13.02
6.47
-0.48
-7.95
-15.84
-23.83
-31.46
-38.36
-44.39
-49.75
-54.94
-60.69
-67.71
-76.4
-86.49
-96.85
-105.51
-110.01
-108.06
-98.27
-80.7
-56.83
-29.34
-1.29
24.54
46.18
62.65
73.73
79.78
81.31
78.9
73.15
64.81
54.81
44.28
34.38
26.14
20.26
17.04
16.39
17.89
20.87
24.56
28.15
30.99
32.6
32.75
31.43
28.74
24.78
19.69
13.66
6.93
-0.17
-7.33
-14.28
-20.88
-27.11
-33.03
-38.76
-44.52
-50.68
-57.68
-65.84
-75.02
-84.35
-92.1
-96.06
-94.1
-84.9
-68.42
-46.01
-20.07
6.59
31.31
52.08
67.74
77.89
82.73
82.86
79.11
72.37
63.6
53.8
44.0
35.18
28.18
23.5
21.31
21.43
23.42
26.75
30.79
34.88
38.27
40.23
40.16
37.79
33.28
27.21
20.4
13.62
7.29
1.4
-4.45
-10.79
-17.97
-25.95
-34.29
-42.28
-49.28
-54.99
-59.56
-63.61
-68.07
-73.9
-81.63
-91.05
-100.9
-108.99
-112.61
-109.33
-97.82
-78.35
-52.76
-23.99
4.77
30.8
52.32
68.48
79.14
84.57
85.25
81.83
75.24
66.65
57.37
48.63
41.38
36.11
32.9
31.54
31.76
33.29
35.91
39.29
42.93
46.12
48.07
48.09
45.87
41.54
35.68
29.06
22.42
16.15
10.2
4.16
-2.47
-9.98
-18.28
-26.84
-34.95
-41.99
-47.69
-52.28
-56.42
-61.04
-67.0
-74.77
-84.11
-93.88
-102.05
-106.2
-104.07
-94.35
-77.12
-53.95
-27.45
-0.67
23.71
43.8
58.71
68.4
73.36
74.29
71.88
66.73
59.44
50.74
41.51
32.76
25.45
20.28
17.61
17.4
19.25
22.53
26.48
30.29
33.21
34.74
34.61
32.83
29.61
25.21
19.83
13.67
6.89
-0.28
-7.57
-14.69
-21.39
-27.48
-32.93
-37.84
-42.58
-47.7
-53.91
-61.76
-71.25
-81.43
-90.42
-95.71
-94.91
-86.56
-70.65
-48.71
-23.4
2.33
25.81
45.26
59.78
69.22
73.89
74.32
71.13
65.12
57.2
48.44
39.92
32.57
27.01
23.5
21.92
21.99
23.37
25.73
28.73
31.91
34.67
36.33
36.27
34.2
30.25
24.94
18.97
12.96
7.25
1.8
-3.7
-9.64
-16.24
-23.51
-31.11
-38.52
-45.25
-51.05
-56.06
-60.84
-66.24
-73.01
-81.43
-90.83
-99.59
-105.37
-105.78
-99.11
-84.89
-64.16
-39.11
-12.54
12.81
34.79
52.09
64.21
71.25
73.68
72.21
67.66
61.02
53.37
45.76
39.1
33.97
30.55
28.72
28.25
28.94
30.65
33.27
36.51
39.82
42.41
43.52
42.65
39.76
35.21
29.65
23.68
17.67
11.71
5.64
-0.78
-7.67
-15.01
-22.53
-29.83
-36.51
-42.31
-47.21
-51.55
-55.93
-61.13
-67.76
-75.93
-84.93
-93.11
-98.19
-97.84
-90.47
-75.79
-55.06
-30.68
-5.56
17.68
37.22
52.18
62.4
68.13
69.76
67.78
62.77
55.54
47.03
38.23
30.08
23.28
18.32
15.42
14.58
15.58
17.92
20.97
24.03
26.53
28.12
28.63
28.04
26.33
23.48
19.49
14.48
8.7
2.48
-3.86
-10.12
-16.23
-22.15
-27.88
-33.38
-38.7
-44.06
-49.89
-56.74
-64.94
-74.29
-83.77
-91.62
-95.62
-93.75
-84.88
-69.14
-48.03
-23.98
0.26
22.27
40.38
53.81
62.47
66.69
66.98
63.93
58.2
50.63
42.23
34.06
27.09
21.94
18.86
17.75
18.3
20.16
22.97
26.37
29.84
32.77
34.52
34.56
32.71
29.12
24.24
18.62
12.75
6.88
1.03
-5.0
-11.42
-18.32
-25.57
-32.83
-39.7
-45.89
-51.36
-56.37
-61.47
-67.38
-74.67
-83.44
-93.01
-101.74
-107.29
-107.28
-99.99
-85.12
-63.89
-38.74
-12.56
12.05
33.29
50.2
62.45
70.05
73.17
72.18
67.74
60.82
52.62
44.39
37.13
31.53
27.85
25.99
25.67
26.57
28.45
31.12
34.36
37.81
40.87
42.84
43.05
41.13
37.14
31.55
25.1
18.51
12.27
6.49
0.92
-4.86
-11.18
-18.12
-25.43
-32.6
-39.14
-44.75
-49.45
-53.61
-57.86
-62.92
-69.43
-77.68
-87.26
-96.89
-104.42
-107.31
-103.37
-91.56
-72.42
-48.02
-21.27
4.87
28.09
47.02
61.16
70.55
75.54
76.59
74.3
69.39
62.68
54.99
47.15
39.88
33.78
29.26
26.54
25.69
26.56
28.85
32.06
35.5
38.39
39.98
39.72
37.44
33.39
28.09
22.14
15.99
9.82
3.53
-3.06
-10.09
-17.49
-24.96
-32.1
-38.53
-44.14
-49.11
-53.99
-59.55
-66.47
-75.03
-84.64
-93.81
-100.3
-101.72
-96.33
-83.61
-64.5
-41.13
-16.17
7.88
29.14
46.49
59.43
67.83
71.79
71.54
67.56
60.56
51.54
41.71
32.26
24.25
18.31
14.66
13.03
12.94
13.9
15.56
17.73
20.21
22.6
24.29
24.55
22.79
18.84
13.07
6.23
-0.8
-7.35
-13.15
-18.38
-23.55
-29.33
-36.41
-45.33
-56.26
-68.77
-81.59
-92.63
-99.36
-99.5
-91.76
-76.36
-54.99
-30.29
-5.09
18.23
38.1
53.75
64.92
71.62
74.05
72.54
67.66
60.27
51.47
42.39
34.08
27.28
22.33
19.23
17.73
17.53
18.39
20.05
22.22
24.42
25.98
26.14
24.3
20.17
13.94
6.22
-2.15
-10.34
-17.81
-24.37
-30.28
-36.08
-42.52
-50.3
-59.85
-71.0
-82.71
-93.07
-99.63
-99.99
-92.66
-77.52
-55.94
-30.41
-3.82
21.2
42.73
59.66
71.64
78.75
81.33
79.88
75.03
67.57
58.49
48.97
40.19
33.09
28.13
25.17
23.73
23.17
23.1
23.45
24.29
25.62
27.06
27.85
27.1
24.15
18.84
11.57
3.18
-5.41
-13.46
-20.59
-26.85
-32.6
-38.44
-45.11
-53.27
-63.18
-74.37
-85.42
-94.03
-97.65
-94.17
-82.68
-63.8
-39.55
-12.77
13.64
37.3
56.65
70.98
80.19
84.57
84.61
80.91
74.19
65.36
55.48
45.69
37.03
30.23
25.57
22.91
21.82
21.85
22.63
23.95
25.6
27.3
28.58
28.79
27.28
23.58
17.59
9.66
0.57
-8.67
-17.19
-24.46
-30.57
-36.09
-41.92
-48.96
-57.81
-68.46
-80.16
-91.33
-99.84
-103.36
-100.02
-89.01
-70.89
-47.51
-21.52
4.3
27.66
47.07
61.79
71.61
76.57
76.92
73.07
65.79
56.11
45.35
34.85
25.73
18.69
13.9
11.15
10.02
10.1
11.15
13.0
15.41
17.83
19.45
19.33
16.74
11.53
4.23
-4.14
-12.39
-19.61
-25.48
-30.33
-34.99
-40.53
-47.87
-57.4
-68.61
-79.99
-89.19
-93.6
-91.06
-80.58
-62.69
-39.29
-13.17
12.77
36.12
55.27
69.45
78.52
82.74
82.5
78.33
70.88
61.05
50.02
39.17
29.82
22.92
18.85
17.34
17.67
19.06
20.86
22.7
24.41
25.81
26.58
26.27
24.41
20.67
15.02
7.77
-0.52
-9.16
-17.49
-25.09
-31.83
-37.91
-43.77
-50.04
-57.35
-66.12
-76.28
-86.98
-96.54
-102.66
-102.96
-95.73
-80.57
-58.64
-32.38
-4.87
20.97
43.02
60.13
71.99
78.85
81.17
79.5
74.55
67.19
58.48
49.57
41.47
34.92
30.29
27.65
26.85
27.61
29.57
32.25
35.04
37.24
38.25
37.67
35.45
31.84
27.25
22.05
16.46
10.46
3.92
-3.22
-10.88
-18.72
-26.27
-33.08
-38.89
-43.8
-48.29
-53.13
-59.15
-66.96
-76.56
-86.99
-96.34
-102.07
-101.69
-93.52
-77.39
-54.7
-28.09
-0.67
24.74
46.17
62.58
73.7
79.74
81.13
78.54
72.77
64.86
55.94
47.13
39.34
33.11
28.66
25.95
24.9
25.43
27.41
30.58
34.33
37.81
40.03
40.28
38.3
34.4
29.25
23.52
17.7
11.88
5.92
-0.42
-7.31
-14.75
-22.57
-30.44
-37.95
-44.67
-50.45
-55.42
-60.2
-65.65
-72.62
-81.38
-91.28
-100.59
-106.8
-107.37
-100.48
-85.72
-64.28
-38.59
-11.6
13.93
36.05
53.73
66.61
74.78
78.38
77.63
72.93
64.96
54.76
43.67
33.06
24.14
17.73
14.13
13.14
14.2
16.53
19.37
22.07
24.23
25.58
25.95
25.13
22.85
18.88
13.15
5.91
-2.26
-10.57
-18.3
-25.03
-30.8
-36.02
-41.3
-47.23
-54.24
-62.52
-71.92
-81.81
-90.93
-97.38
-98.99
-93.93
-81.36
-61.86
-37.36
-10.59
15.64
39.03
58.09
72.13
81.02
85.0
84.56
80.4
73.43
64.68
55.17
45.82
37.34
30.3
25.08
21.97
21.06
22.22
25.04
28.8
32.58
35.38
36.39
35.18
31.77
26.64
20.57
14.34
8.48
3.07
-2.19
-7.82
-14.23
-21.44
-29.05
-36.44
-43.06
-48.73
-53.7
-58.61
-64.24
-71.34
-80.19
-90.42
-100.7
-108.82
-112.13
-108.29
-96.11
-76.02
-50.07
-21.34
6.97
32.28
52.99
68.44
78.57
83.63
84.05
80.44
73.7
64.95
55.47
46.45
38.82
33.11
29.5
27.85
27.9
29.36
31.91
35.19
38.66
41.65
43.4
43.31
41.12
36.98
31.45
25.28
19.11
13.32
7.89
2.5
-3.29
-9.78
-16.98
-24.59
-32.12
-39.09
-45.21
-50.48
-55.31
-60.38
-66.53
-74.4
-84.0
-94.4
-103.6
-108.96
-107.95
-99.03
-82.21
-59.08
-32.33
-4.94
20.52
42.25
59.31
71.4
78.61
81.27
79.9
75.18
67.94
59.17
49.88
41.08
33.56
27.86
24.2
22.56
22.72
24.42
27.26
30.74
34.11
36.56
37.37
36.17
33.06
28.54
23.27
17.76
12.21
6.46
0.2
-6.8
-14.53
-22.64
-30.6
-37.87
-44.14
-49.38
-53.96
-58.55
-63.95
-70.82
-79.34
-88.83
-97.67
-103.52
-103.89
-96.97
-82.29
-60.94
-35.35
-8.51
16.82
38.68
56.07
68.72
76.72
80.26
79.58
75.05
67.35
57.48
46.69
36.32
27.54
21.17
17.58
16.67
17.91
20.51
23.58
26.36
28.29
29.05
28.5
26.64
23.51
19.18
13.72
7.21
-0.18
-8.16
-16.31
-24.22
-31.52
-38.04
-43.87
-49.34
-54.94
-61.3
-68.92
-78.0
-88.09
-97.87
-105.2
-107.58
-102.87
-90.09
-69.85
-44.27
-16.31
11.03
35.41
55.38
70.29
80.06
84.91
85.27
81.78
75.28
66.77
57.28
47.76
39.09
31.97
26.96
24.33
24.09
25.88
29.04
32.75
36.16
38.52
39.33
38.34
35.65
31.58
26.61
21.21
15.64
9.91
3.82
-2.89
-10.33
-18.31
-26.43
-34.16
-41.09
-47.12
-52.49
-57.82
-63.9
-71.41
-80.58
-90.75
-100.3
-106.82
-107.74
-101.15
-86.47
-64.73
-38.25
-10.02
17.07
40.82
59.86
73.65
82.21
85.93
85.39
81.3
74.53
66.06
56.92
48.11
40.46
34.52
30.54
28.46
28.04
28.95
30.84
33.3
35.86
37.95
38.97
38.45
36.17
32.26
27.11
21.24
15.07
8.75
2.23
-4.66
-12.02
-19.68
-27.27
-34.35
-40.61
-46.05
-51.01
-56.15
-62.26
-69.93
-79.26
-89.49
-98.88
-105.06
-105.6
-98.86
-84.55
-63.93
-39.34
-13.51
11.11
32.78
50.51
63.8
72.45
76.39
75.79
71.12
63.18
53.11
42.2
31.79
23.03
16.67
12.95
11.66
12.22
13.99
16.44
19.19
21.99
24.52
26.29
26.64
24.95
20.88
14.58
6.71
-1.77
-9.95
-17.2
-23.44
-28.98
-34.45
-40.52
-47.75
-56.49
-66.66
-77.52
-87.59
-94.72
-96.63
-91.57
-79.01
-59.86
-36.28
-11.01
13.36
34.87
52.38
65.4
73.85
77.82
77.56
73.5
66.32
57.0
46.71
36.73
28.2
21.88
18.0
16.26
16.01
16.57
17.44
18.41
19.45
20.38
20.77
19.91
17.12
12.0
4.73
-3.94
-12.94
-21.25
-28.31
-34.1
-39.12
-44.18
-50.11
-57.58
-66.86
-77.56
-88.48
-97.64
-102.63
-101.24
-92.17
-75.53
-52.82
-26.6
0.28
25.27
46.57
63.14
74.66
81.26
83.34
81.5
76.44
68.98
60.06
50.68
41.9
34.63
29.51
26.74
26.03
26.78
28.25
29.8
31.04
31.78
31.94
31.36
29.78
26.84
22.27
16.0
8.34
-0.12
-8.62
-16.46
-23.26
-29.04
-34.15
-39.25
-45.04
-52.12
-60.77
-70.73
-81.04
-90.03
-95.53
-95.39
-88.11
-73.41
-52.38
-27.33
-1.11
23.51
44.44
60.56
71.59
77.81
79.72
77.87
72.81
65.19
55.92
46.12
36.99
29.58
24.49
21.82
21.2
21.99
23.53
25.25
26.74
27.73
27.98
27.32
25.56
22.55
18.22
12.56
5.72
-1.92
-9.89
-17.67
-24.9
-31.41
-37.31
-42.88
-48.56
-54.85
-62.24
-70.97
-80.73
-90.34
-97.85
-100.89
-97.42
-86.44
-68.47
-45.37
-19.81
5.43
28.16
46.92
61.04
70.31
74.8
74.82
70.88
63.75
54.48
44.36
34.69
26.6
20.82
17.55
16.44
16.83
18.03
19.56
21.19
22.85
24.37
25.33
25.05
22.85
18.34
11.68
3.56
-5.09
-13.36
-20.76
-27.22
-33.07
-38.84
-45.1
-52.42
-61.15
-71.23
-81.91
-91.59
-98.0
-98.77
-92.21
-77.98
-57.25
-32.43
-6.45
18.03
39.11
55.78
67.77
75.19
78.34
77.61
73.52
66.83
58.53
49.69
41.41
34.55
29.67
26.92
26.1
26.8
28.51
30.68
32.83
34.45
35.08
34.37
32.1
28.32
23.25
17.27
10.71
3.78
-3.39
-10.74
-18.11
-25.3
-32.03
-38.1
-43.5
-48.48
-53.55
-59.39
-66.58
-75.38
-85.28
-94.93
-102.13
-104.44
-99.87
-87.59
-68.33
-44.12
-17.72
8.14
31.35
50.61
65.32
75.34
80.78
81.89
79.1
73.18
65.16
56.3
47.9
41.02
36.33
33.97
33.6
34.66
36.54
38.78
41.13
43.44
45.47
46.85
47.06
45.63
42.32
37.26
31.01
24.34
17.95
12.22
7.06
2.03
-3.41
-9.65
-16.68
-24.2
-31.66
-38.58
-44.65
-49.82
-54.33
-58.62
-63.36
-69.22
-76.76
-86.0
-96.18
-105.58
-111.85
-112.56
-105.98
-91.69
-70.71
-45.29
-18.22
7.81
30.74
49.35
63.13
72.07
76.39
76.45
72.78
66.08
57.31
47.61
38.15
29.92
23.59
19.42
17.31
16.95
17.89
19.63
21.72
23.7
25.21
25.92
25.53
23.82
20.62
15.89
9.8
2.79
-4.55
-11.6
-17.91
-23.37
-28.17
-32.79
-37.81
-43.84
-51.32
-60.3
-70.2
-79.68
-86.71
-89.05
-84.9
-73.56
-55.69
-33.21
-8.71
15.23
36.61
54.17
67.32
75.9
79.94
79.68
75.57
68.37
59.1
48.96
39.12
30.56
23.97
19.68
17.7
17.73
19.26
21.61
24.06
25.94
26.76
26.21
24.28
21.13
17.04
12.28
7.01
1.29
-4.97
-11.74
-18.91
-26.22
-33.3
-39.86
-45.78
-51.21
-56.58
-62.49
-69.53
-78.08
-87.96
-98.12
-106.67
-111.13
-109.12
-99.2
-81.41
-57.38
-29.87
-1.96
23.72
45.39
62.21
74.0
80.94
83.43
82.03
77.48
70.68
62.62
54.22
46.26
39.36
33.94
30.27
28.44
28.38
29.82
32.27
35.11
37.62
39.14
39.18
37.53
34.34
30.01
25.05
19.88
14.64
9.19
3.22
-3.52
-11.04
-19.06
-27.07
-34.56
-41.22
-47.05
-52.4
-57.94
-64.44
-72.51
-82.18
-92.51
-101.54
-106.68
-105.43
-96.31
-79.44
-56.59
-30.54
-4.24
19.92
40.5
56.81
68.67
76.04
79.0
77.82
73.07
65.63
56.58
47.07
38.15
30.69
25.24
22.02
20.85
21.22
22.48
24.02
25.37
26.3
26.65
26.24
24.88
22.3
18.32
12.91
6.28
-1.15
-8.88
-16.42
-23.42
-29.76
-35.49
-40.89
-46.36
-52.43
-59.65
-68.31
-78.14
-88.0
-95.95
-99.65
-97.02
-87.0
-69.96
-47.66
-22.66
2.37
25.27
44.7
59.94
70.77
77.11
78.97
76.6
70.56
61.84
51.78
41.81
33.13
26.49
22.02
19.36
17.94
17.24
17.0
17.19
17.82
18.78
19.67
19.83
18.54
15.29
9.89
2.68
-5.62
-14.08
-21.92
-28.69
-34.47
-39.73
-45.2
-51.65
-59.67
-69.46
-80.58
-91.8
-101.15
-106.21
-104.8
-95.6
-78.75
-55.82
-29.41
-2.42
22.67
44.19
61.26
73.61
81.26
84.38
83.32
78.66
71.28
62.29
52.88
44.14
36.82
31.31
27.62
25.52
24.66
24.72
25.36
26.28
27.16
27.62
27.29
25.79
22.83
18.32
12.36
5.32
-2.31
-9.94
-17.15
-23.75
-29.8
-35.64
-41.76
-48.7
-56.96
-66.75
-77.74
-88.77
-97.86
-102.54
-100.6
-90.8
-73.4
-50.18
-23.82
2.76
27.14
47.74
63.74
74.85
81.1
82.69
80.06
73.96
65.43
55.69
45.99
37.41
30.66
25.95
23.1
21.63
21.07
21.04
21.43
22.21
23.27
24.29
24.73
23.98
21.54
17.18
11.11
3.81
-4.05
-11.84
-19.11
-25.68
-31.66
-37.48
-43.69
-50.95
-59.69
-69.9
-80.86
-91.02
-98.23
-100.23
-95.33
-83.01
-64.11
-40.66
-15.29
9.4
31.42
49.53
63.13
72.04
76.3
76.12
71.96
64.58
55.09
44.77
34.92
26.57
20.29
16.17
13.93
13.14
13.42
14.51
16.2
18.18
19.9
20.64
19.7
16.65
