0
-51.66
-40.64
-29.39
-18.65
-8.93
-0.55
6.29
11.5
15.13
17.37
18.47
18.73
18.45
17.87
17.21
16.57
15.94
15.25
14.36
13.2
11.82
10.39
9.08
7.99
7.04
5.99
4.52
2.42
-0.34
-3.55
-6.9
-10.07
-12.86
-15.26
-17.43
-19.58
-21.87
-24.39
-27.05
-29.72
-32.25
-34.58
-36.84
-39.3
-42.35
-46.28
-51.19
-56.75
-62.27
-66.7
-68.97
-68.25
-64.15
-56.89
-47.1
-35.67
-23.56
-11.57
-0.25
10.03
19.09
26.82
33.2
38.21
41.88
44.32
45.7
46.31
46.51
46.6
46.82
47.27
47.98
48.88
49.92
50.96
51.87
52.42
52.39
51.66
50.24
48.25
45.93
43.47
41.0
38.52
36.0
33.38
30.74
28.18
25.84
23.78
21.96
20.21
18.26
15.71
12.21
7.44
1.37
-5.65
-12.81
-18.94
-22.81
-23.44
-20.45
-14.19
-5.56
4.26
14.08
23.0
30.41
36.02
39.77
41.79
42.4
41.94
40.77
39.21
37.51
35.91
34.6
33.64
33.01
32.55
32.06
31.43
30.63
29.73
28.75
27.56
25.92
23.5
20.15
15.93
11.18
6.3
1.64
-2.65
-6.66
-10.6
-14.65
-18.88
-23.21
-27.44
-31.36
-34.83
-37.91
-40.79
-43.84
-47.42
-51.88
-57.33
-63.57
-69.94
-75.44
-78.9
-79.33
-76.18
-69.54
-60.07
-48.76
-36.69
-24.8
-13.78
-4.06
4.16
10.87
16.2
20.3
23.32
25.36
26.43
26.63
26.13
25.21
24.16
23.2
22.39
21.65
20.85
19.84
18.57
17.02
15.17
12.92
10.19
6.9
3.04
-1.26
-5.77
-10.17
-14.2
-17.72
-20.73
-23.39
-25.95
-28.66
-31.7
-35.09
-38.68
-42.21
-45.38
-47.96
-49.91
-51.35
-52.6
-53.96
-55.79
-58.32
-61.68
-65.75
-70.11
-74.01
-76.46
-76.48
-73.33
-66.87
-57.57
-46.33
-34.22
-22.14
-10.72
-0.28
8.96
16.83
23.24
28.25
32.09
35.09
37.53
39.53
41.02
41.89
42.17
42.14
42.18
42.58
43.41
44.44
45.37
45.9
45.93
45.44
44.44
42.91
40.84
38.31
35.54
32.88
30.64
28.99
27.86
26.99
26.01
24.6
22.64
20.16
17.39
14.58
11.93
9.51
7.21
4.79
1.96
-1.48
-5.55
-9.99
-14.33
-17.87
-19.83
-19.52
-16.47
-10.61
-2.33
7.63
18.28
28.6
37.69
44.95
50.09
53.16
54.48
54.5
53.74
52.62
51.42
50.33
49.41
48.67
47.99
47.22
46.15
44.67
42.76
40.53
38.11
35.58
32.84
29.7
25.99
21.71
17.04
12.29
7.74
3.52
-0.43
-4.29
-8.2
-12.3
-16.57
-20.91
-25.19
-29.29
-33.14
-36.78
-40.34
-44.04
-48.1
-52.72
-57.92
-63.53
-69.02
-73.57
-76.21
-76.07
-72.68
-66.21
-57.37
-47.2
-36.73
-26.71
-17.53
-9.38
-2.38
3.34
7.63
10.47
12.03
12.67
12.82
12.87
13.02
13.33
13.66
13.92
14.04
14.05
14.08
14.18
14.3
14.23
13.72
12.58
10.78
8.43
5.68
2.63
-0.67
-4.14
-7.66
-11.07
-14.33
-17.56
-21.09
-25.23
-30.04
-35.25
-40.36
-44.86
-48.55
-51.63
-54.57
-57.85
-61.77
-66.33
-71.26
-76.18
-80.52
-83.64
-84.81
-83.34
-78.84
-71.33
-61.33
-49.72
-37.48
-25.43
-14.04
-3.58
5.87
14.14
21.01
26.28
29.92
32.13
33.38
34.21
35.02
36.0
37.1
38.2
39.15
39.93
40.58
41.15
41.62
41.92
41.87
41.3
40.02
37.96
35.17
31.91
28.58
25.61
23.31
21.7
20.55
19.46
18.11
16.35
14.24
11.95
9.61
7.2
4.61
1.73
-1.49
-5.04
-8.92
-13.13
-17.63
-22.09
-25.84
-27.89
-27.25
-23.29
-16.07
-6.34
4.67
15.71
25.81
34.42
41.35
46.55
50.08
52.08
52.84
52.8
52.39
51.93
51.53
51.17
50.72
50.15
49.51
48.83
48.08
47.11
45.75
43.85
41.34
38.2
34.39
29.93
24.92
19.61
14.36
9.49
5.11
1.07
-2.94
-7.23
-11.87
-16.74
-21.59
-26.23
-30.68
-35.06
-39.56
-44.34
-49.48
-54.98
-60.7
-66.23
-70.8
-73.39
-73.01
-69.12
-61.88
-52.15
-41.13
-29.99
-19.51
-10.06
-1.76
5.22
10.68
14.39
16.36
16.94
16.66
16.1
15.61
15.32
15.16
15.1
15.18
15.51
16.11
16.87
17.52
17.72
17.2
15.84
13.63
10.69
7.21
3.47
-0.25
-3.66
-6.66
-9.36
-12.02
-15.01
-18.55
-22.63
-27.02
-31.37
-35.37
-38.93
-42.15
-45.34
-48.85
-53.05
-58.21
-64.4
-71.34
-78.26
-83.95
-87.02
-86.32
-81.4
-72.72
-61.52
-49.34
-37.51
-26.81
-17.44
-9.31
-2.25
3.76
8.72
12.62
15.61
17.91
19.73
21.21
22.4
23.34
24.15
24.97
26.0
27.4
29.2
31.29
33.33
34.93
35.71
35.47
34.27
32.38
30.22
28.1
26.16
24.33
22.46
20.41
18.14
15.67
13.09
10.46
7.84
5.38
3.22
1.45
-0.01
-1.53
-3.67
-6.99
-11.67
-17.38
-23.11
-27.5
-29.2
-27.34
-21.76
-13.05
-2.24
9.46
21.02
31.65
40.91
48.52
54.37
58.48
60.97
62.06
62.08
61.39
60.38
59.38
58.64
58.24
58.11
58.03
57.74
57.04
55.82
54.07
51.83
49.15
46.09
42.78
39.33
35.84
32.27
28.47
24.23
19.4
13.99
8.18
2.25
-3.65
-9.42
-15.16
-21.0
-27.1
-33.57
-40.47
-47.75
-55.11
-61.97
-67.35
-70.17
-69.56
-65.2
-57.49
-47.49
-36.5
-25.67
-15.78
-7.15
0.12
6.01
10.4
13.2
14.49
14.57
13.97
13.22
12.66
12.38
12.3
12.26
12.17
12.07
12.04
12.09
12.13
11.96
11.31
9.96
7.8
4.89
1.43
-2.27
-5.88
-9.24
-12.34
-15.4
-18.67
-22.28
-26.21
-30.25
-34.27
-38.23
-42.34
-46.86
-51.96
-57.72
-63.97
-70.47
-76.88
-82.73
-87.37
-89.99
-89.82
-86.4
-79.76
-70.44
-59.38
-47.56
-35.81
-24.73
-14.74
-6.16
0.74
5.88
9.35
11.54
12.93
14.01
15.09
16.33
17.74
19.31
21.0
22.77
24.55
26.23
27.71
28.88
29.66
29.97
29.7
28.75
27.17
25.17
23.14
21.42
20.16
19.18
18.1
16.51
14.26
11.54
8.74
6.22
4.1
2.27
0.41
-1.73
-4.31
-7.36
-10.8
-14.45
-17.92
-20.52
-21.33
-19.47
-14.47
-6.51
3.56
14.61
25.54
35.59
44.36
51.67
57.41
61.49
63.94
64.99
65.04
64.51
63.73
62.85
61.91
60.95
60.07
59.38
58.92
58.57
58.05
57.06
55.37
52.91
49.77
46.1
42.03
37.66
33.0
28.07
22.88
17.52
12.12
6.83
1.76
-3.08
-7.75
-12.42
-17.25
-22.4
-27.98
-33.98
-40.25
-46.44
-51.95
-56.06
-57.94
-56.99
-52.98
-46.26
-37.67
-28.29
-19.15
-10.9
-3.81
2.19
7.18
11.15
13.93
15.39
15.55
14.76
13.53
12.42
11.79
11.7
12.02
12.51
12.91
13.09
12.97
12.54
11.79
10.68
9.12
7.02
4.31
1.03
-2.61
-6.29
-9.68
-12.6
-15.11
-17.55
-20.31
-23.71
-27.74
-32.12
-36.42
-40.32
-43.78
-47.03
-50.46
-54.38
-58.97
-64.2
-69.91
-75.78
-81.32
-85.77
-88.19
-87.68
-83.72
-76.4
-66.48
-55.08
-43.34
-32.16
-22.03
-13.2
-5.86
-0.1
4.06
6.83
8.62
9.93
11.17
12.55
14.11
15.79
17.48
19.09
20.51
21.6
22.31
22.65
22.76
22.77
22.66
22.3
21.48
20.08
18.18
16.0
13.88
12.0
10.37
8.84
7.21
5.35
3.25
0.98
-1.33
-3.58
-5.69
-7.72
-9.84
-12.31
-15.48
-19.61
-24.71
-30.4
-35.93
-40.2
-42.12
-40.89
-36.26
-28.64
-18.92
-8.18
2.61
12.73
21.83
29.75
36.46
41.95
46.25
49.45
51.73
53.32
54.45
55.35
56.23
57.21
58.32
59.48
60.54
61.37
61.92
62.19
62.16
61.7
60.57
58.53
55.5
51.59
47.13
42.42
37.65
32.85
27.9
22.72
17.35
11.82
6.17
0.35
-5.72
-12.11
-18.86
-25.95
-33.29
-40.71
-47.8
-53.91
-58.19
-59.87
-58.56
-54.4
-48.01
-40.29
-32.05
-23.85
-16.01
-8.75
-2.33
2.97
6.9
9.37
10.56
10.87
10.74
10.56
10.61
10.98
11.69
12.66
13.82
15.04
16.18
17.03
17.34
16.91
15.63
13.55
10.88
7.92
4.95
2.24
-0.14
-2.22
-4.13
-6.12
-8.44
-11.3
-14.63
-18.18
-21.54
-24.32
-26.39
-27.96
-29.52
-31.66
-34.86
-39.42
-45.32
-52.24
-59.46
-65.89
-70.24
-71.3
-68.42
-61.75
-52.31
-41.55
-30.92
-21.43
-13.53
-7.19
-2.25
1.47
4.1
5.8
6.78
7.27
7.47
7.44
7.13
6.45
5.41
4.11
2.77
1.69
1.07
1.02
1.46
2.2
2.9
3.18
2.77
1.56
-0.34
-2.59
-4.79
-6.55
-7.73
-8.39
-8.81
-9.33
-10.21
-11.52
-13.12
-14.73
-16.1
-17.01
-17.4
-17.38
-17.23
-17.36
-18.26
-20.4
-24.05
-29.1
-34.99
-40.71
-45.05
-46.91
-45.55
-40.79
-33.02
-23.07
-11.97
-0.76
9.69
18.83
26.36
32.26
36.63
39.67
41.62
42.76
43.48
44.17
45.22
46.83
48.94
51.27
53.54
55.54
57.31
59.11
61.14
63.39
65.54
67.08
67.48
66.39
63.74
59.71
54.65
48.98
43.16
37.62
32.72
28.64
25.36
22.61
20.06
17.42
14.55
11.51
8.42
5.36
2.25
-1.1
-4.92
-9.36
-14.39
-19.78
-25.09
-29.67
-32.78
-33.71
-31.99
-27.56
-20.86
-12.7
-4.03
4.32
11.82
18.2
23.31
27.05
29.29
30.03
29.43
27.84
25.77
23.71
22.05
21.02
20.67
20.9
21.48
22.12
22.49
22.41
21.8
20.7
19.22
17.38
15.12
12.36
9.1
5.49
1.79
-1.69
-4.74
-7.38
-9.82
-12.47
-15.69
-19.65
-24.19
-28.94
-33.41
-37.27
-40.44
-43.11
-45.75
-48.86
-52.91
-58.22
-64.78
-72.16
-79.43
-85.32
-88.48
-87.99
-83.61
-75.91
-65.96
-55.01
-44.09
-33.92
-24.91
-17.22
-10.91
-5.92
-2.06
0.92
3.23
5.01
6.28
7.07
7.42
7.41
7.12
6.59
5.88
5.08
4.38
3.98
3.95
4.2
4.35
3.98
2.75
0.59
-2.33
-5.62
-8.88
-11.76
-14.03
-15.58
-16.42
-16.7
-16.7
-16.8
-17.31
-18.48
-20.34
-22.69
-25.2
-27.51
-29.41
-30.95
-32.48
-34.52
-37.48
-41.43
-45.9
-50.0
-52.61
-52.69
-49.64
-43.36
-34.29
-23.24
-11.24
0.71
11.72
21.22
28.93
34.84
39.13
42.07
44.0
45.29
46.3
47.32
48.5
49.86
51.27
52.68
54.07
55.49
56.97
58.45
59.72
60.52
60.61
59.9
58.42
56.31
53.77
51.02
48.25
45.59
43.06
40.59
38.1
35.51
32.83
30.03
27.11
24.01
20.59
16.72
12.34
7.4
1.9
-4.14
-10.57
-17.13
-23.27
-28.26
-31.32
-31.8
-29.43
-24.37
-17.24
-8.98
-0.56
7.24
14.0
19.61
24.18
27.79
30.36
31.72
31.8
30.75
29.03
27.14
25.49
24.2
23.13
22.09
21.0
19.92
18.94
18.11
17.32
16.33
14.95
13.02
10.48
7.39
3.9
0.27
-3.22
-6.41
-9.32
-12.22
-15.55
-19.62
-24.42
-29.61
-34.64
-38.99
-42.41
-45.01
-47.14
-49.28
-51.84
-55.13
-59.26
-64.17
-69.47
-74.46
-78.14
-79.46
-77.58
-72.28
-64.0
-53.77
-42.85
-32.3
-22.79
-14.54
-7.52
-1.77
2.61
5.45
6.76
6.8
6.11
5.27
4.7
4.53
4.64
4.78
4.76
4.46
3.89
3.14
2.4
1.9
1.82
2.18
2.77
3.28
3.38
2.96
2.21
1.43
0.89
0.54
0.11
-0.81
-2.42
-4.64
-7.14
-9.48
-11.43
-12.99
-14.39
-15.94
-17.92
-20.44
-23.53
-27.12
-31.07
-35.15
-38.93
-41.82
-43.15
-42.31
-38.9
-32.9
-24.66
-14.8
-4.09
6.73
17.02
26.26
34.15
40.53
45.47
49.18
51.91
53.82
55.05
55.71
56.01
56.27
56.83
57.91
59.51
61.38
63.19
64.61
65.39
65.31
64.24
62.15
59.17
55.66
52.12
48.94
46.27
43.89
41.35
38.23
34.29
29.55
24.25
18.72
13.27
8.18
3.65
-0.28
-3.81
-7.42
-11.66
-16.9
-22.97
-29.12
-34.16
-36.84
-36.35
-32.57
-26.1
-18.0
-9.41
-1.24
5.97
11.99
16.72
20.03
21.79
21.96
20.75
18.68
16.43
14.68
13.83
13.92
14.6
15.36
15.76
15.56
14.76
13.53
12.06
10.48
8.78
6.78
4.36
1.45
-1.77
-4.96
-7.78
-10.05
-11.89
-13.66
-15.73
-18.35
-21.47
-24.84
-28.13
-31.14
-33.88
-36.55
-39.47
-42.95
-47.25
-52.5
-58.62
-65.18
-71.41
-76.21
-78.46
-77.37
-72.72
-65.01
-55.24
-44.61
-34.21
-24.78
-16.68
-10.01
-4.69
-0.58
2.47
4.59
5.89
6.49
6.54
6.24
5.88
5.7
5.81
6.16
6.56
6.85
6.98
7.05
7.17
7.34
7.39
6.99
5.98
4.38
2.54
0.92
-0.11
-0.46
-0.36
-0.32
-0.84
-2.3
-4.73
-7.88
-11.27
-14.4
-16.9
-18.74
-20.14
-21.63
-23.8
-27.08
-31.57
-36.85
-42.08
-46.16
-48.02
-46.87
-42.4
-34.86
-24.94
-13.65
-2.08
8.86
18.54
26.76
33.6
39.35
44.25
48.41
51.81
54.38
56.12
57.18
57.81
58.2
58.48
58.64
58.61
58.26
57.52
56.35
54.77
52.9
50.93
49.04
47.38
45.92
44.49
42.81
40.62
37.77
34.26
30.24
25.85
21.21
16.35
11.25
5.85
0.06
-6.17
-12.87
-19.9
-26.93
-33.32
-38.19
-40.65
-40.05
-36.24
-29.65
-21.15
-11.85
-2.72
5.53
12.48
17.92
21.75
23.99
24.8
24.49
23.57
22.55
21.81
21.51
21.55
21.7
21.7
21.36
20.61
19.46
18.05
16.5
14.87
13.17
11.28
9.08
6.5
3.58
0.48
-2.61
-5.64
-8.65
-11.81
-15.22
-18.87
-22.6
-26.19
-29.48
-32.51
-35.47
-38.59
-42.19
-46.51
-51.67
-57.51
-63.49
-68.63
-71.73
-71.71
-68.1
-61.22
-52.12
-42.12
-32.37
-23.54
-15.8
-9.08
-3.33
1.37
4.87
7.11
8.27
8.64
8.59
8.37
8.14
7.96
7.91
8.03
8.34
8.76
9.18
9.48
9.59
9.52
9.31
8.89
8.13
6.86
5.02
2.73
0.28
-1.99
-3.87
-5.36
-6.65
-7.98
-9.52
-11.27
-13.14
-15.0
-16.82
-18.65
-20.63
-22.97
-25.88
-29.53
-34.02
-39.26
-44.88
-50.17
-54.13
-55.69
-54.05
-48.85
-40.47
-29.78
-17.97
-6.19
4.75
14.38
22.57
29.33
34.72
38.8
41.62
43.39
44.34
44.83
45.15
45.58
46.27
47.25
48.5
49.87
51.24
52.39
53.17
53.4
52.97
51.87
50.17
48.04
45.69
43.35
41.12
38.99
36.85
34.49
31.77
28.64
25.17
21.49
17.73
13.94
10.02
5.8
1.0
-4.54
-10.89
-17.81
-24.74
-30.84
-35.15
-36.84
-35.44
-31.03
-24.15
-15.74
-6.84
1.61
8.87
14.49
18.33
20.51
21.34
21.24
20.61
19.79
18.97
18.24
17.65
17.19
16.77
16.27
15.52
14.42
12.99
11.4
9.87
8.56
7.44
6.33
4.98
3.23
1.09
-1.31
-3.75
-6.11
-8.41
-10.76
-13.4
-16.54
-20.26
-24.47
-28.9
-33.19
-36.97
-40.06
-42.54
-44.78
-47.27
-50.44
-54.44
-59.01
-63.44
-66.77
-67.97
-66.27
-61.3
-53.26
-42.91
-31.31
-19.72
-9.14
-0.23
6.85
12.27
16.4
19.53
21.8
23.23
23.81
23.66
23.01
22.17
21.38
20.7
20.08
19.33
18.28
16.8
14.83
12.34
9.33
5.83
1.93
-2.19
-6.29
-10.14
-13.54
-16.41
-18.73
-20.55
-21.91
-22.98
-23.95
-25.08
-26.57
-28.48
-30.61
-32.63
-34.14
-34.88
-34.93
-34.64
-34.55
-35.2
-36.94
-39.85
-43.81
-48.42
-53.0
-56.65
-58.28
-56.99
-52.23
-44.18
-33.67
-21.96
-10.33
0.28
9.47
17.27
23.98
29.86
35.02
39.39
42.87
45.4
47.01
47.85
48.19
48.29
48.38
48.61
49.05
49.66
50.3
50.8
50.94
50.56
49.56
47.92
45.76
43.27
40.75
38.45
36.56
35.08
33.83
32.5
30.78
28.45
25.47
22.02
18.38
14.86
11.69
8.88
6.3
3.63
0.46
-3.54
-8.49
-14.15
-19.97
-25.06
-28.5
-29.55
-27.79
-23.28
-16.44
-8.06
0.97
9.78
17.69
24.3
29.49
33.32
35.87
37.24
37.44
36.61
35.07
33.34
31.95
31.23
31.14
31.3
31.26
30.7
29.57
28.02
26.22
24.14
21.63
18.51
14.77
10.68
6.62
2.95
-0.2
-3.02
-5.83
-8.96
-12.57
-16.58
-20.75
-24.79
-28.46
-31.64
-34.35
-36.71
-39.0
-41.57
-44.82
-49.09
-54.46
-60.64
-66.88
-72.11
-75.18
-75.24
-71.92
-65.43
-56.45
-45.94
-34.87
-24.07
-14.12
-5.42
1.85
7.61
11.87
14.75
16.43
17.19
17.36
17.25
17.08
16.97
16.92
16.89
16.84
16.76
16.59
16.21
15.45
14.15
12.25
9.77
6.81
3.45
-0.25
-4.23
-8.33
-12.33
-15.95
-19.07
-21.79
-24.47
-27.49
-31.11
-35.22
-39.46
-43.39
-46.73
-49.54
-52.17
-55.09
-58.69
-63.15
-68.36
-73.91
-79.13
-83.11
-84.82
-83.34
-78.15
-69.35
-57.73
-44.62
-31.43
-19.27
-8.77
-0.02
7.16
13.02
17.71
21.31
23.97
25.93
27.6
29.37
31.47
33.88
36.33
38.5
40.14
41.26
41.99
42.58
43.16
43.61
43.67
42.99
41.37
38.91
35.98
33.07
30.6
28.72
27.26
25.9
24.3
22.38
20.26
18.24
16.54
15.16
13.88
12.31
10.11
7.07
3.17
-1.38
-6.22
-10.75
-14.2
-15.72
-14.58
-10.4
-3.27
6.13
16.8
27.62
37.61
46.1
52.72
57.38
60.21
61.49
61.54
60.72
59.31
57.58
55.72
53.88
52.16
50.62
49.26
48.0
46.72
45.26
43.46
41.18
38.35
34.92
30.92
26.43
21.58
16.58
11.64
6.94
2.53
-1.73
-6.02
-10.58
-15.51
-20.69
-25.93
-31.04
-35.98
-40.9
-46.01
-51.5
-57.35
-63.33
-68.97
-73.6
-76.47
-76.83
-74.07
-68.03
-59.08
-48.05
-36.09
-24.25
-13.26
-3.52
4.8
11.6
16.71
19.99
21.45
21.4
20.4
19.14
18.19
17.92
18.36
19.31
20.45
21.46
22.11
22.34
22.21
21.79
21.12
20.14
18.71
16.74
14.21
11.27
8.16
5.11
2.26
-0.35
-2.8
-5.28
-8.02
-11.2
-14.84
-18.84
-22.94
-26.87
-30.51
-33.94
-37.51
-41.65
-46.78
-53.09
-60.42
-68.21
-75.53
-81.19
-83.97
-82.98
-77.92
-69.29
-58.23
-46.16
-34.41
-23.84
-14.79
-7.24
-1.05
3.91
7.66
10.22
11.71
12.33
12.44
12.43
12.68
13.45
14.83
16.75
18.98
21.26
23.34
25.13
26.59
27.78
28.71
29.36
29.67
29.56
29.04
28.16
27.0
25.69
24.37
23.12
21.98
20.82
19.38
17.34
14.47
10.77
6.55
2.25
-1.7
-5.16
-8.27
-11.41
-14.96
-19.12
-23.93
-29.38
-35.49
-42.21
-49.26
-55.92
-60.97
-63.02
-61.01
-54.68
-44.74
-32.65
-20.08
-8.39
1.72
10.13
17.09
22.86
27.6
31.27
33.86
35.43
36.16
36.33
36.29
36.33
36.63
37.32
38.36
39.68
41.14
42.67
44.18
45.59
46.73
47.37
47.23
46.18
44.31
41.94
39.5
37.32
35.51
33.95
32.44
30.75
28.79
26.5
23.85
20.74
17.08
12.84
8.13
3.1
-2.12
-7.52
-13.23
-19.35
-25.79
-32.1
-37.54
-41.26
-42.5
-40.87
-36.4
-29.48
-20.73
-10.87
-0.64
9.3
18.36
26.09
32.1
36.17
38.21
38.36
36.96
34.58
31.94
29.69
28.28
27.8
28.03
28.52
28.8
28.51
27.49
25.81
23.64
21.17
18.49
15.64
12.62
9.41
6.1
2.86
-0.16
-2.93
-5.53
-8.23
-11.23
-14.68
-18.53
-22.55
-26.4
-29.87
-32.86
-35.48
-38.05
-40.94
-44.47
-48.88
-54.22
-60.37
-66.99
-73.53
-79.17
-82.93
-83.83
-81.15
-74.72
-65.05
-53.21
-40.6
-28.48
-17.75
-8.8
-1.56
4.2
8.68
11.91
13.81
14.29
13.46
11.68
9.51
7.59
6.36
5.97
6.28
7.0
7.75
8.24
8.33
7.94
7.07
5.76
4.03
1.97
-0.32
-2.7
-4.98
-7.01
-8.7
-10.06
-11.2
-12.26
-13.35
-14.54
-15.86
-17.32
-18.97
-20.86
-22.96
-25.22
-27.49
-29.7
-31.9
-34.26
-37.09
-40.69
-45.23
-50.58
-56.28
-61.45
-64.97
-65.71
-62.87
-56.24
-46.29
-34.09
-20.92
-7.92
4.12
14.87
24.21
32.14
38.61
43.58
47.08
49.33
50.7
51.6
52.45
53.45
54.74
56.31
58.14
60.21
62.44
64.67
66.6
67.92
68.32
67.68
66.09
63.79
61.09
58.28
55.56
53.05
50.8
48.76
46.78
44.57
41.79
38.2
33.75
28.65
23.22
17.8
12.56
7.52
2.5
-2.72
-8.43
-14.86
-22.05
-29.74
-37.15
-43.19
-46.65
-46.68
-43.05
-36.25
-27.27
-17.22
-7.06
2.5
10.97
17.94
23.13
26.41
27.92
28.07
27.39
26.37
25.35
24.51
23.9
23.56
23.46
23.61
23.9
24.15
24.14
23.65
22.5
20.6
17.99
14.72
10.96
6.91
2.78
-1.2
-4.86
-8.12
-11.05
-13.88
-16.92
-20.45
-24.57
-29.11
-33.71
-37.98
-41.71
-45.0
-48.27
-52.08
-56.95
-63.1
-70.29
-77.75
-84.32
-88.63
-89.52
-86.33
-79.2
-68.92
-56.83
-44.27
-32.29
-21.48
-12.07
-4.11
2.33
7.1
10.15
11.6
11.91
11.66
11.46
11.68
12.43
13.58
14.9
16.19
17.34
18.34
19.17
19.78
20.06
19.85
19.0
17.41
15.13
12.32
9.31
6.49
4.2
2.63
1.67
0.99
0.09
-1.42
-3.73
-6.75
-10.16
-13.63
-16.94
-20.05
-23.11
-26.31
-29.91
-34.12
-39.09
-44.71
-50.46
-55.36
-58.13
-57.58
-53.0
-44.48
-32.89
-19.54
-5.81
7.16
18.69
28.46
36.44
42.79
47.76
51.61
54.59
56.89
58.67
60.06
61.21
62.3
63.45
64.69
65.89
66.86
67.36
67.24
66.44
64.99
62.95
60.35
57.26
53.79
50.04
46.21
42.44
38.79
35.17
31.41
27.34
22.86
18.01
12.9
7.58
2.03
-3.93
-10.53
-17.88
-25.83
-33.86
-41.06
-46.31
-48.58
-47.2
-42.19
-34.24
-24.52
-14.31
-4.65
3.84
10.96
16.66
20.94
23.69
24.91
24.72
23.53
21.92
20.41
19.37
18.87
18.84
19.11
19.51
19.94
20.31
20.46
20.18
19.27
17.59
15.09
11.85
8.08
4.11
0.28
-3.19
-6.16
-8.79
-11.39
-14.34
-17.91
-22.09
-26.59
-31.02
-35.05
-38.62
-42.0
-45.67
-50.15
-55.79
-62.55
-70.02
-77.4
-83.64
-87.6
-88.33
-85.32
-78.67
-69.15
-57.97
-46.51
-35.89
-26.75
-19.15
-12.9
-7.74
-3.58
-0.58
1.15
1.68
1.39
0.86
0.62
0.99
1.91
3.14
4.44
5.65
6.77
7.81
8.72
9.4
9.75
9.75
9.44
8.92
8.21
7.33
6.26
5.03
3.72
2.34
0.82
-0.99
-3.23
-5.9
-8.78
-11.55
-13.91
-15.78
-17.33
-18.88
-20.85
-23.55
-27.19
-31.8
-37.14
-42.66
-47.42
-50.24
-49.99
-45.97
-38.21
-27.48
-15.04
-2.25
9.83
20.57
29.76
37.41
43.6
48.46
52.16
54.95
57.2
59.26
61.4
63.68
66.03
68.23
70.09
71.49
72.41
72.85
72.8
72.25
71.12
69.4
67.15
64.41
61.31
57.92
54.32
50.58
46.75
42.79
38.64
34.16
29.3
24.08
18.67
13.32
8.19
3.29
-1.61
-6.88
-12.88
-19.84
-27.68
-35.9
-43.56
-49.46
-52.41
-51.58
-46.85
-38.84
-28.78
-18.09
-8.01
0.76
7.99
13.79
18.35
21.74
23.95
24.96
24.86
23.98
22.74
21.54
20.63
19.99
19.48
18.89
18.16
17.3
16.37
15.34
14.06
12.33
10.0
7.03
3.57
-0.16
-3.95
-7.59
-10.92
-13.8
-16.2
-18.22
-20.14
-22.35
-25.15
-28.63
-32.58
-36.62
-40.36
-43.57
-46.32
-48.9
-51.76
-55.35
-60.05
-66.04
-73.12
-80.67
-87.63
-92.66
-94.5
-92.34
-86.08
-76.4
-64.53
-51.86
-39.61
-28.58
-19.14
-11.32
-5.02
-0.14
3.4
5.67
6.84
7.22
7.21
7.23
7.61
8.46
9.67
11.03
12.29
13.3
14.04
14.55
14.88
15.05
15.02
14.71
14.1
13.13
11.84
10.23
8.41
6.51
4.72
3.24
2.18
1.5
0.95
0.15
-1.27
-3.48
-6.35
-9.5
-12.48
-14.98
-16.99
-18.79
-20.79
-23.38
-26.76
-30.87
-35.4
-39.8
-43.25
-44.81
-43.55
-38.82
-30.55
-19.26
-6.01
7.92
21.36
33.53
44.01
52.68
59.55
64.68
68.18
70.26
71.26
71.62
71.74
71.92
72.28
72.82
73.45
74.07
74.58
74.85
74.72
73.96
72.35
69.7
65.93
61.09
55.45
49.39
43.42
37.96
33.26
29.22
25.5
21.58
17.01
11.6
5.49
-0.99
-7.41
-13.55
-19.4
-25.24
-31.4
-38.12
-45.3
-52.44
-58.73
-63.17
-64.83
-63.1
-57.86
-49.56
-39.13
-27.76
-16.64
-6.7
1.51
7.77
12.12
14.67
15.59
15.12
13.65
11.69
9.8
8.47
7.92
8.07
8.66
9.36
9.96
10.4
10.66
10.69
10.33
9.32
7.43
4.58
0.94
-3.14
-7.23
-10.99
-14.31
-17.35
-20.47
-24.06
-28.36
-33.35
-38.72
-44.04
-48.96
-53.37
-57.44
-61.55
-66.08
-71.26
-77.11
-83.48
-90.07
-96.35
-101.54
-104.59
-104.46
-100.4
-92.36
-81.1
-67.99
-54.56
-41.98
-30.86
-21.24
-12.9
-5.61
0.61
5.66
9.43
12.07
13.95
15.55
17.28
19.31
21.59
23.96
26.23
28.34
30.29
32.07
33.54
34.49
34.63
33.8
32.0
29.45
26.53
23.66
21.16
19.14
17.51
15.93
14.04
11.56
8.48
5.05
1.74
-1.03
-3.04
-4.44
-5.67
-7.25
-9.6
-12.9
-16.96
-21.22
-24.88
-26.9
-26.32
-22.5
-15.32
-5.27
6.59
19.01
30.82
41.21
49.81
56.65
61.88
65.67
68.12
69.28
69.36
68.77
68.04
67.68
67.96
68.79
69.75
70.3
70.03
68.77
66.59
63.71
60.34
56.64
52.69
48.53
44.16
39.59
34.84
29.93
24.95
19.95
14.89
9.57
3.76
-2.72
-9.88
-17.59
-25.61
-33.71
-41.66
-49.02
-55.16
-59.17
-60.19
-57.78
-52.1
-43.96
-34.52
-24.89
-15.81
-7.6
-0.4
5.71
10.51
13.81
15.48
15.68
14.84
13.49
12.14
11.18
10.75
10.88
11.45
12.26
13.02
13.39
13.0
11.6
9.15
5.86
2.1
-1.73
-5.37
-8.78
-12.08
-15.48
-19.15
-23.14
-27.39
-31.78
-36.11
-40.26
-44.15
-47.86
-51.59
-55.69
-60.53
-66.3
-72.81
-79.4
-85.09
-88.71
-89.33
-86.47
-80.23
-71.22
-60.39
-48.79
-37.37
-26.81
-17.56
-9.77
-3.52
1.23
4.6
6.8
8.16
9.05
9.83
10.71
11.73
12.77
13.69
14.43
15.02
15.57
16.11
16.58
16.75
16.34
15.19
13.33
11.02
8.65
6.58
4.98
3.76
2.65
1.28
-0.55
-2.85
-5.39
-7.88
-10.05
-11.78
-13.14
-14.38
-15.89
-18.1
-21.4
-25.94
-31.48
-37.29
-42.25
-45.04
-44.54
-40.12
-31.9
-20.64
-7.63
5.75
18.28
29.15
38.03
45.03
50.43
54.55
57.57
59.59
60.67
60.96
60.73
60.34
60.13
60.26
60.74
61.41
62.08
62.59
62.86
62.88
62.61
61.94
60.71
58.75
55.94
52.33
48.07
43.43
38.66
34.01
29.56
25.26
20.97
16.52
11.78
6.66
1.17
-4.69
-10.93
-17.57
-24.48
-31.29
-37.3
-41.57
-43.14
-41.46
-36.53
-29.08
-20.24
-11.18
-2.75
4.63
10.9
16.12
20.22
23.07
24.6
24.93
24.38
23.34
22.14
20.95
19.77
18.6
17.46
16.41
15.48
14.58
13.53
12.14
10.27
7.93
5.25
2.44
-0.26
-2.71
-4.85
-6.78
-8.78
-11.15
-14.15
-17.83
-22.08
-26.61
-31.2
-35.67
-40.03
-44.35
-48.78
-53.52
-58.79
-64.78
-71.44
-78.35
-84.61
-88.97
-90.21
-87.56
-81.03
-71.43
-60.1
-48.46
-37.6
-28.05
-19.86
-12.86
-6.92
-2.12
1.34
3.36
4.11
4.04
3.77
3.84
4.45
5.54
6.85
8.17
9.38
10.48
11.43
12.14
12.48
12.35
11.77
10.83
9.6
8.1
6.34
4.39
2.46
0.73
-0.73
-2.04
-3.51
-5.37
-7.64
-10.06
-12.24
-13.91
-15.06
-16.0
-17.11
-18.78
-21.28
-24.73
-29.1
-34.2
-39.43
-43.83
-46.16
-45.28
-40.5
-31.9
-20.36
-7.25
5.96
18.11
28.57
37.21
44.22
49.9
54.51
58.22
61.07
63.12
64.48
65.27
65.7
65.94
66.12
66.25
66.31
66.19
65.82
65.17
64.24
63.02
61.41
59.22
56.21
52.33
47.72
42.79
37.95
33.48
29.34
25.29
21.01
16.33
11.3
6.08
0.75
-4.72
-10.58
-17.09
-24.4
-32.38
-40.59
-48.28
-54.46
-58.05
-58.19
-54.56
-47.47
-37.89
-27.1
-16.32
-6.4
2.33
9.76
15.85
20.43
23.22
24.13
23.35
21.47
19.25
17.43
16.42
16.26
16.66
17.24
17.71
17.95
18.03
18.04
17.88
17.31
15.94
13.51
10.0
5.79
1.46
-2.41
-5.51
-7.94
-10.12
-12.57
-15.74
-19.76
-24.45
-29.37
-34.06
-38.17
-41.63
-44.62
-47.57
-50.99
-55.28
-60.64
-66.9
-73.47
-79.3
-83.07
-83.46
-79.61
-71.47
-59.9
-46.41
-32.68
-20.05
-9.24
-0.43
6.48
11.63
15.11
17.06
17.82
17.87
17.79
17.96
18.48
19.2
19.85
20.18
20.06
19.5
18.61
17.54
16.46
15.48
14.62
13.72
12.56
10.86
8.51
5.56
2.34
-0.76
-3.43
-5.62
-7.56
-9.64
-12.2
-15.37
-18.92
-22.42
-25.44
-27.8
-29.62
-31.4
-33.7
-37.03
-41.67
-47.53
-54.15
-60.71
-66.09
-69.06
-68.59
-64.14
-55.87
-44.54
-31.29
-17.32
-3.58
9.22
20.68
30.45
38.32
44.2
48.23
50.71
52.13
53.0
53.78
54.85
56.44
58.61
61.24
63.94
66.24
67.64
67.87
66.96
65.21
63.01
60.59
57.96
54.98
51.49
47.49
43.15
38.71
34.33
30.01
25.67
21.22
16.68
12.18
7.78
3.41
-1.21
-6.46
-12.56
-19.3
-26.02
-31.65
-35.12
-35.56
-32.65
-26.68
-18.35
-8.65
1.47
11.15
19.78
26.95
32.44
36.16
38.09
38.36
37.18
34.96
32.19
29.47
27.29
25.92
25.3
25.14
25.06
24.75
24.05
22.94
21.4
19.3
16.52
13.0
8.87
4.48
0.21
-3.64
-7.02
-10.09
-13.18
-16.56
-20.38
-24.58
-28.99
-33.38
-37.64
-41.78
-45.98
-50.57
-55.9
-62.14
-69.12
-76.1
-81.91
-85.16
-84.68
-79.94
-71.26
-59.65
-46.54
-33.3
-20.95
-10.1
-1.0
6.25
11.64
15.22
17.16
17.8
17.57
16.89
16.13
15.48
15.01
14.67
14.36
13.95
13.38
12.56
11.45
9.97
8.08
5.79
3.19
0.51
-2.01
-4.17
-5.97
-7.58
-9.31
-11.47
-14.19
-17.41
-20.89
-24.3
-27.38
-30.0
-32.17
-34.06
-35.98
-38.33
-41.58
-46.01
-51.55
-57.6
-62.98
-66.25
-66.1
-61.83
-53.52
-42.05
-28.76
-15.09
-2.19
9.13
18.48
25.8
31.18
34.86
37.12
38.27
38.65
38.67
38.79
39.51
41.23
44.06
47.81
51.97
55.94
59.16
61.29
62.24
62.06
60.82
58.65
55.68
52.15
48.35
44.57
41.03
37.82
34.92
32.27
29.79
27.4
25.01
22.43
19.4
15.68
11.05
5.53
-0.68
-7.09
-12.92
-17.28
-19.2
-17.99
-13.42
-5.97
3.3
13.04
22.03
29.45
35.05
38.94
41.31
42.26
41.82
40.08
37.37
34.19
31.12
28.56
26.61
25.14
23.92
22.81
21.75
20.66
19.39
17.68
15.24
11.96
7.9
3.31
-1.46
-6.18
-10.68
-14.91
-18.86
-22.54
-25.97
-29.24
-32.42
-35.6
-38.81
-42.01
-45.26
-48.72
-52.74
-57.62
-63.37
-69.55
-75.11
-78.72
-79.15
-75.73
-68.54
-58.39
-46.53
-34.25
-22.56
-12.04
-2.96
4.65
10.78
15.38
18.43
19.95
20.12
19.33
18.04
16.75
15.8
15.3
15.13
15.04
14.8
14.22
13.24
11.86
10.05
7.76
4.94
1.65
-1.97
-5.66
-9.19
-12.43
-15.43
-18.33
-21.29
-24.4
-27.57
-30.66
-33.44
-35.8
-37.76
-39.44
-41.12
-43.16
