0
40.43
40.53
40.83
41.4
42.02
42.42
42.39
42.0
41.48
41.22
41.4
41.91
42.33
42.08
40.64
37.85
33.94
29.39
24.76
20.32
16.08
11.69
6.74
1.0
-5.47
-12.28
-18.88
-24.79
-29.76
-33.87
-37.46
-41.14
-45.56
-51.32
-58.67
-67.26
-75.99
-83.15
-86.8
-85.41
-78.37
-66.23
-50.64
-33.76
-17.66
-3.81
7.06
14.93
20.26
23.64
25.68
26.83
27.47
27.85
28.2
28.63
29.19
29.81
30.37
30.73
30.84
30.74
30.55
30.44
30.47
30.63
30.7
30.4
29.43
27.59
24.83
21.32
17.4
13.4
9.56
5.91
2.28
-1.57
-5.83
-10.51
-15.45
-20.38
-25.08
-29.45
-33.63
-37.95
-42.9
-48.94
-56.34
-64.87
-73.67
-81.22
-85.63
-85.25
-79.14
-67.55
-51.89
-34.27
-16.89
-1.5
10.92
20.18
26.49
30.36
32.29
32.74
32.11
30.81
29.18
27.55
26.16
25.17
24.67
24.61
24.9
25.36
25.85
26.25
26.52
26.61
26.45
25.95
24.97
23.45
21.38
18.85
15.91
12.62
8.93
4.82
0.33
-4.4
-9.12
-13.6
-17.79
-21.95
-26.53
-32.11
-39.06
-47.24
-55.86
-63.44
-68.16
-68.34
-63.03
-52.31
-37.38
-20.2
-2.96
12.45
24.87
33.96
39.97
43.54
45.32
45.88
45.61
44.84
43.84
42.86
42.15
41.8
41.79
41.96
42.16
42.27
42.32
42.31
42.21
41.84
40.91
39.18
36.48
32.94
28.79
24.39
20.02
15.73
11.4
6.73
1.56
-4.17
-10.19
-16.07
-21.45
-26.17
-30.45
-34.84
-40.02
-46.54
-54.58
-63.65
-72.61
-79.76
-83.26
-81.65
-74.32
-61.83
-45.71
-28.06
-10.94
4.08
16.15
25.03
30.95
34.41
35.98
36.32
36.03
35.63
35.38
35.37
35.56
35.77
35.86
35.64
35.09
34.33
33.67
33.43
33.86
34.93
36.23
37.16
37.05
35.56
32.69
28.89
24.71
20.7
17.07
13.73
10.33
6.45
1.76
-3.8
-10.02
-16.52
-22.82
-28.6
-33.7
-38.22
-42.49
-47.01
-52.3
-58.75
-66.46
-74.92
-82.94
-88.82
-90.67
-87.05
-77.53
-62.86
-44.96
-26.19
-8.85
5.48
16.12
23.15
27.12
28.76
28.79
27.87
26.61
25.55
25.06
25.24
25.9
26.73
27.36
27.58
27.45
27.16
27.03
27.25
27.85
28.69
29.42
29.68
29.11
27.55
24.94
21.45
17.47
13.4
9.69
6.6
4.17
2.14
0.06
-2.57
-6.08
-10.54
-15.69
-21.06
-26.2
-30.77
-34.71
-38.21
-41.75
-45.94
-51.45
-58.66
-67.32
-76.36
-83.93
-87.93
-86.67
-79.47
-66.95
-50.8
-33.23
-16.29
-1.44
10.57
19.59
25.88
29.85
31.95
32.7
32.54
31.94
31.26
30.78
30.6
30.71
30.96
31.19
31.41
31.77
32.49
33.67
35.18
36.53
37.12
36.45
34.4
31.24
27.53
23.86
20.5
17.47
14.43
11.03
7.02
2.44
-2.45
-7.28
-11.74
-15.73
-19.36
-22.98
-27.06
-32.11
-38.54
-46.44
-55.33
-63.97
-70.55
-73.09
-70.08
-61.1
-47.06
-29.9
-12.0
4.58
18.45
29.09
36.53
41.17
43.49
44.04
43.46
42.36
41.28
40.58
40.3
40.37
40.56
40.72
40.79
40.82
40.94
41.28
41.86
42.59
43.25
43.55
43.1
41.65
39.11
35.58
31.38
26.93
22.58
18.51
14.69
10.92
6.98
2.74
-1.84
-6.7
-11.74
-16.79
-21.68
-26.24
-30.36
-34.1
-37.79
-41.96
-47.24
-54.05
-62.25
-71.01
-78.71
-83.38
-83.19
-77.16
-65.49
-49.6
-31.65
-13.94
1.78
14.53
24.08
30.7
34.86
37.05
37.76
37.55
36.9
36.25
35.84
35.75
35.89
36.15
36.38
36.46
36.39
36.24
36.13
36.18
36.44
36.72
36.76
36.23
34.88
32.6
29.42
25.56
21.22
16.67
12.15
7.77
3.53
-0.68
-5.07
-9.83
-15.0
-20.46
-25.99
-31.35
-36.4
-41.11
-45.59
-50.05
-54.79
-60.29
-66.94
-74.8
-83.35
-91.32
-96.86
-98.08
-93.65
-83.37
-68.26
-50.25
-31.57
-14.19
0.6
12.21
20.58
25.93
28.64
29.22
28.35
26.84
25.48
24.82
25.04
25.91
26.97
27.79
28.19
28.31
28.46
28.93
29.86
31.07
32.2
32.81
32.47
31.0
28.39
24.93
21.04
17.11
13.36
9.74
6.01
1.84
-2.94
-8.28
-13.9
-19.4
-24.49
-29.1
-33.36
-37.63
-42.36
-47.96
-54.57
-61.89
-69.02
-74.58
-76.97
-74.84
-67.6
-55.63
-40.21
-23.21
-6.56
8.22
20.25
29.3
35.6
39.57
41.69
42.29
41.75
40.42
38.77
37.18
35.98
35.25
34.87
34.65
34.45
34.34
34.53
35.23
36.47
37.97
39.21
39.62
38.78
36.61
33.42
29.7
26.02
22.7
19.72
16.77
13.41
9.26
4.21
-1.54
-7.57
-13.38
-18.65
-23.33
-27.69
-32.23
-37.53
-44.06
-51.86
-60.37
-68.34
-74.08
-75.88
-72.57
-63.91
-50.76
-34.77
-17.92
-1.99
11.77
22.85
31.24
37.25
41.28
43.63
44.56
44.38
43.45
42.24
41.22
40.67
40.55
40.63
40.55
40.13
39.44
38.76
38.43
38.61
39.21
39.86
40.13
39.61
38.04
35.34
31.62
27.18
22.31
17.37
12.49
7.69
2.78
-2.44
-8.03
-13.78
-19.38
-24.46
-28.87
-32.77
-36.58
-40.9
-46.32
-53.26
-61.79
-71.4
-81.05
-89.09
-93.66
-93.14
-86.75
-74.77
-58.69
-40.64
-22.77
-6.82
6.29
16.25
23.24
27.65
29.96
30.7
30.42
29.68
28.91
28.36
28.08
28.03
28.1
28.25
28.4
28.52
28.62
28.75
29.01
29.5
30.14
30.63
30.52
29.29
26.64
22.62
17.67
12.46
7.65
3.67
0.5
-2.19
-4.96
-8.3
-12.4
-17.12
-22.03
-26.7
-30.88
-34.62
-38.22
-42.14
-46.75
-52.36
-59.12
-66.82
-74.82
-81.93
-86.53
-87.01
-82.29
-72.29
-58.05
-41.42
-24.44
-8.83
4.33
14.63
22.14
27.09
29.81
30.66
30.05
28.52
26.68
25.07
24.09
23.91
24.41
25.27
26.18
26.89
27.41
27.87
28.38
28.92
29.26
29.07
28.14
26.39
23.94
20.99
17.67
13.99
9.95
5.54
0.84
-4.02
-8.82
-13.46
-17.92
-22.37
-27.14
-32.68
-39.32
-46.99
-54.99
-61.88
-65.89
-65.4
-59.56
-48.59
-33.8
-17.18
-0.76
13.77
25.43
33.96
39.62
42.97
44.64
45.18
44.99
44.42
43.67
42.95
42.36
41.95
41.71
41.61
41.62
41.78
42.09
42.51
42.87
42.95
42.45
41.18
39.03
36.04
32.36
28.15
23.55
18.64
13.42
7.82
1.85
-4.43
-10.81
-17.03
-22.89
-28.41
-33.87
-39.78
-46.74
-55.01
-64.34
-73.75
-81.61
-86.02
-85.36
-78.84
-66.84
-50.81
-32.86
-15.15
0.61
13.52
23.34
30.31
34.86
37.43
38.51
38.58
38.14
37.6
37.2
36.95
36.68
36.2
35.38
34.36
33.42
32.86
32.9
33.54
34.47
35.16
35.14
34.03
31.77
28.57
24.87
21.13
17.61
14.34
11.04
7.34
2.83
-2.67
-9.05
-15.96
-22.86
-29.25
-34.84
-39.77
-44.43
-49.53
-55.68
-63.32
-72.26
-81.59
-89.71
-94.61
-94.49
-88.43
-76.82
-61.2
-43.87
-27.04
-12.26
-0.18
9.24
16.36
21.49
24.83
26.58
27.04
26.63
25.79
24.81
23.8
22.78
21.74
20.74
19.93
19.51
19.53
19.96
20.6
21.2
21.44
21.13
20.19
18.61
16.47
13.83
10.71
7.14
3.12
-1.28
-5.91
-10.59
-15.14
-19.45
-23.47
-27.27
-31.12
-35.42
-40.65
-47.12
-54.65
-62.3
-68.54
-71.54
-69.82
-62.81
-51.12
-36.33
-20.46
-5.32
7.89
18.68
27.04
33.21
37.42
39.89
40.85
40.67
39.79
38.68
37.7
37.02
36.67
36.55
36.58
36.65
36.69
36.63
36.45
36.15
35.8
35.41
34.85
33.87
32.09
29.21
25.12
20.01
14.39
8.82
3.75
-0.7
-4.71
-8.72
-13.22
-18.66
-25.4
-33.53
-42.68
-51.9
-59.64
-64.08
-63.68
-57.76
-46.8
-32.35
-16.53
-1.35
11.85
22.55
30.85
37.14
41.74
44.8
46.45
46.87
46.45
45.67
44.87
44.17
43.42
42.38
40.94
39.27
37.77
36.88
36.75
37.24
37.89
38.19
37.7
36.25
33.88
30.79
27.24
23.46
19.51
15.35
10.77
5.53
-0.5
-7.27
-14.42
-21.48
-28.0
-33.77
-38.89
-43.79
-49.05
-55.21
-62.5
-70.63
-78.61
-84.89
-87.67
-85.53
-77.9
-65.34
-49.42
-32.21
-15.67
-1.2
10.51
19.38
25.7
29.88
32.4
33.75
34.45
34.98
35.65
36.56
37.58
38.43
38.8
38.49
37.51
36.04
34.41
32.91
31.7
30.75
29.86
28.76
27.18
24.95
21.99
18.36
14.26
10.03
5.97
2.26
-1.24
-4.86
-9.01
-13.95
-19.6
-25.51
-31.15
-36.2
-40.67
-44.97
-49.69
-55.39
-62.34
-70.37
-78.77
-86.25
-91.23
-92.11
-87.84
-78.29
-64.38
-47.84
-30.77
-15.02
-1.83
8.3
15.48
20.21
23.11
24.72
25.44
25.59
25.36
24.94
24.5
24.15
23.93
23.78
23.58
23.27
22.83
22.32
21.86
21.5
21.17
20.74
19.99
18.76
16.96
14.59
11.73
8.43
4.73
0.62
-3.91
-8.8
-13.9
-18.98
-23.84
-28.47
-33.09
-38.11
-43.91
-50.5
-57.25
-62.89
-65.82
-64.58
-58.47
-47.83
-33.97
-18.77
-4.02
9.04
19.9
28.62
35.5
40.76
44.44
46.52
47.1
46.52
45.4
44.32
43.74
43.8
44.36
45.1
45.68
45.88
45.64
45.02
44.12
42.95
41.4
39.32
36.54
32.97
28.66
23.71
18.27
12.51
6.64
0.85
-4.69
-9.9
-14.93
-20.09
-25.83
-32.52
-40.31
-48.97
-57.68
-65.15
-69.77
-70.1
-65.29
-55.51
-41.92
-26.4
-10.91
3.03
14.61
23.62
30.25
34.82
37.64
39.06
39.52
39.41
39.03
38.51
37.89
37.16
36.39
35.72
35.32
35.27
35.53
35.94
36.3
36.42
36.11
35.23
33.67
31.41
28.56
25.27
21.7
17.94
14.0
9.74
5.06
-0.12
-5.72
-11.57
-17.42
-22.96
-28.01
-32.58
-36.99
-41.84
-47.85
-55.49
-64.57
-74.07
-82.19
-86.82
-86.26
-79.77
-67.91
-52.34
-35.25
-18.7
-4.2
7.56
16.48
22.85
27.06
29.54
30.7
30.96
30.77
30.5
30.41
30.54
30.73
30.75
30.34
29.44
28.18
26.89
25.91
25.42
25.36
25.35
24.92
23.64
21.35
18.18
14.49
10.69
7.04
3.59
0.19
-3.42
-7.43
-11.91
-16.74
-21.68
-26.48
-30.87
-34.77
-38.26
-41.68
-45.56
-50.55
-57.12
-65.27
-74.28
-82.66
-88.5
-90.02
-86.18
-77.06
-63.79
-48.2
-32.25
-17.5
-4.92
5.15
12.82
18.47
22.55
25.47
27.46
28.66
29.15
29.05
28.6
28.07
27.69
27.52
27.49
27.44
27.27
26.96
26.61
26.26
25.92
25.47
24.72
23.51
21.7
19.24
16.14
12.56
8.62
4.52
0.44
-3.55
-7.36
-11.01
-14.64
-18.61
-23.44
-29.68
-37.49
-46.32
-54.77
-60.82
-62.57
-58.81
-49.62
-36.3
-20.87
-5.44
8.46
20.05
29.24
36.22
41.28
44.62
46.43
47.02
46.79
46.17
45.41
44.61
43.7
42.63
41.46
40.38
39.56
39.03
38.62
38.05
37.1
35.7
33.98
32.06
29.95
27.47
24.35
20.43
15.78
10.66
5.4
0.3
-4.59
-9.34
-14.16
-19.29
-24.99
-31.57
-39.26
-48.03
-57.35
-66.04
-72.45
-74.87
-72.08
-63.88
-51.19
-35.74
-19.55
-4.34
8.81
19.45
27.55
33.25
36.83
38.6
38.98
38.47
37.48
36.28
35.0
33.67
32.33
31.04
29.87
28.88
28.08
27.45
27.0
26.65
26.29
25.65
24.46
22.48
19.68
16.24
12.46
8.6
4.72
0.7
-3.66
-8.53
-13.94
-19.73
-25.62
-31.34
-36.83
-42.27
-48.15
-55.07
-63.3
-72.53
-81.58
-88.58
-91.58
-89.17
-81.06
-68.21
-52.51
-36.17
-21.06
-8.33
1.56
8.74
13.65
16.78
18.55
19.34
19.48
19.28
19.0
18.84
18.82
18.87
18.89
18.85
18.82
18.98
19.47
20.31
21.32
22.1
22.28
21.6
20.06
17.81
15.09
12.03
8.7
5.05
1.04
-3.26
-7.68
-12.0
-16.03
-19.76
-23.34
-27.13
-31.54
-36.97
-43.71
-51.7
-60.42
-68.71
-74.92
-77.27
-74.42
-66.0
-52.84
-36.79
-20.06
-4.56
8.56
19.0
27.05
33.17
37.75
40.98
42.95
43.81
43.84
43.41
42.87
42.5
42.35
42.31
42.19
41.8
41.02
39.93
38.69
37.5
36.51
35.67
34.79
33.51
31.47
28.41
24.32
19.49
14.39
9.48
5.04
1.09
-2.58
-6.32
-10.52
-15.56
-21.81
-29.43
-38.25
-47.53
-55.87
-61.49
-62.74
-58.64
-49.36
-36.11
-20.84
-5.55
8.19
19.52
28.28
34.76
39.46
42.85
45.29
47.04
48.32
49.26
49.95
50.44
50.67
50.56
50.05
49.11
47.86
46.5
45.26
44.33
43.73
43.29
42.68
41.57
39.69
36.93
33.4
29.33
25.01
20.73
16.7
12.99
9.52
6.04
2.16
-2.48
-8.05
-14.33
-20.83
-26.94
-32.27
-36.8
-40.91
-45.19
-50.27
-56.52
-64.08
-72.63
-81.3
-88.74
-93.16
-92.89
-86.94
-75.43
-59.74
-42.01
-24.49
-8.97
3.59
13.06
19.8
24.36
27.32
29.1
30.04
30.43
30.54
30.61
30.8
31.22
31.81
32.46
33.0
33.35
33.5
33.52
33.45
33.21
32.6
31.41
29.59
27.23
24.59
21.86
19.09
16.18
12.94
9.23
5.11
0.83
-3.4
-7.42
-11.29
-15.23
-19.49
-24.1
-29.0
-33.94
-38.67
-43.08
-47.22
-51.31
-55.59
-60.32
-65.68
-71.79
-78.51
-85.33
-91.15
-94.45
-93.72
-87.98
-77.25
-62.68
-46.11
-29.49
-14.31
-1.39
9.09
17.26
23.33
27.44
29.8
30.74
30.73
30.35
30.09
30.26
30.9
31.89
32.95
33.89
34.57
35.1
35.67
36.49
37.58
38.73
39.52
39.45
38.26
35.95
32.89
29.6
26.54
23.89
21.51
18.95
15.76
11.7
6.78
1.36
-4.07
-9.14
-13.64
-17.58
-21.2
-24.84
-28.89
-33.78
-39.77
-46.73
-54.02
-60.29
-63.87
-63.19
-57.41
-46.74
-32.49
-16.57
-0.91
13.05
24.63
33.74
40.62
45.55
48.75
50.37
50.67
50.02
48.87
47.67
46.76
46.28
46.19
46.3
46.31
46.03
45.37
44.47
43.55
42.85
42.42
42.0
41.16
39.47
36.7
33.0
28.78
24.58
20.71
17.22
13.9
10.47
6.69
2.53
-1.96
-6.65
-11.36
-16.02
-20.56
-24.97
-29.32
-33.79
-38.73
-44.49
-51.37
-59.31
-67.7
-75.31
-80.49
-81.64
-77.73
-68.76
-55.72
-40.37
-24.65
-10.21
1.93
11.37
18.2
22.73
25.38
26.67
27.06
27.07
27.12
27.5
28.3
29.38
30.48
31.34
31.82
32.0
32.09
32.33
32.82
33.49
34.16
34.61
34.66
34.14
32.92
30.88
28.02
24.46
20.43
16.22
12.07
8.13
4.37
0.71
-2.99
-6.91
-11.26
-16.14
-21.56
-27.27
-32.9
-38.06
-42.52
-46.34
-49.87
-53.68
-58.37
-64.39
-71.83
-80.18
-88.26
-94.37
-96.7
-93.89
-85.6
-72.58
-56.56
-39.62
-23.62
-9.81
1.19
9.29
14.67
17.72
18.96
19.01
18.53
18.07
17.9
18.05
18.31
18.42
18.21
17.74
17.23
16.99
17.24
17.98
18.96
19.8
20.09
19.6
18.3
16.4
14.17
11.83
9.39
6.72
3.53
-0.4
-5.14
-10.52
-16.2
-21.79
-26.96
-31.59
-35.73
-39.65
-43.78
-48.57
-54.26
-60.61
-66.7
-71.04
-71.87
-67.93
-58.84
-45.46
-29.51
-13.09
2.01
14.69
24.58
31.82
36.75
39.71
40.99
40.87
39.67
37.8
35.68
33.74
32.3
31.52
31.43
31.86
32.56
33.33
34.09
34.86
35.71
36.61
37.28
37.28
36.08
33.35
29.04
23.46
17.18
10.84
4.98
-0.12
-4.48
-8.38
-12.28
-16.72
-22.2
-29.02
-37.07
-45.68
-53.65
-59.36
-61.27
-58.35
-50.5
-38.61
-24.29
-9.45
4.28
15.82
24.78
31.28
35.72
38.57
40.23
41.02
41.21
41.03
40.7
40.37
40.03
39.64
39.11
38.47
37.9
37.67
37.95
38.69
39.57
40.04
39.62
37.98
35.13
31.36
27.03
22.51
17.96
13.37
8.56
3.32
-2.46
-8.68
-15.07
-21.23
-26.8
-31.64
-35.88
-39.95
-44.44
-49.89
-56.45
-63.61
-70.15
-74.35
-74.55
-69.77
-60.13
-46.89
-32.01
-17.51
-4.88
5.17
12.63
17.85
21.35
23.6
24.98
25.8
26.21
26.21
25.77
24.85
23.51
21.91
20.25
18.63
17.08
15.58
14.04
12.43
10.67
8.69
6.34
3.56
0.37
-3.11
-6.71
-10.33
-13.9
-17.51
-21.17
-24.91
-28.65
-32.3
-35.76
-39.11
-42.56
-46.47
-51.28
-57.29
-64.52
-72.38
-79.71
-84.9
-86.31
-82.82
-74.21
-61.31
-45.72
-29.38
-14.03
-0.8
9.79
17.73
23.27
26.7
28.38
28.7
28.21
27.43
26.81
26.53
26.53
26.57
26.41
25.95
25.35
24.92
25.01
25.79
27.21
28.83
30.06
30.2
28.75
25.54
20.86
15.28
9.49
4.07
-0.75
-5.03
-9.1
-13.43
-18.56
-24.92
-32.63
-41.29
-49.79
-56.51
-59.64
-57.81
-50.6
-38.76
-23.9
-8.04
7.08
20.35
31.31
39.97
46.49
51.01
53.68
54.66
54.28
52.97
51.21
49.42
47.92
46.8
46.01
45.34
44.53
43.35
41.74
39.89
38.07
36.5
35.09
33.42
30.8
26.66
20.83
13.72
6.06
-1.29
-7.76
-13.25
-18.07
-22.75
-27.9
-33.95
-41.24
-49.79
-59.19
-68.49
-76.18
-80.51
-79.95
-73.77
-62.31
-47.02
-29.95
-13.2
1.68
13.88
23.29
30.21
35.13
38.51
40.78
42.37
43.61
44.72
45.68
46.3
46.33
45.56
44.02
42.01
39.97
38.34
37.36
36.98
36.84
36.41
35.23
33.01
29.8
25.94
21.83
17.78
13.77
9.56
4.81
-0.69
-6.77
-13.1
-19.18
-24.69
-29.61
-34.24
-39.1
-44.76
-51.7
-60.06
-69.51
-79.08
-87.19
-91.99
-91.9
-86.08
-74.85
-59.58
-42.3
-25.12
-9.76
2.78
12.19
18.68
22.79
25.18
26.54
27.41
28.15
28.88
29.54
29.97
30.07
29.82
29.29
28.65
28.02
27.55
27.28
27.17
27.02
26.63
25.73
24.23
22.14
19.65
16.87
13.86
10.5
6.58
2.01
-3.17
-8.69
-14.2
-19.34
-23.94
-28.05
-31.96
-36.16
-41.21
-47.63
-55.56
-64.52
-73.3
-80.19
-83.26
-81.14
-73.41
-60.81
-45.03
-28.13
-11.98
2.15
13.7
22.62
29.13
33.55
36.26
37.65
38.15
38.16
37.97
37.71
37.48
37.33
37.32
37.43
37.57
37.54
37.18
36.46
35.53
34.59
33.76
32.9
31.69
29.71
26.68
22.63
17.82
12.66
7.53
2.7
-1.81
-6.11
-10.46
-15.28
-21.05
-28.16
-36.58
-45.7
-54.18
-60.3
-62.41
-59.49
-51.57
-39.67
-25.4
-10.44
3.86
16.72
27.72
36.65
43.46
48.17
50.95
52.2
52.41
52.08
51.56
51.01
50.48
49.96
49.43
48.86
48.28
47.7
47.18
46.82
46.59
46.29
45.57
43.99
41.23
37.29
32.55
27.55
22.84
18.65
14.81
10.85
6.3
0.93
-5.16
-11.53
-17.66
-23.15
-27.94
-32.26
-36.67
-41.79
-48.19
-56.16
-65.41
-74.97
-83.26
-88.36
-88.6
-83.13
-72.19
-57.15
-40.06
-23.07
-7.89
4.49
13.82
20.35
24.65
27.36
29.09
30.27
31.19
31.94
32.52
32.91
33.1
33.08
32.9
32.58
32.12
31.55
30.93
30.31
29.68
28.93
27.88
26.33
24.13
21.24
17.73
13.81
9.77
5.93
2.47
-0.55
-3.32
-6.22
-9.64
-13.83
-18.83
-24.4
-30.12
-35.58
-40.52
-44.92
-48.99
-53.11
-57.75
-63.41
-70.34
-78.41
-86.86
-94.28
-98.85
-98.87
-93.28
-82.12
-66.56
-48.62
-30.51
-14.1
-0.53
9.88
17.39
22.56
25.89
27.79
28.55
28.4
27.68
26.71
25.87
25.4
25.37
25.76
26.51
27.57
28.88
30.41
32.04
33.53
34.58
34.92
34.36
32.84
30.5
27.51
24.05
20.19
15.95
11.31
6.38
1.42
-3.25
-7.34
-10.81
-13.93
-17.19
-21.2
-26.4
-32.93
-40.48
-48.2
-54.75
-58.6
-58.33
-53.11
-43.07
-29.28
-13.53
2.31
16.65
28.57
37.79
44.51
49.02
51.7
52.87
52.86
51.99
50.59
48.96
47.36
45.89
44.62
43.56
42.73
42.18
42.0
42.21
42.64
42.93
42.64
41.42
39.11
35.9
32.13
28.17
24.18
20.09
15.7
10.79
5.27
-0.76
-6.98
-13.04
-18.6
-23.52
-27.91
-32.11
-36.65
-42.07
-48.78
-56.81
-65.65
-74.16
-80.7
-83.53
-81.35
-73.74
-61.42
-46.0
-29.47
-13.7
0.1
11.41
20.21
26.73
31.22
33.95
35.23
35.42
34.98
34.38
33.91
33.72
33.72
33.73
33.57
33.21
32.79
32.66
33.1
34.18
35.62
36.77
36.86
35.31
32.03
27.39
22.14
17.01
12.5
8.65
5.1
1.36
-3.02
-8.19
-14.04
-20.22
-26.3
-31.93
-36.98
-41.55
-46.11
-51.23
-57.53
-65.36
-74.41
-83.59
-91.13
-95.01
-93.62
-86.39
-73.97
-58.12
-41.1
-24.91
-10.88
0.46
9.18
15.59
19.98
22.56
23.54
23.23
22.06
20.47
18.85
17.46
16.39
15.59
14.97
14.48
14.12
13.91
13.81
13.72
13.5
12.99
12.14
10.97
9.58
7.94
5.91
3.27
-0.14
-4.34
-9.1
-14.05
-18.85
-23.3
-27.42
-31.36
-35.37
-39.79
-44.97
-51.17
-58.3
-65.71
-72.11
-75.85
-75.4
-69.95
-59.71
-45.87
-30.19
-14.43
-0.0
12.27
22.01
29.16
33.86
36.36
37.1
36.56
35.29
33.77
32.33
31.16
30.25
29.55
28.94
28.33
27.71
27.17
26.83
26.75
26.91
27.05
26.81
25.74
23.51
20.01
15.49
10.41
5.36
0.77
-3.19
-6.71
-10.27
-14.49
-19.93
-26.85
-35.0
-43.47
-50.76
-55.13
-55.07
-49.79
-39.58
-25.69
-9.97
5.66
19.69
31.26
40.03
46.16
49.93
51.74
52.0
51.15
49.61
47.77
46.0
44.49
43.32
42.38
41.46
40.31
38.83
37.04
35.14
33.4
31.99
30.84
29.59
27.73
24.79
20.47
14.81
8.15
1.02
-6.05
-12.66
-18.58
-23.89
-28.88
-34.11
-40.21
-47.71
-56.66
-66.49
-75.81
-82.75
-85.41
-82.48
-73.72
-60.03
-43.24
-25.56
-9.0
5.15
16.35
24.76
30.86
35.09
37.77
39.06
39.13
38.3
37.04
35.84
35.02
34.6
34.3
33.78
32.79
31.32
29.62
27.94
26.42
24.97
23.31
21.13
18.15
14.23
9.27
3.35
-3.33
-10.41
-17.41
-23.81
-29.33
-34.01
-38.32
-42.91
-48.54
-55.63
-64.14
-73.34
-81.83
-87.9
-89.86
-86.65
-78.18
-65.4
-50.08
-34.16
-19.31
-6.54
3.75
11.55
16.98
20.21
21.47
21.17
19.95
18.5
17.44
17.06
17.37
18.04
18.7
18.99
18.76
18.11
17.31
16.8
16.93
17.77
18.99
19.93
19.78
17.87
14.03
8.6
2.31
-3.97
-9.65
-14.54
-18.9
-23.25
-28.22
-34.33
-41.79
-50.34
-59.06
-66.46
-70.79
-70.52
-64.94
-54.43
-40.33
-24.54
-8.9
5.28
17.31
27.0
34.41
39.63
42.8
44.16
44.15
43.33
42.32
41.57
41.26
41.28
41.31
40.98
40.16
38.91
37.51
36.35
35.65
35.38
35.16
34.42
32.64
29.52
25.1
19.76
14.07
8.59
3.68
-0.62
-4.58
-8.73
-13.67
-19.92
-27.7
-36.64
-45.68
-53.14
-57.12
-56.08
-49.41
-37.75
-22.78
-6.64
8.69
21.93
32.58
40.76
46.78
50.97
53.58
54.83
55.01
54.44
53.4
52.19
50.97
49.84
48.86
48.08
47.5
47.06
46.62
45.99
44.92
43.22
40.75
37.57
33.84
29.84
25.73
21.5
17.01
12.01
6.41
0.33
-5.94
-12.04
-17.79
-23.23
-28.61
-34.3
-40.67
-47.96
-56.21
-65.09
-73.78
-81.0
-85.1
-84.61
-78.7
-67.55
-52.39
-35.18
-18.04
-2.71
9.79
19.14
25.6
29.7
32.04
33.22
33.69
33.75
33.57
33.16
32.45
31.35
29.82
27.95
25.92
24.01
22.53
21.7
21.62
22.18
23.04
23.67
23.57
22.35
19.96
16.64
12.76
8.67
4.47
0.01
-5.0
-10.73
-17.11
-23.8
-30.32
-36.35
-41.75
-46.62
-51.28
-56.17
-61.74
-68.25
-75.58
-82.99
-89.17
-92.39
-91.17
-84.71
-73.34
-58.43
-41.93
-25.78
-11.35
0.67
10.29
17.84
23.65
27.97
30.89
32.46
32.83
32.31
31.34
30.4
29.8
29.62
29.75
29.99
30.15
30.18
30.12
30.07
30.04
29.89
29.38
28.25
26.28
23.45
19.83
15.67
11.19
6.65
2.26
-1.79
-5.44
-8.73
-11.91
-15.36
-19.57
-24.91
-31.46
-38.79
-45.87
-51.26
-53.41
-51.16
-44.11
-32.82
-18.61
-3.25
11.55
24.51
34.94
42.72
48.1
51.5
53.33
53.98
53.71
52.79
51.48
49.97
48.41
46.86
45.3
43.76
42.35
41.32
40.89
41.09
41.67
42.06
41.6
39.8
36.62
32.39
27.7
23.02
18.5
13.92
8.92
3.27
-3.0
-9.54
-15.9
-21.72
-26.93
-31.76
-36.7
-42.28
-48.9
-56.62
-64.97
-72.88
-78.8
-81.12
-78.65
-71.01
-58.86
-43.71
-27.42
-11.76
2.02
13.27
21.87
28.05
32.24
34.86
36.35
37.01
37.16
36.98
36.62
36.16
35.59
34.87
33.92
32.8
31.65
30.73
30.28
30.4
30.95
31.55
31.71
30.96
29.13
26.32
22.92
19.38
16.04
12.94
9.87
6.38
2.14
-2.98
-8.78
-14.89
-20.87
-26.46
-31.62
-36.5
-41.38
-46.6
-52.56
-59.63
-67.95
-77.14
-86.15
-93.3
-96.73
-95.02
-87.75
-75.72
-60.68
-44.72
-29.59
-16.41
-5.59
2.88
9.19
13.47
15.91
16.81
16.69
16.12
15.64
15.53
15.84
16.33
16.74
16.91
16.88
16.92
17.31
18.25
19.65
21.16
22.22
22.39
21.43
19.47
16.86
14.04
11.31
8.7
6.01
2.88
-0.91
-5.44
-10.54
-15.84
-20.97
-25.64
-29.8
-33.62
-37.53
-42.01
-47.49
-54.01
-61.12
-67.74
-72.42
-73.67
-70.38
-62.19
-49.71
-34.25
-17.66
-1.74
12.13
23.19
31.27
36.72
40.05
41.76
42.18
41.51
39.96
37.84
35.62
33.82
32.78
32.59
33.08
33.91
34.73
35.34
35.68
35.76
35.56
35.04
34.08
32.56
30.45
27.73
24.44
20.59
16.24
11.46
6.37
1.12
-4.18
-9.41
-14.57
-19.78
-25.26
-31.33
-38.14
-45.51
-52.68
-58.3
-60.74
-58.69
-51.6
-40.04
-25.53
-9.95
4.92
17.95
28.62
36.82
42.64
46.26
47.9
47.99
47.06
45.69
44.34
43.2
42.19
41.14
39.91
38.47
36.96
35.62
34.68
34.26
34.28
34.42
34.17
33.07
30.87
27.64
23.74
19.64
15.64
11.76
7.77
3.34
-1.73
-7.44
-13.49
-19.53
-25.2
-30.29
-34.83
-39.01
-43.21
-47.98
-53.83
-60.99
-69.16
-77.23
-83.48
-85.99
-83.3
-74.96
-61.8
-45.61
-28.57
-12.59
1.14
12.18
20.64
26.81
30.97
33.42
34.51
34.67
34.35
33.89
33.43
32.87
32.0
30.63
28.72
26.48
24.3
22.67
21.87
21.89
22.38
22.72
22.31
20.72
17.92
14.23
10.15
6.17
2.55
-0.72
-3.87
-7.24
-11.11
-15.59
-20.55
-25.73
-30.8
-35.47
-39.66
-43.49
-47.33
-51.68
-57.05
-63.79
-71.81
-80.38
-88.15
-93.39
-94.44
-90.29
-80.89
-67.26
-51.15
-34.44
-18.76
-5.19
5.8
14.16
20.09
23.93
26.08
27.0
27.1
26.77
26.28
25.85
25.59
25.59
25.81
26.08
26.22
26.06
25.56
24.84
24.07
23.38
22.71
21.91
20.67
18.74
16.01
12.49
8.35
3.89
-0.65
-4.97
-8.97
-12.6
-16.0
-19.39
-23.07
-27.45
-32.84
-39.31
-46.36
-52.88
-57.25
-57.88
-53.69
-44.57
-31.45
-15.99
-0.05
14.77
27.44
37.47
44.78
49.56
52.15
53.01
52.66
51.57
50.13
48.64
47.27
46.16
45.4
44.99
44.9
44.98
45.06
44.95
44.45
43.43
41.84
39.66
36.92
33.67
29.88
25.55
20.58
14.98
8.85
2.38
-4.13
-10.41
-16.29
-21.76
-26.94
-32.11
-37.67
-44.03
-51.43
-59.67
-67.89
-74.63
-78.15
-76.94
-70.34
-58.75
-43.62
-26.92
-10.66
3.72
15.41
24.21
30.26
33.93
35.64
35.97
35.5
34.83
34.43
34.54
35.15
36.02
36.9
37.52
37.75
37.6
37.22
36.8
36.46
36.22
35.84
34.98
33.26
30.47
26.73
22.38
17.93
13.74
9.89
6.21
2.34
-1.95
-6.74
-11.89
-17.14
-22.26
-27.2
-32.06
-37.1
-42.73
-49.39
-57.43
-66.94
-77.39
-87.56
-95.67
-99.81
-98.53
-91.42
-79.15
-63.38
-46.18
-29.46
-14.63
-2.39
7.03
13.79
18.27
21.0
22.51
23.35
23.94
24.51
25.14
25.73
26.13
26.23
25.98
25.46
24.79
24.06
23.32
22.53
21.64
20.54
19.2
17.59
15.68
13.38
10.62
7.38
3.69
-0.31
-4.53
-8.89
-13.44
-18.21
-23.13
-28.01
-32.66
-37.06
-41.49
-46.51
-52.6
-59.76
-67.13
-73.16
-76.0
-74.23
-67.33
-55.98
-41.62
-26.02
-10.77
3.03
14.74
24.09
31.04
35.7
38.3
39.22
38.91
37.88
36.61
35.49
34.79
34.61
34.8
35.08
35.15
34.85
34.26
33.62
33.17
32.96
32.76
32.11
30.56
27.84
23.97
19.26
14.19
9.21
4.62
0.49
-3.25
-6.79
-10.37
-14.36
-19.16
-25.14
-32.39
-40.46
-48.3
-54.31
-56.78
-54.43
-46.94
-35.04
-20.28
-4.59
10.33
23.35
33.93
42.03
47.86
51.65
53.67
54.24
53.75
52.68
51.46
50.42
49.68
49.18
48.69
48.01
47.07
45.94
44.84
43.98
43.37
42.8
41.82
39.99
37.09
33.24
28.9
24.6
20.73
17.24
13.72
9.57
4.35
-1.95
-8.89
-15.77
-21.99
-27.27
-31.8
-36.09
-40.74
-46.3
-53.13
-61.27
-70.35
-79.43
-87.02
-91.29
-90.65
-84.23
-72.32
-56.33
-38.39
-20.76
-5.23
7.19
16.26
22.34
26.09
28.24
29.44
30.19
30.81
31.48
32.27
33.16
34.03
34.64
34.76
34.21
33.06
31.62
30.35
29.72
29.89
30.65
31.45
31.56
30.41
27.76
23.79
18.97
13.88
8.94
4.34
-0.02
-4.4
-9.03
-14.02
-19.33
-24.78
-30.17
-35.36
-40.32
-45.08
-49.77
-54.59
-59.83
-65.84
-72.88
-80.78
-88.7
-95.11
-98.13
-96.12
-88.37
-75.46
-59.03
-41.33
-24.48
-9.9
1.76
10.54
16.82
21.09
23.76
25.22
25.78
25.72
25.23
24.57
23.95
23.52
23.32
23.28
23.26
23.2
23.08
23.03
23.17
23.55
24.02
24.31
24.13
23.25
21.58
19.17
16.1
12.53
8.6
4.49
0.37
-3.61
-7.33
-10.78
-14.03
-17.32
-21.08
-25.78
-31.8
-39.04
-46.81
-53.74
-58.11
-58.38
-53.61
-43.82
-29.95
-13.64
3.22
18.94
32.29
42.68
50.09
54.88
57.61
58.79
58.81
57.99
56.59
54.86
52.98
51.09
49.2
47.34
45.6
44.14
43.14
42.64
42.45
42.2
41.46
39.86
37.28
33.86
29.85
25.53
21.09
16.55
11.87
6.92
1.7
-3.7
-9.06
-14.14
-18.85
-23.26
-27.67
-32.54
-38.37
-45.54
-54.11
-63.61
-72.97
-80.52
-84.44
-83.22
-76.23
-64.07
-48.38
-31.34
-15.0
-0.76
10.85
19.93
26.89
32.1
35.78
38.15
39.48
40.14
40.56
40.99
41.44
41.64
41.25
40.1
38.37
36.54
35.22
34.77
35.2
36.05
36.68
36.5
35.22
32.9
29.86
26.51
23.16
19.96
16.91
13.83
10.47
6.53
1.76
-3.95
-10.51
-17.54
-24.57
-31.11
-36.91
-42.07
-47.03
-52.45
-58.94
-66.7
-75.32
-83.67
-90.04
-92.66
-90.2
-82.29
-69.66
-53.93
-37.09
-20.93
-6.7
4.95
13.78
19.84
23.29
24.54
24.2
23.04
21.81
20.95
20.52
20.3
19.98
19.44
18.74
18.08
17.69
17.64
17.88
18.21
18.36
18.08
17.18
15.64
13.57
11.2
8.69
6.04
3.06
-0.52
-4.87
-9.88
-15.16
-20.18
-24.53
-28.13
-31.17
-34.13
-37.51
-41.79
-47.25
-53.96
-61.58
-69.24
-75.57
-78.88
-77.71
-71.28
-59.92
-44.93
-28.32
-12.15
2.04
13.45
22.0
