0
-0.08
-0.58
-1.27
-2.06
-2.78
-3.27
-3.52
-3.6
-3.7
-3.94
-4.37
-4.95
-5.6
-6.22
-6.76
-7.24
-7.72
-8.32
-9.12
-10.17
-11.44
-12.8
-14.08
-15.09
-15.67
-15.69
-15.02
-13.58
-11.39
-8.62
-5.58
-2.69
-0.28
1.44
2.45
2.87
2.91
2.74
2.53
2.49
2.72
3.29
4.1
5.0
5.76
6.27
6.48
6.43
6.2
5.83
5.39
4.95
4.6
4.41
4.39
4.44
4.51
4.61
4.86
5.39
6.24
7.28
8.22
8.82
8.97
8.72
8.24
7.61
6.82
5.75
4.35
2.68
0.97
-0.51
-1.61
-2.33
-2.84
-3.33
-3.95
-4.75
-5.72
-6.83
-8.07
-9.42
-10.86
-12.32
-13.71
-14.87
-15.71
-16.12
-16.03
-15.42
-14.32
-12.76
-10.86
-8.75
-6.58
-4.48
-2.56
-0.89
0.45
1.37
1.84
1.88
1.66
1.46
1.56
2.12
3.09
4.21
5.2
5.86
6.22
6.42
6.66
7.03
7.52
7.99
8.3
8.42
8.33
8.08
7.73
7.29
6.8
6.25
5.66
5.05
4.43
3.86
3.4
3.1
2.93
2.79
2.55
2.1
1.45
0.69
-0.01
-0.54
-0.87
-1.09
-1.35
-1.84
-2.73
-4.07
-5.84
-7.85
-9.81
-11.41
-12.4
-12.62
-12.07
-10.88
-9.25
-7.37
-5.43
-3.5
-1.6
0.25
2.01
3.56
4.67
5.21
5.15
4.68
4.12
3.81
3.9
4.38
5.08
5.84
6.6
7.41
8.31
9.29
10.24
10.98
11.4
11.46
11.27
10.96
10.62
10.3
9.96
9.56
9.03
8.32
7.46
6.54
5.68
4.97
4.47
4.14
3.88
3.56
3.1
2.48
1.75
0.97
0.22
-0.5
-1.22
-2.05
-3.09
-4.44
-6.13
-8.07
-10.09
-11.93
-13.34
-14.07
-13.98
-13.03
-11.32
-9.09
-6.68
-4.4
-2.47
-0.96
0.22
1.2
2.08
2.85
3.44
3.78
3.9
3.96
4.19
4.74
5.55
6.42
7.07
7.3
7.13
6.74
6.4
6.27
6.39
6.62
6.8
6.79
6.59
6.26
5.91
5.58
5.21
4.7
3.99
3.12
2.26
1.62
1.36
1.47
1.76
1.94
1.81
1.3
0.52
-0.31
-1.03
-1.65
-2.31
-3.18
-4.33
-5.68
-7.06
-8.35
-9.52
-10.73
-12.09
-13.62
-15.11
-16.19
-16.45
-15.69
-13.96
-11.57
-8.96
-6.48
-4.32
-2.46
-0.78
0.79
2.2
3.31
3.99
4.16
3.95
3.57
3.29
3.28
3.58
4.13
4.82
5.57
6.31
7.04
7.74
8.34
8.77
8.94
8.79
8.29
7.5
6.54
5.55
4.71
4.09
3.67
3.33
2.98
2.52
1.95
1.32
0.67
0.03
-0.64
-1.37
-2.18
-2.99
-3.69
-4.19
-4.44
-4.46
-4.36
-4.33
-4.57
-5.22
-6.34
-7.8
-9.34
-10.63
-11.41
-11.5
-10.88
-9.64
-7.92
-5.9
-3.79
-1.8
-0.1
1.21
2.17
2.89
3.5
4.04
4.46
4.63
4.53
4.22
3.88
3.72
3.89
4.39
5.13
6.01
6.91
7.73
8.4
8.83
8.98
8.85
8.52
8.09
7.69
7.39
7.18
7.02
6.85
6.59
6.16
5.53
4.72
3.8
2.93
2.21
1.71
1.38
1.11
0.8
0.38
-0.15
-0.76
-1.4
-2.06
-2.75
-3.51
-4.38
-5.41
-6.62
-7.97
-9.36
-10.64
-11.64
-12.21
-12.24
-11.71
-10.63
-9.08
-7.17
-5.11
-3.09
-1.29
0.19
1.33
2.17
2.79
3.26
3.65
4.03
4.49
5.09
5.81
6.5
6.98
7.07
6.74
6.06
5.26
4.55
4.09
3.92
3.97
4.13
4.29
4.4
4.46
4.52
4.61
4.68
4.69
4.51
4.1
3.49
2.82
2.25
1.92
1.81
1.84
1.85
1.72
1.4
0.89
0.24
-0.53
-1.39
-2.33
-3.29
-4.2
-5.05
-5.9
-6.85
-8.0
-9.36
-10.86
-12.31
-13.47
-14.11
-14.06
-13.26
-11.76
-9.73
-7.4
-5.05
-2.87
-1.05
0.34
1.29
1.82
2.0
1.96
1.85
1.82
2.03
2.51
3.17
3.91
4.55
5.01
5.3
5.48
5.6
5.64
5.55
5.24
4.7
4.01
3.32
2.79
2.49
2.4
2.44
2.47
2.42
2.26
2.02
1.77
1.57
1.45
1.39
1.34
1.21
0.89
0.37
-0.34
-1.14
-1.9
-2.54
-3.03
-3.42
-3.81
-4.25
-4.81
-5.54
-6.54
-7.85
-9.49
-11.32
-13.1
-14.53
-15.33
-15.41
-14.78
-13.57
-11.92
-9.99
-7.89
-5.82
-3.92
-2.35
-1.15
-0.32
0.24
0.64
0.94
1.2
1.49
1.86
2.34
2.92
3.51
4.01
4.38
4.62
4.81
4.98
5.12
5.18
5.13
5.0
4.89
4.89
5.06
5.36
5.68
5.88
5.84
5.49
4.79
3.76
2.51
1.21
0.06
-0.75
-1.19
-1.33
-1.37
-1.5
-1.85
-2.43
-3.2
-4.03
-4.81
-5.48
-6.04
-6.56
-7.15
-7.92
-8.92
-10.1
-11.32
-12.36
-12.98
-12.97
-12.24
-10.76
-8.7
-6.3
-3.85
-1.62
0.26
1.8
3.1
4.2
5.06
5.55
5.55
5.07
4.36
3.76
3.6
4.01
4.87
5.91
6.85
7.55
7.98
8.19
8.24
8.09
7.74
7.21
6.63
6.14
5.81
5.64
5.51
5.33
5.06
4.73
4.35
3.99
3.65
3.31
2.99
2.69
2.46
2.25
2.06
1.79
1.35
0.65
-0.33
-1.56
-2.9
-4.1
-4.98
-5.47
-5.71
-6.0
-6.67
-7.86
-9.46
-11.12
-12.4
-12.98
-12.73
-11.72
-10.17
-8.24
-6.04
-3.63
-1.05
1.6
4.16
6.4
8.11
9.1
9.25
8.55
7.08
5.02
2.6
0.13
-2.09
-3.77
-4.77
-5.01
-4.53
-3.4
-1.7
0.5
3.12
6.02
8.97
11.62
13.58
14.48
14.07
12.33
9.46
5.83
1.91
-1.95
-5.5
-8.67
-11.46
-13.83
-15.73
-17.01
-17.62
-17.6
-17.09
-16.3
-15.4
-14.46
-13.48
-12.44
-11.36
-10.33
-9.51
-9.02
-8.99
-9.42
-10.28
-11.41
-12.66
-13.81
-14.69
-15.16
-15.12
-14.52
-13.36
-11.64
-9.46
-6.93
-4.23
-1.58
0.76
2.59
3.79
4.39
4.51
4.39
4.24
4.27
4.55
5.13
5.91
6.81
7.76
8.71
9.65
10.56
11.4
12.09
12.61
12.9
12.97
12.85
12.59
12.19
11.67
11.03
10.3
9.56
8.85
8.13
7.33
6.33
5.07
3.64
2.2
0.98
0.11
-0.38
-0.61
-0.78
-1.1
-1.66
-2.45
-3.38
-4.37
-5.38
-6.42
-7.59
-8.96
-10.52
-12.15
-13.6
-14.61
-14.91
-14.44
-13.28
-11.67
-9.89
-8.13
-6.4
-4.59
-2.53
-0.16
2.35
4.67
6.4
7.29
7.35
6.85
6.21
5.81
5.85
6.33
7.12
8.07
9.08
10.06
10.93
11.56
11.82
11.64
11.03
10.16
9.22
8.38
7.72
7.21
6.77
6.3
5.8
5.27
4.77
4.36
4.06
3.86
3.67
3.4
2.95
2.3
1.46
0.52
-0.44
-1.38
-2.3
-3.21
-4.13
-5.07
-6.04
-7.09
-8.3
-9.72
-11.36
-13.12
-14.77
-16.01
-16.56
-16.21
-14.91
-12.81
-10.22
-7.5
-4.98
-2.83
-1.09
0.32
1.5
2.5
3.3
3.87
4.24
4.51
4.82
5.32
6.06
6.98
7.96
8.87
9.69
10.44
11.15
11.8
12.28
12.45
12.24
11.7
11.03
10.44
10.1
9.99
9.97
9.89
9.58
9.02
8.23
7.29
6.26
5.2
4.19
3.31
2.59
2.02
1.51
0.94
0.19
-0.83
-2.12
-3.67
-5.42
-7.27
-9.18
-11.1
-13.0
-14.79
-16.33
-17.36
-17.63
-16.93
-15.27
-12.95
-10.46
-8.35
-6.97
-6.31
-6.08
-5.88
-5.43
-4.66
-3.71
-2.75
-1.85
-0.93
0.16
1.48
2.98
4.43
5.6
6.4
6.89
7.27
7.71
8.31
8.96
9.49
9.73
9.64
9.3
8.87
8.5
8.23
8.0
7.65
7.09
6.28
5.3
4.27
3.32
2.49
1.78
1.13
0.52
-0.1
-0.75
-1.46
-2.25
-3.16
-4.21
-5.45
-6.89
-8.51
-10.24
-11.93
-13.35
-14.24
-14.36
-13.59
-11.95
-9.66
-7.04
-4.41
-2.0
0.07
1.73
2.97
3.8
4.21
4.26
4.1
3.91
3.87
4.08
4.51
5.06
5.61
6.13
6.62
7.12
7.62
8.09
8.46
8.7
8.83
8.85
8.75
8.44
7.89
7.12
6.26
5.47
4.89
4.45
4.01
3.35
2.38
1.19
-0.01
-0.98
-1.58
-1.88
-2.08
-2.4
-3.04
-4.02
-5.3
-6.74
-8.24
-9.69
-10.98
-11.94
-12.39
-12.17
-11.18
-9.53
-7.42
-5.16
-3.02
-1.17
0.33
1.53
2.5
3.29
3.95
4.49
4.91
5.25
5.52
5.75
5.98
6.23
6.55
6.96
7.46
8.03
8.61
9.12
9.45
9.52
9.32
8.9
8.4
7.94
7.55
7.18
6.71
6.04
5.16
4.17
3.17
2.28
1.46
0.67
-0.16
-1.03
-1.88
-2.65
-3.33
-4.01
-4.83
-5.87
-7.18
-8.71
-10.38
-12.07
-13.65
-14.98
-15.82
-15.96
-15.2
-13.49
-10.98
-8.01
-4.97
-2.19
0.12
1.92
3.26
4.24
4.95
5.51
6.06
6.73
7.62
8.68
9.66
10.16
9.81
8.38
5.99
3.09
0.26
-1.87
-2.89
-2.68
-1.38
0.69
3.14
5.58
7.69
9.2
9.91
9.75
8.81
7.37
5.76
4.28
3.11
2.26
1.61
1.07
0.61
0.23
-0.06
-0.31
-0.62
-1.08
-1.72
-2.5
-3.37
-4.32
-5.4
-6.67
-8.14
-9.72
-11.24
-12.5
-13.35
-13.69
-13.51
-12.85
-11.79
-10.42
-8.84
-7.09
-5.23
-3.29
-1.36
0.42
1.89
2.94
3.53
3.74
3.73
3.65
3.63
3.74
4.04
4.55
5.23
6.03
6.8
7.42
7.8
7.91
7.81
7.61
7.38
7.18
7.02
6.85
6.64
6.36
5.95
5.41
4.73
3.9
2.95
1.93
0.94
0.13
-0.4
-0.64
-0.75
-0.99
-1.66
-2.93
-4.78
-7.02
-9.37
-11.57
-13.46
-14.94
-15.93
-16.3
-15.91
-14.65
-12.58
-9.94
-7.06
-4.26
-1.74
0.44
2.24
3.66
4.63
5.14
5.24
5.11
4.98
5.06
5.45
6.11
6.93
7.8
8.64
9.48
10.29
11.02
11.54
11.74
11.54
10.97
10.13
9.18
8.27
7.49
6.85
6.3
5.81
5.35
4.95
4.61
4.32
3.97
3.47
2.74
1.8
0.75
-0.29
-1.22
-2.08
-2.94
-3.89
-4.96
-6.1
-7.27
-8.41
-9.57
-10.79
-12.09
-13.4
-14.52
-15.25
-15.38
-14.83
-13.64
-11.99
-10.08
-8.14
-6.29
-4.58
-2.93
-1.28
0.33
1.77
2.85
3.46
3.63
3.59
3.6
3.87
4.44
5.17
5.89
6.48
6.93
7.29
7.62
7.96
8.27
8.55
8.79
9.01
9.22
9.34
9.29
9.0
8.49
7.82
7.14
6.54
6.06
5.66
5.28
4.81
4.21
3.47
2.59
1.62
0.62
-0.37
-1.27
-2.09
-2.84
-3.58
-4.4
-5.41
-6.73
-8.42
-10.48
-12.76
-14.97
-16.73
-17.69
-17.63
-16.57
-14.77
-12.65
-10.6
-8.9
-7.59
-6.58
-5.69
-4.85
-4.03
-3.3
-2.69
-2.16
-1.61
-0.92
-0.04
0.98
2.02
2.99
3.85
4.66
5.48
6.33
7.09
7.58
7.66
7.28
6.6
5.81
5.12
4.6
4.23
3.95
3.66
3.31
2.88
2.33
1.63
0.79
-0.16
-1.09
-1.87
-2.43
-2.76
-2.95
-3.12
-3.43
-3.93
-4.7
-5.72
-6.94
-8.33
-9.76
-11.11
-12.13
-12.58
-12.28
-11.17
-9.33
-6.95
-4.29
-1.56
1.06
3.39
5.24
6.45
6.94
6.85
6.54
6.43
6.89
7.97
9.46
10.96
12.1
12.62
12.42
11.46
9.76
7.37
4.53
1.61
-0.92
-2.66
-3.48
-3.52
-3.13
-2.66
-2.31
-2.12
-2.01
-1.93
-1.91
-2.08
-2.51
-3.23
-4.2
-5.31
-6.44
-7.5
-8.42
-9.21
-9.95
-10.79
-11.87
-13.23
-14.72
-16.0
-16.71
-16.51
-15.29
-13.15
-10.4
-7.47
-4.7
-2.31
-0.36
1.21
2.51
3.63
4.54
5.16
5.39
5.27
4.93
4.65
4.66
5.18
6.21
7.65
9.29
10.86
12.12
12.79
12.64
11.5
9.39
6.51
3.32
0.37
-1.83
-2.97
-3.07
-2.37
-1.22
0.11
1.51
2.96
4.46
5.84
6.87
7.32
7.13
6.48
5.7
5.09
4.78
4.63
4.36
3.71
2.53
0.85
-1.18
-3.37
-5.53
-7.43
-8.85
-9.57
-9.44
-8.43
-6.7
-4.51
-2.18
-0.0
1.82
3.2
4.13
4.65
4.82
4.74
4.54
4.41
4.48
4.85
5.48
6.22
6.9
7.44
7.87
8.32
8.93
9.73
10.59
11.24
11.39
10.86
9.68
7.99
6.05
4.07
2.24
0.66
-0.64
-1.66
-2.48
-3.18
-3.86
-4.59
-5.37
-6.18
-6.94
-7.63
-8.28
-8.88
-9.46
-9.94
-10.24
-10.28
-10.12
-9.9
-9.81
-10.03
-10.63
-11.53
-12.53
-13.35
-13.73
-13.48
-12.57
-11.08
-9.18
-7.06
-4.84
-2.62
-0.43
1.72
3.74
5.51
6.85
7.67
8.0
7.97
7.83
7.81
8.04
8.57
9.31
10.16
10.97
11.63
12.02
12.06
11.67
10.82
9.57
8.04
6.39
4.81
3.4
2.22
1.33
0.73
0.39
0.22
0.07
-0.27
-0.93
-1.91
-3.06
-4.11
-4.85
-5.21
-5.32
-5.44
-5.81
-6.59
-7.8
-9.31
-10.97
-12.54
-13.81
-14.52
-14.48
-13.54
-11.71
-9.17
-6.23
-3.22
-0.48
1.82
3.63
5.01
6.07
6.86
7.37
7.51
7.27
6.73
6.13
5.79
5.97
6.74
7.95
9.23
10.25
10.78
10.78
10.45
10.04
9.77
9.69
9.71
9.66
9.39
8.9
8.28
7.64
7.04
6.41
5.64
4.64
3.46
2.23
1.12
0.18
-0.63
-1.42
-2.31
-3.31
-4.37
-5.38
-6.32
-7.23
-8.23
-9.47
-10.99
-12.77
-14.6
-16.18
-17.13
-17.15
-16.1
-14.11
-11.48
-8.58
-5.73
-3.12
-0.8
1.2
2.87
4.18
5.13
5.78
6.24
6.61
6.95
7.31
7.7
8.16
8.74
9.43
10.17
10.86
11.4
11.73
11.89
11.93
11.94
11.99
12.07
12.19
12.26
12.14
11.7
10.83
9.55
8.01
6.42
4.95
3.62
2.34
0.98
-0.54
-2.16
-3.72
-5.02
-5.97
-6.6
-7.05
-7.51
-8.14
-9.06
-10.31
-11.85
-13.57
-15.29
-16.82
-17.92
-18.4
-18.12
-17.04
-15.25
-12.9
-10.24
-7.49
-4.9
-2.62
-0.74
0.68
1.7
2.35
2.72
2.9
3.0
3.15
3.45
3.97
4.73
5.68
6.7
7.63
8.36
8.81
8.99
8.98
8.83
8.56
8.17
7.62
6.91
6.12
5.34
4.68
4.14
3.7
3.25
2.7
1.98
1.06
0.04
-0.99
-1.91
-2.66
-3.28
-3.9
-4.71
-5.88
-7.51
-9.53
-11.7
-13.73
-15.3
-16.16
-16.17
-15.28
-13.55
-11.15
-8.34
-5.39
-2.56
-0.04
2.07
3.69
4.8
5.4
5.55
5.35
4.98
4.62
4.43
4.48
4.74
5.15
5.58
5.99
6.38
6.77
7.17
7.51
7.66
7.49
6.93
6.06
5.07
4.17
3.51
3.09
2.76
2.35
1.72
0.91
0.0
-0.91
-1.82
-2.78
-3.86
-5.06
-6.26
-7.34
-8.26
-9.1
-10.07
-11.37
-13.02
-14.84
-16.45
-17.45
-17.53
-16.58
-14.65
-11.95
-8.77
-5.42
-2.22
0.52
2.59
3.89
4.44
4.44
4.09
3.65
3.33
3.24
3.47
4.04
4.85
5.79
6.7
7.47
8.07
8.51
8.83
9.1
9.33
9.52
9.66
9.75
9.78
9.71
9.49
9.07
8.47
7.73
6.96
6.21
5.55
4.92
4.27
3.53
2.63
1.57
0.39
-0.86
-2.12
-3.35
-4.56
-5.81
-7.18
-8.79
-10.67
-12.82
-15.08
-17.19
-18.8
-19.58
-19.29
-17.91
-15.63
-12.79
-9.74
-6.77
-4.0
-1.53
0.61
2.35
3.63
4.47
4.94
5.24
5.55
6.02
6.67
7.5
8.42
9.37
10.31
11.19
11.95
12.54
12.89
12.96
12.75
12.32
11.72
11.08
10.5
10.04
9.7
9.4
9.03
8.5
7.74
6.75
5.57
4.3
3.01
1.8
0.72
-0.19
-0.97
-1.67
-2.37
-3.16
-4.08
-5.16
-6.39
-7.74
-9.18
-10.68
-12.24
-13.87
-15.48
-16.94
-17.98
-18.3
-17.68
-16.11
-13.8
-11.15
-8.54
-6.19
-4.16
-2.34
-0.62
0.97
2.33
3.25
3.62
3.47
3.01
2.54
2.38
2.7
3.48
4.56
5.69
6.68
7.47
8.09
8.65
9.18
9.6
9.79
9.65
9.23
8.68
8.19
7.85
7.56
7.13
6.4
5.32
4.0
2.6
1.24
-0.05
-1.3
-2.55
-3.73
-4.79
-5.72
-6.57
-7.46
-8.51
-9.75
-11.13
-12.5
-13.67
-14.45
-14.63
-14.03
-12.55
-10.28
-7.44
-4.36
-1.39
1.26
3.46
5.17
6.35
6.98
7.1
6.84
6.46
6.21
6.29
6.72
7.36
7.97
8.41
8.61
8.61
8.54
8.46
8.43
8.42
8.39
8.26
7.96
7.49
6.86
6.16
5.43
4.74
4.07
3.38
2.61
1.7
0.63
-0.6
-1.89
-3.11
-4.16
-4.97
-5.55
-6.01
-6.54
-7.28
-8.33
-9.7
-11.34
-13.12
-14.88
-16.38
-17.33
-17.48
-16.65
-14.92
-12.54
-9.86
-7.19
-4.74
-2.57
-0.69
0.87
2.0
2.63
2.75
2.5
2.14
1.98
2.2
2.8
3.67
4.6
5.47
6.26
7.03
7.83
8.62
9.27
9.6
9.51
9.04
8.36
7.68
7.12
6.63
6.12
5.46
4.6
3.63
2.66
1.82
1.15
0.65
0.23
-0.22
-0.81
-1.59
-2.57
-3.7
-4.88
-6.02
-7.08
-8.1
-9.12
-10.17
-11.26
-12.37
-13.43
-14.34
-14.9
-14.88
-14.07
-12.39
-9.97
-7.11
-4.18
-1.47
0.92
3.02
4.85
6.36
7.4
7.82
7.6
6.93
6.16
5.64
5.63
6.12
6.93
7.78
8.41
8.71
8.71
8.57
8.38
8.2
7.94
7.51
6.82
5.93
4.96
4.07
3.35
2.8
2.32
1.84
1.3
0.71
0.09
-0.54
-1.19
-1.87
-2.52
-3.1
-3.59
-4.02
-4.49
-5.17
-6.2
-7.68
-9.54
-11.65
-13.75
-15.58
-16.9
-17.57
-17.51
-16.71
-15.2
-13.02
-10.3
-7.19
-3.97
-0.93
1.7
3.81
5.44
6.68
7.55
7.95
7.66
6.57
4.76
2.62
0.71
-0.47
-0.64
0.1
1.38
2.76
3.89
4.65
5.1
5.4
5.67
5.9
6.03
5.92
5.52
4.89
4.18
3.58
3.16
2.85
2.44
1.69
0.51
-1.02
-2.64
-4.12
-5.32
-6.3
-7.23
-8.28
-9.56
-11.06
-12.67
-14.24
-15.59
-16.51
-16.81
-16.31
-14.93
-12.71
-9.81
-6.49
-3.06
0.14
2.81
4.75
5.87
6.25
6.07
5.56
4.98
4.5
4.27
4.36
4.82
5.59
6.58
7.65
8.64
9.46
10.08
10.47
10.59
10.41
9.93
9.22
8.42
7.69
7.14
6.75
6.43
5.98
5.24
4.15
2.74
1.16
-0.43
-1.88
-3.13
-4.17
-5.08
-5.94
-6.8
-7.69
-8.67
-9.85
-11.34
-13.26
-15.52
-17.84
-19.79
-20.94
-20.99
-19.9
-17.84
-15.11
-11.97
-8.66
-5.4
-2.37
0.22
2.19
3.5
4.21
4.5
4.57
4.62
4.78
5.15
5.74
6.52
7.44
8.38
9.25
10.02
10.67
11.22
11.62
11.79
11.64
11.15
10.4
9.55
8.76
8.08
7.47
6.81
6.02
5.13
4.23
3.4
2.63
1.83
0.9
-0.17
-1.33
-2.48
-3.58
-4.71
-6.02
-7.63
-9.56
-11.69
-13.85
-15.83
-17.46
-18.56
-18.95
-18.41
-16.87
-14.4
-11.3
-7.99
-4.9
-2.28
-0.19
1.44
2.72
3.76
4.57
5.29
6.05
7.05
8.39
10.0
11.62
12.97
13.85
14.29
14.49
14.64
14.88
15.14
15.31
15.23
14.84
14.18
13.35
12.42
11.44
10.43
9.41
8.41
7.49
6.69
5.97
5.27
4.45
3.37
1.94
0.2
-1.71
-3.57
-5.19
-6.52
-7.65
-8.81
-10.23
-12.07
-14.31
-16.77
-19.17
-21.14
-22.38
-22.66
-21.9
-20.15
-17.62
-14.55
-11.25
-7.97
-4.94
-2.31
-0.24
1.22
2.09
2.49
2.64
2.78
3.09
3.66
4.45
5.41
6.45
7.52
8.58
9.57
10.4
10.97
11.22
11.18
10.92
10.57
10.23
9.92
9.62
9.3
8.91
8.39
7.71
6.84
5.81
4.65
3.45
2.28
1.18
0.12
-0.97
-2.18
-3.62
-5.32
-7.31
-9.48
-11.61
-13.36
-14.26
-14.0
-12.48
-9.97
-6.96
-3.98
-1.36
0.83
2.7
4.42
6.04
7.47
8.57
9.24
9.52
9.6
9.67
9.87
10.23
10.68
11.08
11.35
11.46
11.42
11.31
11.17
11.05
10.9
10.64
10.21
9.58
8.75
7.8
6.79
5.77
4.76
3.76
2.72
1.63
0.41
-0.99
-2.64
-4.53
-6.6
-8.74
-10.79
-12.61
-14.0
-14.79
-14.81
-13.96
-12.3
-10.06
-7.58
-5.15
-2.93
-0.89
1.06
2.98
4.79
6.32
7.44
8.14
8.58
8.97
9.43
9.99
10.57
11.07
11.53
11.98
12.48
13.05
13.63
14.12
14.48
14.7
14.78
14.74
14.54
14.18
13.64
12.97
12.24
11.51
10.84
10.24
9.66
9.03
8.33
7.54
6.69
5.81
4.91
3.98
3.04
2.16
1.47
1.07
0.91
0.78
0.39
-0.5
-1.9
-3.57
-5.16
-6.39
-7.26
-8.05
-9.11
-10.69
-12.81
-15.24
-17.68
-19.85
-21.55
-22.66
-23.09
-22.71
-21.5
-19.47
-16.81
-13.76
-10.6
-7.57
-4.83
-2.46
-0.53
0.94
1.99
2.71
3.27
3.8
4.4
5.1
5.85
6.62
7.38
8.12
8.82
9.45
9.94
10.27
10.46
10.59
10.76
11.02
11.31
11.52
11.53
11.33
10.97
10.55
10.13
9.7
9.19
8.52
7.67
6.67
5.61
4.54
3.51
2.51
1.53
0.59
-0.26
-1.0
-1.65
-2.26
-2.91
-3.63
-4.47
-5.36
-6.29
-7.23
-8.15
-9.07
-10.01
-10.97
-12.0
-13.11
-14.34
-15.67
-17.04
-18.35
-19.45
-20.17
-20.37
-19.95
-18.88
-17.21
-15.08
-12.72
-10.35
-8.16
-6.24
-4.61
-3.23
-2.03
-0.96
0.02
0.91
1.7
2.35
2.85
3.19
3.41
3.58
3.82
4.15
4.59
5.12
5.71
6.32
6.94
7.55
8.11
8.56
8.87
8.99
8.97
8.85
8.7
8.56
8.45
8.29
7.98
7.42
6.62
5.63
4.63
3.77
3.13
2.69
2.31
1.81
1.12
0.21
-0.8
-1.81
-2.74
-3.6
-4.52
-5.64
-7.04
-8.74
-10.59
-12.39
-13.89
-14.88
-15.22
-14.85
-13.82
-12.27
-10.43
-8.51
-6.69
-5.04
-3.57
-2.24
-1.06
-0.1
0.56
0.89
0.93
0.81
0.72
0.8
1.12
1.7
2.49
3.46
4.58
5.85
7.19
8.46
9.46
9.95
9.81
9.06
7.92
6.7
5.68
5.02
4.72
4.68
4.79
4.93
5.02
4.94
4.56
3.85
2.87
1.87
1.09
0.7
0.61
0.55
0.19
-0.66
-1.91
-3.3
-4.54
-5.51
-6.23
-6.88
-7.64
-8.57
-9.65
-10.81
-12.05
-13.36
-14.75
-16.05
-17.04
-17.42
-16.99
-15.76
-13.89
-11.73
-9.57
-7.62
-5.93
-4.48
-3.19
-2.07
-1.16
-0.52
-0.15
0.05
0.19
0.42
0.84
1.44
2.13
2.84
3.46
4.01
4.55
5.15
5.93
6.87
7.93
8.95
9.75
10.2
10.23
9.91
9.34
8.7
8.1
7.59
7.17
6.79
6.44
6.11
5.77
5.4
4.97
4.47
3.9
3.33
2.8
2.29
1.72
0.97
-0.05
-1.33
-2.75
-4.17
-5.48
-6.71
-7.99
-9.49
-11.36
-13.6
-16.08
-18.61
-20.97
-22.92
-24.27
-24.79
-24.35
-22.86
-20.48
-17.53
-14.47
-11.67
-9.38
-7.61
-6.21
-5.04
-4.0
-3.14
-2.47
-1.97
-1.51
-0.92
-0.13
0.79
1.71
2.47
3.06
3.6
4.23
5.05
6.04
7.04
7.88
8.44
8.7
8.72
8.57
8.32
7.98
7.52
6.94
6.24
5.5
4.82
4.32
4.02
3.88
3.71
3.34
2.67
1.73
0.68
-0.3
-1.15
-1.89
-2.65
-3.53
-4.54
-5.62
-6.69
-7.71
-8.76
-9.92
-11.33
-13.04
-14.97
-16.94
-18.66
-19.78
-20.04
-19.32
-17.7
-15.4
-12.66
-9.71
-6.67
-3.66
-0.83
1.62
3.48
4.65
5.21
5.43
5.59
5.94
6.54
7.31
8.12
8.84
9.45
9.96
10.44
10.92
11.37
11.75
11.98
11.98
11.76
11.33
10.77
10.19
9.69
9.34
9.1
8.84
8.43
7.78
6.88
5.87
4.86
3.92
3.06
2.17
1.14
-0.05
-1.36
-2.69
-4.0
-5.29
-6.6
-7.97
-9.39
-10.81
-12.17
-13.49
-14.87
-16.43
-18.25
-20.29
-22.37
-24.21
-25.49
-25.88
-25.18
-23.36
-20.57
-17.15
-13.46
-9.85
-6.57
-3.7
-1.26
0.77
2.43
3.74
4.82
5.8
6.84
7.98
9.17
10.28
11.2
11.87
12.36
12.79
13.23
13.73
14.23
14.74
15.23
15.73
16.21
16.62
16.83
16.74
16.35
15.78
15.2
14.75
14.42
14.06
13.39
12.18
10.24
7.64
4.58
1.38
-1.61
-4.11
-6.0
-7.31
-8.16
-8.75
-9.19
-9.56
-9.83
-10.03
-10.24
-10.64
-11.44
-12.79
-14.68
-16.92
-19.28
-21.44
-23.17
-24.27
-24.57
-23.94
-22.34
-19.88
-16.78
-13.41
-10.09
-7.03
-4.3
-1.88
0.26
2.14
3.67
4.85
5.73
6.43
7.1
7.84
8.64
9.45
10.15
10.76
11.3
11.87
12.53
13.24
13.92
14.4
14.55
14.32
13.74
12.9
11.94
11.01
10.2
9.56
9.01
8.45
7.72
6.73
5.52
4.22
3.04
2.2
1.7
1.45
1.19
0.69
-0.14
-1.23
-2.39
-3.47
-4.42
-5.33
-6.38
-7.73
-9.4
-11.29
-13.3
-15.38
-17.55
-19.83
-22.1
-23.99
-25.03
-24.78
-23.05
-20.05
-16.26
-12.25
-8.44
-5.02
-1.98
0.71
3.04
4.9
6.2
6.98
7.39
7.67
8.07
8.74
9.7
10.88
12.17
13.44
14.6
15.59
16.34
16.84
17.07
17.0
16.68
16.16
15.48
14.74
13.98
13.23
12.45
11.59
10.57
9.35
7.97
6.48
5.02
3.7
2.59
1.66
0.82
-0.1
-1.24
-2.66
-4.35
-6.2
-8.09
-9.97
-11.86
-13.84
-15.98
-18.19
-20.2
-21.6
-22.0
-21.18
-19.24
-16.5
-13.36
-10.18
-7.1
-4.15
-1.3
1.41
3.82
5.77
7.14
7.98
8.48
8.88
9.4
10.16
11.18
12.41
13.74
15.02
16.05
16.69
16.83
16.56
16.03
15.46
14.99
14.59
14.16
13.51
12.62
11.52
10.38
9.31
8.36
7.51
6.66
5.77
4.83
3.86
2.93
2.07
1.25
0.45
-0.41
-1.4
-2.54
-3.82
-5.16
-6.45
-7.67
-8.86
-10.2
-11.87
-14.03
-16.63
-19.47
-22.18
-24.37
-25.67
-25.85
-24.82
-22.65
-19.54
-15.81
-11.83
-7.93
-4.39
-1.37
1.1
3.02
4.44
5.42
6.08
6.55
7.0
7.57
8.31
9.23
10.25
11.29
12.34
13.39
14.46
15.54
16.55
17.38
17.94
18.13
17.98
17.56
16.98
16.33
15.64
14.92
14.12
13.23
12.29
11.33
10.35
9.31
8.15
6.87
5.58
4.41
3.48
2.74
2.06
1.16
-0.12
-1.84
-3.83
-5.89
-7.8
-9.5
-11.08
-12.74
-14.64
-16.88
-19.41
-22.06
-24.55
-26.59
-27.82
-27.99
-26.92
-24.63
-21.31
-17.38
-13.33
-9.63
-6.57
-4.21
-2.37
-0.82
0.61
1.96
3.12
4.0
4.61
5.07
5.59
6.34
7.37
8.61
9.9
11.1
12.15
13.09
13.98
14.82
15.54
15.99
16.05
15.67
14.96
14.08
13.2
12.39
11.65
10.89
10.06
9.14
8.17
7.21
6.26
5.28
4.2
3.01
1.73
0.41
-0.9
-2.21
-3.59
-5.05
-6.62
-8.26
-9.97
-11.78
-13.77
-15.96
-18.25
-20.32
-21.74
-22.08
-21.08
-18.8
-15.56
-11.8
-7.97
-4.35
-1.07
1.79
4.19
5.99
7.11
7.55
7.48
7.22
7.1
7.37
8.06
9.01
10.01
10.85
11.48
11.93
12.28
12.53
12.63
12.51
12.14
11.62
11.13
10.8
10.71
10.76
10.76
10.52
9.93
9.02
7.92
6.8
5.78
4.89
4.05
3.16
2.11
0.84
-0.61
-2.16
-3.72
-5.22
-6.66
-8.03
-9.35
-10.6
-11.85
-13.21
-14.86
-16.93
-19.44
-22.12
-24.5
-25.97
-26.1
-24.69
-21.97
-18.4
-14.53
-10.81
-7.48
-4.6
-2.14
-0.07
1.58
2.78
3.52
3.88
4.07
4.32
4.81
5.62
6.69
7.89
9.1
10.21
11.15
11.89
12.42
12.78
13.05
13.31
13.63
13.95
14.17
14.17
13.84
13.26
12.53
11.84
11.31
10.94
10.64
10.3
9.81
9.14
8.35
7.51
6.69
5.91
5.13
4.27
3.21
1.93
0.45
-1.08
-2.55
-3.88
-5.13
-6.43
-7.9
-9.65
-11.69
-13.96
-16.42
-18.97
-21.53
-23.89
-25.79
-26.94
-27.08
-26.1
-24.07
-21.18
-17.73
-14.06
-10.43
-7.06
-4.07
-1.57
0.41
1.85
2.81
3.4
3.77
4.07
4.39
4.78
5.26
5.83
6.48
7.23
8.03
8.85
9.62
10.32
10.93
11.43
11.79
11.98
11.94
11.7
11.33
10.96
10.73
10.66
10.7
10.71
10.54
10.11
9.41
8.51
7.51
6.51
5.52
4.53
3.48
2.35
1.13
-0.11
-1.29
-2.4
-3.48
-4.63
-5.98
-7.6
-9.48
-11.51
-13.55
-15.53
-17.46
-19.38
-21.28
-22.96
-24.1
-24.32
-23.36
-21.21
-18.12
-14.5
-10.76
-7.23
-4.04
-1.23
1.21
3.26
4.84
5.92
6.48
6.66
6.66
6.74
7.12
7.88
8.98
10.25
11.49
12.56
13.41
14.06
14.57
14.97
15.26
15.39
15.29
14.89
14.17
13.13
11.88
10.59
9.46
8.62
8.04
7.56
6.98
6.13
4.97
3.6
2.16
0.79
-0.47
-1.66
-2.86
-4.13
-5.5
-6.96
-8.48
-10.05
-11.71
-13.57
-15.73
-18.21
-20.87
-23.33
-25.09
-25.72
-24.96
-22.87
-19.8
-16.19
-12.49
-8.97
-5.79
-2.99
-0.56
1.46
3.08
4.29
5.15
5.81
6.39
7.06
7.88
8.79
9.71
10.53
11.22
11.81
12.38
12.94
13.44
13.78
13.87
13.73
13.44
13.17
12.98
12.85
12.68
12.34
11.77
11.01
10.13
9.19
8.24
7.3
6.37
5.46
4.64
3.88
3.18
2.47
1.66
0.71
-0.39
-1.6
-2.87
-4.15
-5.48
-6.93
-8.59
-10.51
-12.71
-15.16
-17.77
-20.41
-22.86
-24.82
-25.9
-25.77
-24.35
-21.83
-18.66
-15.39
-12.43
-9.91
-7.72
-5.67
-3.62
-1.59
0.35
2.1
3.66
5.05
6.28
7.32
8.13
8.7
9.11
9.52
10.06
10.78
11.59
12.35
12.9
13.13
13.06
12.76
12.35
11.93
11.53
11.16
10.8
10.4
9.92
9.25
8.28
6.87
4.99
2.72
0.32
-1.93
-3.79
-5.16
-6.06
-6.62
-6.98
-7.22
-7.43
-7.7
-8.14
-8.85
-9.91
-11.3
-12.97
-14.85
-16.84
-18.83
-20.64
-22.03
-22.77
-22.68
-21.71
-19.93
-17.5
-14.57
-11.31
-7.89
-4.49
-1.35
1.25
3.11
4.1
4.27
3.85
3.12
2.4
1.95
1.94
2.41
3.35
4.68
6.29
8.03
9.75
11.32
12.62
13.59
14.2
14.47
14.41
14.05
13.42
12.6
11.72
10.88
10.18
9.6
9.04
8.37
7.46
6.29
4.92
3.46
1.98
0.53
-0.94
-2.47
-4.1
-5.81
-7.61
-9.51
-11.51
-13.6
-15.6
-17.26
-18.27
-18.37
-17.52
-15.87
-13.67
-11.19
-8.62
-6.05
-3.54
-1.16
0.94
2.64
3.88
4.75
5.44
6.16
7.04
8.08
9.13
10.06
10.77
11.26
11.62
12.0
12.42
12.85
13.16
13.19
12.91
12.35
11.62
10.87
10.23
9.79
9.55
9.51
9.58
9.65
9.61
9.38
8.93
8.28
7.49
6.61
5.61
4.47
3.16
1.69
0.13
-1.47
-3.09
-4.78
-6.6
-8.62
-10.89
-13.42
-16.17
-19.05
-21.87
-24.36
-26.14
-26.91
-26.5
-24.96
-22.57
-19.7
-16.71
-13.82
-11.1
-8.5
-5.95
-3.46
-1.09
1.07
2.91
4.41
5.58
6.47
7.18
7.8
8.44
9.2
10.1
11.13
12.17
13.08
13.73
14.07
14.1
13.87
13.44
12.89
12.27
11.67
11.18
10.83
10.55
10.24
9.76
8.99
7.92
