0
-54.16
-61.12
-66.56
-70.8
-74.71
-79.47
-86.27
-96.1
-109.46
-126.04
-144.31
-161.22
-172.48
-173.52
-160.9
-133.88
-95.01
-49.66
-4.32
35.31
65.77
86.14
97.36
101.01
98.43
90.57
78.43
63.64
48.62
36.19
28.74
27.47
32.07
40.92
51.68
62.14
70.71
76.7
80.11
81.25
80.3
77.05
71.07
62.13
50.6
37.65
25.03
14.42
6.71
1.55
-2.44
-7.14
-13.92
-23.17
-34.09
-45.14
-54.76
-62.05
-67.07
-70.76
-74.64
-80.35
-89.27
-102.12
-118.51
-136.53
-152.62
-162.11
-160.4
-144.64
-114.92
-74.65
-29.62
13.8
50.52
77.88
95.59
104.79
106.96
103.3
94.73
82.4
68.07
54.12
43.01
36.68
35.97
40.41
48.5
58.14
67.25
74.31
78.64
80.35
80.03
78.26
75.24
70.75
64.32
55.67
45.08
33.34
21.55
10.73
1.45
-6.26
-12.85
-18.99
-25.35
-32.35
-40.01
-47.94
-55.49
-62.03
-67.26
-71.36
-75.05
-79.4
-85.58
-94.69
-107.36
-123.36
-141.07
-157.26
-167.4
-166.83
-152.32
-123.49
-83.33
-37.45
7.63
46.39
75.62
94.6
104.46
106.96
103.77
96.11
85.07
72.04
58.9
47.86
40.92
39.25
42.75
50.17
59.51
68.7
76.23
81.31
83.82
83.96
81.96
77.96
72.12
64.68
56.01
46.61
36.93
27.34
18.1
9.4
1.4
-5.83
-12.44
-18.75
-25.18
-32.12
-39.6
-47.31
-54.69
-61.22
-66.68
-71.32
-75.8
-81.04
-88.03
-97.65
-110.37
-125.9
-142.62
-157.4
-165.9
-163.7
-147.87
-118.35
-78.35
-33.56
9.74
46.46
73.89
91.67
100.85
102.81
98.68
89.37
76.06
60.62
45.54
33.47
26.44
25.34
29.72
38.05
48.31
58.63
67.69
74.8
79.75
82.34
82.23
78.85
71.81
61.27
48.21
34.32
21.46
10.97
3.13
-2.89
-8.6
-15.5
-24.3
-34.64
-45.26
-54.66
-61.75
-66.42
-69.57
-72.73
-77.68
-85.9
-98.16
-114.14
-131.96
-148.1
-157.88
-156.67
-141.45
-112.24
-72.47
-27.98
14.78
50.71
77.24
94.19
102.81
104.65
100.87
92.35
80.15
66.0
52.2
41.24
35.08
34.58
39.34
47.87
58.06
67.87
75.79
81.08
83.79
84.33
83.11
80.21
75.39
68.34
59.0
47.77
35.52
23.31
12.14
2.59
-5.23
-11.72
-17.61
-23.7
-30.65
-38.7
-47.59
-56.61
-64.92
-71.85
-77.27
-81.75
-86.43
-92.83
-102.35
-115.78
-132.68
-150.99
-166.96
-175.85
-173.2
-156.21
-125.05
-83.07
-35.94
10.0
49.43
79.3
98.96
109.4
112.33
109.34
101.73
90.76
78.01
65.51
55.44
49.57
48.74
52.6
59.87
68.8
77.74
85.53
91.5
95.33
96.81
95.7
91.93
85.62
77.28
67.73
57.85
48.3
39.3
30.67
22.06
13.28
4.52
-3.74
-10.99
-17.01
-22.11
-27.05
-32.7
-39.6
-47.68
-56.23
-64.31
-71.13
-76.56
-81.18
-86.19
-93.09
-103.29
-117.49
-135.28
-154.61
-171.67
-181.64
-179.83
-163.34
-132.4
-90.58
-43.91
1.04
38.99
67.09
84.99
93.91
95.61
91.57
82.94
70.89
57.05
43.66
33.2
27.75
28.31
34.44
44.42
55.83
66.42
74.67
80.1
82.96
83.81
82.92
80.19
75.17
67.51
57.32
45.3
32.64
20.57
10.08
1.54
-5.37
-11.53
-18.01
-25.57
-34.4
-43.88
-52.93
-60.38
-65.57
-68.74
-70.95
-73.82
-79.0
-87.74
-100.61
-117.14
-135.64
-153.06
-165.23
-167.69
-156.95
-131.88
-94.48
-49.62
-3.71
37.22
69.08
90.45
102.11
105.93
103.78
97.01
86.61
73.77
60.26
48.37
40.35
37.68
40.58
47.97
57.94
68.47
77.85
85.09
89.73
91.7
91.02
87.76
82.15
74.61
65.79
56.37
46.91
37.72
28.84
20.24
11.91
3.95
-3.45
-10.2
-16.41
-22.45
-28.79
-35.85
-43.77
-52.33
-60.97
-69.0
-75.9
-81.57
-86.45
-91.64
-98.66
-108.95
-123.28
-141.02
-159.64
-174.88
-181.6
-175.31
-153.82
-118.26
-73.07
-24.65
20.53
57.67
84.54
101.27
109.34
110.55
106.42
98.15
87.01
74.76
63.52
55.38
51.83
53.29
59.05
67.6
77.21
86.44
94.41
100.75
105.3
107.71
107.48
104.08
97.35
87.83
76.72
65.56
55.57
47.3
40.39
33.9
26.82
18.59
9.39
-0.01
-8.63
-15.71
-21.11
-25.31
-29.35
-34.28
-40.8
-48.91
-57.89
-66.62
-74.14
-80.09
-85.05
-90.34
-97.62
-108.36
-123.11
-141.03
-159.55
-174.49
-180.96
-174.68
-153.59
-118.86
-74.84
-27.86
15.66
51.02
76.07
91.07
97.61
97.52
92.22
82.7
70.06
55.94
42.57
32.43
27.53
28.75
35.54
46.15
58.26
69.7
79.02
85.61
89.5
90.95
90.1
86.9
81.27
73.29
63.34
52.15
40.61
29.61
19.84
11.68
5.1
-0.35
-5.41
-10.97
-17.65
-25.56
-34.17
-42.55
-49.7
-55.12
-58.99
-62.24
-66.16
-72.14
-81.28
-94.12
-110.26
-128.04
-144.3
-154.72
-154.88
-141.69
-114.73
-76.83
-33.38
9.39
46.21
74.06
92.27
101.74
103.88
99.94
90.97
78.17
63.3
48.7
36.8
29.57
27.91
31.58
39.3
49.3
59.76
69.13
76.41
81.06
82.95
82.2
79.03
73.68
66.47
57.76
48.0
37.69
27.29
17.28
7.99
-0.34
-7.68
-14.2
-20.28
-26.42
-33.05
-40.37
-48.28
-56.37
-64.02
-70.73
-76.32
-81.13
-86.02
-92.19
-101.0
-113.41
-129.53
-147.96
-165.59
-177.9
-180.06
-168.37
-141.8
-102.63
-56.03
-8.52
33.88
67.18
89.92
102.76
107.41
105.75
99.27
89.24
77.01
64.25
52.92
44.89
41.4
42.75
48.23
56.44
65.77
74.79
82.51
88.36
91.98
93.06
91.37
86.87
79.85
70.97
61.06
50.94
41.09
31.71
22.8
14.35
6.48
-0.67
-7.06
-12.9
-18.69
-25.0
-32.27
-40.55
-49.44
-58.25
-66.27
-73.06
-78.77
-84.13
-90.39
-98.97
-110.97
-126.66
-144.93
-162.93
-176.41
-180.64
-171.83
-148.54
-112.48
-68.26
-22.11
19.85
53.26
76.14
88.75
92.68
89.9
82.17
70.96
57.64
43.89
31.67
22.99
19.39
21.37
28.27
38.33
49.34
59.35
67.27
72.91
76.65
78.85
79.36
77.5
72.47
63.96
52.56
39.8
27.58
17.43
9.85
4.21
-0.94
-7.12
-15.12
-24.78
-35.04
-44.5
-52.06
-57.37
-60.94
-63.97
-68.02
-74.53
-84.57
-98.4
-115.13
-132.41
-146.5
-153.0
-148.05
-129.72
-98.89
-59.28
-16.36
24.22
58.08
83.0
98.62
105.79
105.79
99.77
88.91
74.68
59.16
44.87
34.37
29.54
30.99
37.84
48.06
59.1
68.74
75.67
79.61
80.98
80.38
78.06
73.85
67.31
58.23
46.9
34.25
21.56
10.07
0.52
-6.99
-13.09
-18.8
-25.1
-32.53
-40.99
-49.78
-57.92
-64.6
-69.58
-73.35
-77.06
-82.17
-90.13
-101.9
-117.56
-135.96
-154.43
-168.96
-174.92
-168.3
-147.14
-112.54
-68.6
-21.46
22.61
58.8
84.84
100.87
108.54
109.84
106.26
98.75
88.18
75.91
63.94
54.58
49.78
50.34
55.69
64.16
73.63
82.27
88.96
93.27
95.24
95.02
92.68
88.16
81.5
72.91
62.82
51.85
40.74
30.13
20.59
12.38
5.4
-0.85
-7.13
-14.2
-22.45
-31.64
-41.03
-49.61
-56.58
-61.77
-65.65
-69.23
-73.74
-80.3
-89.87
-102.93
-119.3
-137.54
-154.69
-166.46
-168.22
-156.59
-130.82
-93.51
-49.94
-6.44
31.54
60.73
80.32
91.17
94.75
92.33
84.82
73.28
59.28
45.15
33.53
26.67
25.73
30.48
39.45
50.5
61.52
70.98
78.08
82.73
84.99
84.84
81.98
75.97
66.63
54.43
40.6
26.88
14.91
5.62
-1.16
-6.59
-12.26
-19.41
-28.34
-38.28
-47.79
-55.55
-60.95
-64.45
-67.41
-71.56
-78.42
-88.95
-103.09
-119.69
-136.23
-148.98
-153.65
-146.52
-125.85
-92.8
-51.48
-7.79
32.38
64.79
87.66
101.33
107.27
107.05
101.8
92.39
79.91
66.05
52.99
42.99
37.72
37.8
42.68
50.94
60.71
70.21
78.02
83.26
85.54
84.85
81.51
75.99
68.84
60.55
51.53
42.01
32.19
22.25
12.46
3.18
-5.23
-12.49
-18.6
-23.8
-28.59
-33.54
-39.14
-45.55
-52.52
-59.56
-66.06
-71.68
-76.59
-81.47
-87.46
-95.84
-107.6
-123.02
-140.99
-158.8
-172.19
-176.31
-167.16
-143.15
-106.07
-60.75
-13.73
28.78
62.51
85.82
99.26
104.55
103.56
97.81
88.62
77.37
65.84
56.09
49.95
48.55
51.91
59.0
68.07
77.4
85.72
92.45
97.51
100.87
102.23
100.97
96.52
88.84
78.68
67.44
56.68
47.51
40.17
34.07
28.21
21.69
14.18
6.01
-1.95
-8.76
-13.86
-17.37
-20.16
-23.46
-28.38
-35.4
-44.14
-53.55
-62.41
-69.95
-76.18
-81.93
-88.58
-97.58
-110.04
-126.21
-145.04
-163.83
-178.37
-183.77
-175.88
-152.86
-116.27
-70.86
-23.26
19.95
54.13
77.34
90.11
94.35
92.18
85.27
74.8
61.97
48.36
36.05
27.23
23.54
25.52
32.43
42.59
53.92
64.66
73.59
80.11
84.01
85.24
83.8
79.88
73.78
66.05
57.36
48.29
39.3
30.69
22.66
15.35
8.8
3.04
-2.04
-6.62
-11.02
-15.62
-20.78
-26.71
-33.37
-40.4
-47.25
-53.45
-58.86
-63.86
-69.37
-76.59
-86.7
-100.3
-116.77
-133.9
-147.92
-154.22
-148.68
-129.24
-96.9
-55.77
-11.89
28.63
61.28
84.08
97.28
102.39
101.14
94.86
84.53
71.27
56.7
42.99
32.41
26.73
26.74
32.0
41.08
51.99
62.77
71.94
78.66
82.6
83.72
81.99
77.38
70.02
60.42
49.52
38.57
28.62
20.24
13.26
7.01
0.73
-5.93
-12.71
-19.0
-24.26
-28.5
-32.36
-36.86
-42.84
-50.56
-59.45
-68.44
-76.47
-82.95
-88.18
-93.2
-99.54
-108.8
-122.03
-139.13
-158.33
-176.02
-187.19
-186.78
-171.33
-140.44
-97.38
-48.24
-0.11
41.04
71.78
91.49
101.55
104.05
100.84
93.26
82.47
69.93
57.6
47.66
41.99
41.5
45.94
54.07
64.16
74.51
83.83
91.29
96.4
98.85
98.4
95.0
88.88
80.67
71.23
61.49
52.16
43.49
35.41
27.56
19.62
11.52
3.48
-4.07
-10.8
-16.66
-22.07
-27.72
-34.28
-41.99
-50.52
-59.1
-66.87
-73.4
-78.92
-84.28
-90.79
-99.76
-112.16
-128.03
-146.1
-163.36
-175.34
-177.13
-164.93
-137.63
-97.67
-50.59
-3.33
37.81
68.88
88.84
98.88
101.14
97.63
89.71
78.37
64.74
50.52
37.87
28.93
25.14
26.81
33.12
42.41
52.77
62.51
70.5
76.14
79.28
79.97
78.27
74.27
68.07
59.9
50.19
39.63
29.06
19.35
11.16
4.68
-0.39
-4.81
-9.47
-15.04
-21.68
-29.01
-36.3
-42.75
-47.92
-51.84
-55.07
-58.58
-63.54
-71.14
-82.25
-97.01
-114.3
-131.44
-144.36
-148.49
-140.18
-118.09
-83.98
-42.38
0.73
39.66
70.43
91.38
102.85
106.22
103.15
95.03
83.1
68.74
53.71
40.13
30.15
25.36
26.4
32.67
42.49
53.6
63.87
71.78
76.76
79.02
79.09
77.35
73.76
67.97
59.7
49.13
37.04
24.69
13.38
3.97
-3.32
-9.0
-14.03
-19.47
-26.09
-34.15
-43.29
-52.67
-61.22
-68.12
-73.13
-76.81
-80.42
-85.63
-94.05
-106.67
-123.41
-142.72
-161.41
-174.97
-178.5
-168.15
-142.56
-103.72
-56.69
-8.19
35.31
69.4
92.4
105.02
109.28
107.25
100.45
89.92
76.74
62.46
49.24
39.34
34.47
35.2
40.79
49.52
59.33
68.5
76.01
81.57
85.29
87.24
87.23
84.79
79.46
71.06
60.02
47.34
34.33
22.3
12.09
3.87
-2.95
-9.39
-16.59
-25.19
-35.1
-45.52
-55.17
-62.96
-68.4
-71.93
-74.65
-78.08
-83.67
-92.57
-105.39
-121.92
-140.73
-158.82
-171.79
-174.83
-164.18
-138.74
-100.81
-55.59
-9.62
31.25
63.26
85.17
97.57
101.8
99.22
90.95
78.3
63.15
48.02
35.65
28.34
27.21
31.92
40.84
51.74
62.47
71.6
78.57
83.35
86.0
86.25
83.43
76.9
66.58
53.3
38.77
25.01
13.53
4.69
-2.31
-9.07
-17.03
-26.84
-37.95
-48.96
-58.36
-65.23
-69.71
-72.97
-76.87
-83.33
-93.78
-108.6
-126.67
-145.09
-159.49
-164.87
-157.11
-134.44
-98.45
-53.83
-6.99
35.82
70.24
94.49
108.95
115.09
114.48
108.3
97.5
83.37
67.86
53.49
42.77
37.48
38.1
43.74
52.5
62.17
70.9
77.66
82.2
84.74
85.57
84.6
81.4
75.34
66.18
54.29
40.8
27.26
15.17
5.37
-2.23
-8.54
-14.9
-22.41
-31.48
-41.64
-51.79
-60.67
-67.48
-72.19
-75.62
-79.19
-84.54
-93.14
-105.92
-122.78
-142.13
-160.69
-173.72
-176.1
-163.98
-136.3
-95.61
-47.49
1.11
44.0
77.31
99.92
112.68
117.33
115.47
108.32
97.03
83.2
68.98
56.77
48.66
45.81
48.25
54.95
64.27
74.42
83.86
91.44
96.46
98.64
97.96
94.62
88.99
81.49
72.53
62.51
51.82
40.83
30.0
19.76
10.51
2.42
-4.67
-11.2
-17.86
-25.21
-33.46
-42.32
-51.14
-59.1
-65.59
-70.51
-74.32
-78.05
-83.07
-90.77
-102.27
-117.86
-136.52
-155.51
-170.49
-176.41
-168.96
-146.18
-109.5
-63.6
-15.12
29.31
64.86
89.37
103.17
107.93
105.61
97.76
85.56
70.38
54.11
39.18
28.05
22.38
22.55
27.53
35.43
44.29
52.73
60.19
66.6
71.89
75.49
76.42
73.62
66.61
55.94
43.14
30.27
19.11
10.53
4.24
-0.96
-6.56
-13.6
-22.32
-32.01
-41.37
-49.12
-54.55
-57.88
-60.27
-63.49
-69.43
-79.42
-93.63
-110.64
-127.37
-139.51
-142.57
-133.22
-110.45
-76.2
-34.97
7.46
45.58
75.6
95.96
107.0
110.08
106.7
98.1
85.37
69.9
53.69
39.23
28.96
24.47
26.01
32.39
41.53
51.15
59.55
65.92
70.23
72.72
73.4
71.84
67.32
59.37
48.18
34.87
21.15
8.73
-1.31
-9.01
-15.35
-21.87
-29.91
-40.01
-51.7
-63.67
-74.3
-82.4
-87.65
-90.84
-93.65
-98.16
-106.28
-119.03
-136.03
-155.04
-172.02
-181.85
-179.7
-162.58
-130.69
-87.65
-39.49
7.08
46.63
76.23
95.49
105.69
108.62
105.79
98.22
86.97
73.52
60.01
48.86
42.18
41.08
45.31
53.47
63.42
73.06
80.85
86.03
88.59
88.88
87.25
83.8
78.37
70.73
60.88
49.25
36.73
24.41
13.31
4.06
-3.27
-9.18
-14.56
-20.35
-27.25
-35.39
-44.31
-53.13
-60.89
-66.99
-71.54
-75.33
-79.69
-86.16
-96.03
-110.0
-127.66
-147.14
-164.8
-175.77
-175.06
-159.24
-127.98
-84.58
-35.21
12.96
53.89
84.16
103.2
112.39
113.79
109.12
99.63
86.46
71.22
56.2
43.99
36.75
35.5
39.85
48.21
58.39
68.33
76.57
82.49
86.01
87.32
86.58
83.75
78.7
71.33
61.77
50.58
38.61
26.88
16.28
7.34
0.05
-6.14
-12.12
-18.73
-26.47
-35.23
-44.33
-52.78
-59.7
-64.68
-68.05
-70.8
-74.35
-80.23
-89.6
-102.89
-119.27
-136.45
-150.67
-157.38
-152.47
-133.74
-101.96
-60.87
-16.2
26.08
61.3
87.04
102.98
110.11
109.74
103.13
91.46
76.27
59.7
44.37
32.84
26.98
27.37
33.23
42.71
53.49
63.46
71.3
76.55
79.44
80.35
79.42
76.33
70.49
61.46
49.47
35.58
21.46
8.83
-1.2
-8.58
-14.3
-19.93
-26.91
-35.85
-46.35
-57.14
-66.73
-74.02
-78.8
-81.82
-84.58
-88.88
-96.43
-108.37
-124.83
-144.35
-163.66
-177.96
-182.02
-171.79
-146.01
-106.98
-60.08
-12.1
30.8
64.59
87.87
101.35
106.7
105.63
99.53
89.64
77.41
64.74
53.8
46.59
44.34
47.24
54.37
64.05
74.35
83.58
90.63
94.98
96.56
95.54
92.08
86.35
78.56
69.06
58.38
47.14
35.96
25.37
15.7
7.08
-0.47
-7.07
-13.02
-18.74
-24.77
-31.55
-39.25
-47.6
-55.99
-63.64
-69.98
-75.01
-79.3
-83.99
-90.44
-99.89
-113.14
-130.05
-149.04
-166.81
-178.65
-179.46
-165.43
-135.7
-93.12
-43.69
5.28
47.44
79.04
99.35
109.84
112.74
110.0
102.87
92.33
79.63
66.64
55.59
48.47
46.4
49.36
56.28
65.54
75.49
84.76
92.4
97.78
100.5
100.27
97.02
90.96
82.64
72.87
62.57
52.55
43.27
34.79
26.81
18.87
10.66
2.21
-6.02
-13.4
-19.5
-24.42
-28.85
-33.81
-40.18
-48.15
-57.15
-66.08
-73.9
-80.17
-85.35
-90.73
-98.05
-108.9
-124.02
-142.63
-162.08
-177.96
-185.02
-178.62
-156.53
-119.96
-73.58
-24.17
21.43
58.21
84.05
99.31
105.79
105.4
99.53
89.04
74.92
58.83
43.22
30.85
24.0
23.65
29.25
38.99
50.49
61.61
70.94
77.89
82.38
84.48
84.19
81.44
76.28
68.98
60.03
50.03
39.61
29.32
19.69
11.11
3.75
-2.58
-8.46
-14.66
-21.77
-29.87
-38.48
-46.71
-53.75
-59.2
-63.32
-66.92
-71.13
-77.14
-86.02
-98.46
-114.34
-132.22
-148.99
-160.12
-160.79
-147.45
-119.42
-79.56
-33.5
12.04
51.34
81.0
100.21
109.95
111.9
107.58
98.25
85.22
70.16
55.19
42.57
34.15
30.93
32.93
39.27
48.48
58.85
68.77
76.97
82.67
85.53
85.58
83.08
78.35
71.66
63.33
53.67
43.05
31.97
20.92
10.45
1.0
-7.17
-14.13
-20.31
-26.42
-33.24
-41.22
-50.26
-59.66
-68.39
-75.53
-80.75
-84.56
-88.25
-93.45
-101.76
-114.16
-130.65
-149.82
-168.72
-182.98
-187.64
-178.58
-154.0
-115.42
-67.6
-17.23
29.01
66.26
92.34
107.54
113.59
112.52
105.99
95.34
81.92
67.56
54.49
44.91
40.42
41.53
47.59
57.0
67.84
78.34
87.17
93.6
97.25
98.01
95.92
91.12
83.89
74.62
63.76
51.83
39.39
27.11
15.67
5.67
-2.61
-9.36
-15.18
-20.91
-27.32
-34.7
-42.79
-50.89
-58.18
-64.13
-68.73
-72.46
-76.27
-81.34
-88.84
-99.87
-114.95
-133.45
-153.13
-169.98
-178.91
-175.2
-156.22
-122.65
-78.59
-30.39
15.27
53.21
80.75
97.62
105.04
104.76
98.29
86.94
72.12
55.76
40.27
28.18
21.48
20.96
26.03
34.91
45.33
55.23
63.39
69.5
73.79
76.49
77.42
75.9
71.11
62.67
51.02
37.52
24.06
12.37
3.43
-2.91
-7.71
-12.46
-18.39
-25.93
-34.64
-43.4
-50.99
-56.58
-60.09
-62.26
-64.42
-68.19
-75.07
-86.05
-101.08
-118.62
-135.51
-147.38
-149.67
-139.03
-114.63
-78.68
-35.95
7.59
46.49
77.0
97.62
108.68
111.51
107.59
98.26
84.81
68.8
52.39
38.13
28.46
24.99
27.9
35.92
46.74
57.89
67.43
74.42
78.81
80.97
81.15
79.14
74.42
66.54
55.58
42.36
28.37
15.18
3.95
-5.03
-12.37
-19.23
-26.82
-35.85
-46.25
-57.23
-67.56
-76.08
-82.15
-85.99
-88.72
-92.03
-97.79
-107.49
-121.8
-140.11
-160.16
-178.11
-188.93
-187.67
-170.99
-138.55
-93.69
-42.67
7.19
49.72
81.43
101.86
112.62
115.95
113.64
106.69
95.89
82.47
68.38
56.07
47.85
45.06
47.78
54.91
64.6
74.9
84.19
91.43
96.2
98.44
98.22
95.57
90.4
82.71
72.68
60.89
48.21
35.65
24.12
14.2
5.9
-1.21
-7.98
-15.31
-23.81
-33.53
-43.89
-53.8
-62.21
-68.45
-72.63
-75.62
-78.79
-83.74
-91.97
-104.49
-121.33
-141.01
-160.25
-174.2
-177.63
-166.49
-139.62
-99.42
-51.42
-2.58
40.72
74.33
96.91
109.4
113.87
112.36
106.42
97.08
85.41
72.84
61.3
52.82
48.9
50.03
55.54
63.86
73.1
81.66
88.53
93.31
95.92
96.24
94.09
89.25
81.76
72.04
60.91
49.3
38.04
27.67
18.35
10.08
2.76
-3.71
-9.51
-14.99
-20.6
-26.82
-33.77
-41.15
-48.37
-54.77
-60.07
-64.52
-68.9
-74.24
-81.72
-92.32
-106.68
-124.6
-144.47
-162.92
-175.13
-176.03
-162.07
-132.83
-91.52
-44.21
2.2
42.05
72.17
92.0
102.57
105.43
101.83
92.81
79.6
64.06
48.71
36.26
28.94
27.85
32.62
41.64
52.6
63.2
71.87
78.01
81.81
83.71
83.87
81.91
77.1
68.92
57.54
44.1
30.41
18.27
8.72
1.64
-4.14
-10.22
-17.86
-27.35
-37.96
-48.3
-56.97
-63.25
-67.28
-70.06
-73.13
-78.07
-86.26
-98.42
-114.14
-131.56
-147.21
-156.54
-155.16
-140.24
-111.79
-72.91
-28.99
13.91
50.73
78.59
96.88
106.53
109.05
105.82
97.89
86.31
72.52
58.48
46.51
38.66
36.16
39.08
46.34
56.04
66.1
74.73
80.85
84.12
84.79
83.3
79.96
74.86
67.86
58.89
48.16
36.27
24.13
12.7
2.74
-5.46
-12.16
-18.06
-24.04
-30.79
-38.6
-47.15
-55.66
-63.25
-69.33
-73.91
-77.72
-81.99
-88.16
-97.5
-110.82
-128.07
-147.92
-167.45
-182.27
-187.33
-178.41
-153.75
-115.08
-67.47
-17.89
26.94
62.39
86.78
100.9
106.76
106.33
100.93
91.43
78.88
65.06
52.45
43.57
40.18
42.6
49.69
59.44
69.67
78.78
85.95
90.96
93.78
94.28
92.26
87.62
80.61
71.74
61.71
51.1
40.29
29.61
19.39
10.05
1.87
-5.2
-11.71
-18.53
-26.41
-35.57
-45.53
-55.23
-63.6
-69.98
-74.46
-77.85
-81.44
-86.76
-95.21
-107.8
-124.59
-144.23
-163.52
-177.74
-181.67
-171.3
-145.41
-106.39
-59.69
-12.16
30.01
62.9
85.26
97.84
102.32
100.33
93.13
81.88
68.13
53.92
41.59
33.21
30.05
32.18
38.62
47.64
57.33
66.12
73.11
78.05
81.02
82.03
80.74
76.54
68.95
58.09
45.04
31.6
19.61
10.27
3.55
-1.72
-7.24
-14.42
-23.62
-34.08
-44.31
-52.77
-58.58
-61.92
-63.92
-66.27
-70.82
-79.03
-91.58
-107.9
-125.84
-141.67
-150.69
-148.59
-132.83
-103.9
-65.33
-22.74
17.96
52.2
77.66
94.04
102.24
103.41
98.5
88.42
74.46
58.66
43.63
31.99
25.66
25.24
30.03
38.28
47.86
56.97
64.42
69.72
72.73
73.36
71.34
66.33
58.21
47.4
34.98
22.38
11.0
1.54
-6.22
-13.31
-21.06
-30.48
-41.7
-53.87
-65.52
-75.16
-82.0
-86.26
-89.26
-93.02
-99.75
-111.08
-127.45
-147.54
-168.02
-183.97
-189.99
-181.78
-157.75
-119.88
-73.28
-24.76
19.3
54.56
79.47
94.73
102.14
103.48
99.99
92.52
82.11
70.41
59.61
51.97
48.96
50.81
56.46
64.08
71.82
78.44
83.46
87.0
89.18
89.73
87.92
82.89
74.2
62.24
48.27
34.15
21.6
11.64
4.18
-1.86
-8.08
-15.81
-25.5
-36.54
-47.47
-56.74
-63.41
-67.66
-70.82
-74.82
-81.65
-92.72
-108.38
-127.61
-147.86
-165.09
-174.47
-171.5
-153.56
-121.17
-78.14
-30.75
14.23
51.55
78.63
95.5
103.8
105.43
101.74
93.64
82.14
68.89
56.24
46.68
41.99
42.61
47.59
55.12
63.26
70.67
76.72
81.24
84.19
85.25
83.75
79.04
70.85
59.64
46.62
33.42
21.51
11.67
3.72
-3.34
-10.77
-19.47
-29.41
-39.7
-49.01
-56.25
-61.17
-64.59
-68.18
-73.8
-83.0
-96.31
-112.94
-130.61
-145.67
-153.77
-150.94
-134.85
-105.76
-66.85
-23.42
18.58
54.21
80.64
97.32
105.33
106.31
101.73
92.68
80.3
66.13
52.39
41.6
35.82
35.95
41.42
50.46
60.75
70.22
77.53
82.01
83.46
81.76
76.83
68.72
57.88
45.27
32.16
19.72
8.58
-1.4
-10.91
-20.74
-31.21
-42.01
-52.35
-61.36
-68.63
-74.51
-80.09
-86.94
-96.6
-110.05
-127.16
-146.1
-163.3
-173.92
-173.16
-157.9
-128.08
-87.08
-40.76
4.34
43.02
72.6
92.83
104.98
110.6
110.8
106.27
97.81
86.88
75.63
66.54
61.57
61.53
65.83
72.78
80.28
86.61
90.88
93.08
93.67
93.04
91.06
87.08
80.32
70.4
57.81
43.9
30.49
19.12
10.39
3.74
-2.29
-9.4
-18.67
-30.07
-42.42
-53.96
-63.17
-69.44
-73.34
-76.44
-80.76
-88.2
-99.98
-116.3
-135.96
-156.16
-172.65
-180.41
-174.99
-154.12
-118.82
-73.48
-24.63
20.99
58.4
85.35
102.12
110.55
112.7
110.15
103.89
94.82
84.16
73.67
65.26
60.5
60.11
63.67
69.89
76.99
83.33
87.8
90.0
90.14
88.56
85.55
81.12
75.05
67.21
57.72
47.13
36.18
25.72
16.34
8.3
1.48
-4.51
-10.16
-16.02
-22.5
-29.81
-37.87
-46.22
-54.25
-61.29
-67.02
-71.62
-75.88
-81.02
-88.47
-99.45
-114.52
-133.02
-152.69
-169.55
-178.62
-175.25
-156.79
-123.84
-80.49
-33.13
11.5
48.29
74.88
91.4
99.45
100.82
96.74
88.07
75.85
61.94
48.98
39.77
36.35
39.21
47.1
57.59
67.97
76.14
81.19
83.3
83.22
81.61
78.61
73.86
66.77
57.08
45.21
32.27
19.77
9.06
0.81
-5.3
-10.37
-15.83
-22.71
-31.24
-40.67
-49.67
-57.01
-62.15
-65.5
-68.33
-72.29
-78.97
-89.45
-104.03
-121.95
-141.04
-157.66
-167.18
-165.03
-148.31
-117.12
-74.99
-28.0
17.09
54.87
82.59
100.17
109.23
111.7
108.99
101.89
91.17
78.2
65.13
54.5
48.42
47.81
52.17
59.87
68.75
76.91
83.12
86.88
88.23
87.39
84.56
79.83
73.26
65.05
55.56
45.25
34.66
24.3
14.58
5.82
-1.86
-8.56
-14.64
-20.66
-27.19
-34.61
-42.86
-51.47
-59.73
-66.96
-72.8
-77.37
-81.28
-85.6
-91.56
-100.45
-113.23
-129.9
-148.96
-167.01
-179.08
-179.9
-165.62
-135.48
-92.49
-42.68
6.73
49.52
81.95
103.16
114.45
117.96
115.68
109.1
99.39
87.84
76.09
65.95
59.02
56.19
57.4
61.81
68.1
74.94
81.29
86.47
90.09
91.79
91.2
87.94
81.88
73.32
63.02
52.03
41.3
31.38
22.27
13.63
5.04
-3.6
-11.97
-19.56
-25.92
-31.05
-35.45
-39.91
-45.22
-51.7
-59.08
-66.63
-73.54
-79.19
-83.56
-87.28
-91.55
-97.97
-108.03
-122.5
-140.61
-159.55
-174.59
-180.15
-171.61
-147.09
-108.59
-61.59
-13.4
29.23
61.88
83.25
94.48
97.78
95.15
87.87
76.73
62.77
47.71
33.95
23.97
19.57
21.19
27.95
37.96
49.06
59.45
68.06
74.55
78.95
81.33
81.49
79.01
73.48
64.86
53.69
41.11
28.58
17.42
8.37
1.41
-4.24
-9.73
-16.25
-24.49
-34.41
-45.2
-55.59
-64.27
-70.46
-74.27
-76.71
-79.44
-84.26
-92.67
-105.37
-121.97
-140.65
-158.06
-169.69
-170.78
-157.72
-129.53
-88.62
-40.45
8.04
50.45
82.67
103.4
113.75
115.89
111.93
103.42
91.47
77.23
62.35
48.88
38.86
33.73
33.92
38.78
46.88
56.5
66.04
74.34
80.64
84.53
85.76
84.21
79.94
73.25
64.7
55.02
44.87
34.76
24.93
15.47
6.36
-2.38
-10.75
-18.79
-26.61
-34.41
-42.41
-50.64
-58.99
-67.12
-74.6
-81.08
-86.42
-90.83
-94.97
-99.87
-106.9
-117.28
-131.51
-148.52
-165.28
-176.91
-177.99
-164.23
-134.33
-90.81
-39.48
12.26
57.71
92.53
115.37
127.23
130.3
126.77
118.34
106.25
91.72
76.35
62.06
50.84
44.19
42.73
45.98
52.62
60.88
69.15
76.27
81.66
85.13
86.57
85.79
82.6
76.92
68.99
59.36
48.69
37.59
26.47
15.63
5.35
-4.07
-12.41
-19.75
-26.57
-33.62
-41.57
-50.62
-60.29
-69.61
-77.57
-83.58
-87.78
-90.98
-94.51
-99.86
-108.41
-120.97
-137.21
-155.15
-171.02
-179.76
-176.4
-157.86
-124.32
-79.54
-29.93
17.51
57.14
85.89
103.35
110.79
110.04
102.76
90.39
74.43
56.85
40.02
26.18
16.9
12.74
13.25
17.39
23.96
31.95
40.63
49.38
57.57
64.42
69.01
70.46
68.13
61.96
52.56
41.22
29.53
18.82
9.65
1.52
-6.77
-16.45
-28.04
-40.96
-53.68
-64.49
-72.31
-77.22
-80.5
-84.19
-90.34
-100.37
-114.53
-131.48
-148.3
-160.65
-163.73
-153.69
-128.99
-91.4
-45.71
1.59
44.31
78.18
101.56
115.01
120.09
118.36
110.8
98.22
81.82
63.57
46.07
31.86
22.65
18.89
19.86
24.25
30.73
38.38
46.63
54.94
62.43
67.91
70.06
67.92
61.31
50.98
38.42
25.47
13.69
3.83
-4.31
-11.78
-20.03
-30.13
-42.31
-55.71
-68.73
-79.74
-87.84
-93.29
-97.54
-102.77
-111.14
-123.99
-141.15
-160.55
-178.24
-189.08
-188.01
-171.57
-139.26
-94.04
-41.73
10.61
56.64
92.18
115.76
128.08
130.98
126.47
116.3
102.06
85.48
68.7
54.01
43.35
37.82
37.46
41.32
48.0
56.07
64.4
72.13
78.49
82.69
83.85
81.36
75.07
65.59
54.11
42.01
30.37
19.57
9.22
-1.52
-13.39
-26.58
-40.49
-53.94
-65.65
-74.86
-81.7
-87.3
-93.48
-102.23
-114.93
-131.59
-150.33
-167.33
-177.52
-175.93
-159.34
-127.6
-84.08
-34.78
13.38
54.47
85.02
104.17
112.98
113.35
107.03
95.37
79.61
61.32
42.67
26.31
14.75
9.71
11.48
18.91
29.7
41.19
51.12
58.18
62.14
63.45
62.74
60.29
55.84
48.81
38.76
25.82
10.85
-4.69
-19.23
-31.62
-41.53
-49.41
-56.35
-63.61
-72.32
-83.29
-96.74
-112.14
-127.77
-140.63
-146.79
-142.3
-124.62
-93.82
-52.96
-7.4
36.75
74.33
102.33
119.94
127.92
127.65
120.43
107.41
89.91
69.85
49.85
32.92
21.68
17.55
20.3
28.08
38.08
47.49
54.37
58.03
58.82
57.5
54.47
49.46
41.71
30.57
16.06
-0.8
-18.27
-34.5
-48.19
-59.1
-68.01
-76.44
-86.07
-98.28
-113.76
-132.18
-151.91
-169.92
-182.09
-184.01
-172.26
-145.61
-105.82
-57.5
-6.89
39.76
77.79
104.91
121.08
127.68
126.56
119.45
107.84
93.33
77.87
63.78
53.37
48.37
49.35
55.57
65.16
75.76
85.08
91.49
94.25
93.45
89.67
83.59
75.74
66.35
55.43
42.99
29.17
14.37
-0.76
-15.43
-28.92
-40.73
-50.79
-59.42
-67.4
-75.75
-85.62
-98.05
-113.5
-131.41
-149.62
-164.41
-171.07
-165.18
-144.32
-109.22
-63.98
-14.93
31.24
69.35
96.78
113.38
120.62
120.46
114.71
104.86
92.44
79.22
67.23
58.36
53.93
54.35
59.05
66.71
75.61
84.03
90.6
94.39
94.98
92.3
86.54
78.06
67.42
55.36
42.73
30.26
18.41
7.23
-3.51
-14.07
-24.49
-34.5
-43.58
-51.32
-57.71
-63.29
-69.09
-76.48
-86.72
-100.49
-117.29
-134.95
-149.74
-156.93
-152.16
-133.03
-100.22
-57.63
-11.39
31.99
67.49
92.58
107.27
113.07
111.92
105.35
94.44
80.34
64.82
50.38
39.82
35.35
37.69
45.8
57.19
68.86
78.19
83.61
84.7
81.85
75.81
67.32
57.04
45.62
33.62
21.53
9.58
-2.23
-14.02
-25.82
-37.38
-48.22
-57.83
-66.04
-73.08
-79.71
-87.01
-96.16
-108.13
-123.28
-140.82
-158.43
-172.17
-177.22
-169.32
-146.44
-109.89
-64.34
-16.36
27.61
63.17
88.77
105.24
114.5
118.22
117.28
112.01
103.01
91.79
80.75
72.6
69.33
71.51
78.11
86.98
95.68
102.29
105.86
106.44
104.64
101.12
96.24
89.98
82.02
72.17
60.56
47.83
34.97
23.09
13.02
5.02
-1.34
-7.06
-13.27
-20.84
-30.0
-40.25
-50.6
-59.99
-67.78
-74.02
-79.45
-85.25
-92.71
-103.01
-116.93
-134.58
-154.81
-174.84
-190.24
-195.72
-186.75
-161.39
-121.44
-72.24
-21.09
25.05
61.63
87.17
102.78
110.72
113.04
110.98
105.22
96.55
86.34
76.62
69.46
66.35
67.67
72.64
79.68
86.97
93.0
96.87
98.33
97.56
94.93
90.71
85.0
77.72
68.85
58.57
47.39
36.09
25.5
16.28
8.66
2.45
-2.95
-8.29
-14.21
-21.12
-29.12
-37.96
-47.15
-56.01
-63.97
-70.72
-76.49
-82.11
-88.92
-98.39
-111.62
-128.72
-148.25
-167.03
-180.51
-183.74
-172.91
-146.83
-107.66
-60.58
-12.34
30.69
64.26
86.79
99.02
102.86
100.22
92.66
81.4
67.98
54.47
43.37
36.89
36.19
40.92
49.32
58.97
67.67
74.1
78.0
79.72
79.61
77.5
72.75
64.73
53.41
39.78
25.59
12.79
2.59
-4.91
-10.8
-16.69
-23.96
-33.06
-43.37
-53.58
-62.34
-68.88
-73.37
-76.88
-81.06
-87.68
-98.1
-112.77
-130.65
-148.93
-163.23
-168.51
-160.64
-137.96
-102.24
