0
44.73
48.13
50.93
53.2
54.9
56.03
56.57
56.54
56.01
55.14
54.06
52.95
51.89
50.88
49.7
47.99
45.36
41.57
36.65
30.97
25.08
19.57
14.77
10.68
6.95
3.07
-1.42
-6.77
-12.9
-19.43
-25.93
-31.99
-37.45
-42.42
-47.23
-52.31
-58.18
-65.28
-73.9
-83.93
-94.62
-104.4
-111.11
-112.52
-107.22
-95.17
-77.97
-58.24
-38.82
-21.79
-8.02
2.76
11.45
19.04
26.17
33.09
39.7
45.79
51.14
55.67
59.32
62.15
64.2
65.49
66.09
66.08
65.69
65.19
64.78
64.48
64.04
63.05
61.12
58.12
54.19
49.71
45.08
40.57
36.22
31.91
27.49
22.88
18.1
13.29
8.57
4.02
-0.45
-5.05
-10.03
-15.55
-21.58
-27.89
-34.19
-40.19
-45.81
-51.21
-56.74
-62.94
-70.34
-79.27
-89.5
-99.99
-108.86
-113.77
-112.68
-104.71
-90.52
-72.24
-52.67
-34.29
-18.57
-5.84
4.45
13.05
20.57
27.23
33.08
38.1
42.35
46.0
49.22
52.08
54.6
56.62
57.95
58.45
58.1
57.1
55.81
54.6
53.71
53.04
52.22
50.72
48.11
44.23
39.27
33.69
28.1
23.01
18.74
15.24
12.18
9.0
5.17
0.42
-5.18
-11.18
-17.0
-22.19
-26.63
-30.62
-34.72
-39.58
-45.71
-53.38
-62.4
-72.1
-81.19
-87.92
-90.49
-87.58
-78.92
-65.49
-49.25
-32.46
-16.98
-3.8
6.94
15.66
22.82
28.68
33.3
36.67
38.97
40.59
42.01
43.57
45.36
47.14
48.56
49.35
49.51
49.27
48.96
48.76
48.54
47.89
46.3
43.42
39.21
34.01
28.38
22.9
17.99
13.71
9.77
5.69
1.01
-4.51
-10.71
-17.09
-23.07
-28.22
-32.48
-36.23
-40.14
-45.01
-51.54
-60.03
-70.1
-80.54
-89.36
-94.22
-93.26
-85.78
-72.63
-55.91
-38.25
-21.87
-8.01
3.14
12.12
19.65
26.22
32.03
37.05
41.22
44.56
47.18
49.26
50.95
52.35
53.44
54.11
54.26
53.89
53.14
52.22
51.3
50.38
49.27
47.67
45.33
42.14
38.16
33.58
28.66
23.67
18.88
14.5
10.57
6.96
3.3
-0.83
-5.75
-11.5
-17.84
-24.29
-30.4
-35.91
-40.82
-45.44
-50.25
-55.83
-62.67
-71.12
-81.13
-92.06
-102.55
-110.65
-114.26
-111.74
-102.64
-87.91
-69.72
-50.75
-33.29
-18.67
-6.99
2.46
10.69
18.41
25.88
32.93
39.3
44.82
49.52
53.53
56.89
59.56
61.41
62.42
62.72
62.63
62.47
62.41
62.35
61.97
60.86
58.79
55.71
51.89
47.72
43.55
39.57
35.76
31.92
27.86
23.48
18.82
14.09
9.45
5.0
0.64
-3.83
-8.62
-13.86
-19.5
-25.36
-31.16
-36.68
-41.84
-46.84
-52.13
-58.39
-66.23
-75.87
-86.77
-97.47
-105.81
-109.5
-106.91
-97.71
-83.0
-65.0
-46.32
-29.13
-14.72
-3.28
5.74
13.23
19.95
26.28
32.26
37.68
42.33
46.11
49.04
51.25
52.88
54.02
54.71
54.99
54.92
54.62
54.13
53.45
52.49
51.15
49.38
47.14
44.44
41.23
37.46
33.14
28.43
23.65
19.17
15.24
11.9
8.89
5.73
1.99
-2.61
-7.99
-13.8
-19.55
-24.8
-29.37
-33.41
-37.33
-41.69
-46.99
-53.65
-61.79
-71.08
-80.54
-88.56
-93.16
-92.64
-86.25
-74.56
-59.32
-42.82
-27.13
-13.48
-2.19
7.03
14.66
21.08
26.4
30.68
33.94
36.31
37.96
39.12
39.99
40.74
41.46
42.11
42.61
42.89
42.98
42.97
42.94
42.79
42.2
40.77
38.23
34.6
30.25
25.68
21.3
17.23
13.26
9.03
4.23
-1.14
-6.82
-12.36
-17.39
-21.8
-25.83
-30.01
-35.01
-41.4
-49.41
-58.63
-67.94
-75.61
-79.69
-78.67
-72.0
-60.35
-45.45
-29.52
-14.51
-1.64
8.74
16.92
23.43
28.71
33.02
36.46
39.16
41.3
43.06
44.6
45.98
47.13
47.91
48.19
47.92
47.17
46.16
45.19
44.43
43.88
43.18
41.77
39.1
34.91
29.43
23.35
17.48
12.46
8.4
4.84
1.09
-3.49
-9.17
-15.66
-22.37
-28.6
-33.92
-38.27
-42.06
-45.97
-50.81
-57.32
-65.91
-76.46
-88.04
-98.89
-106.72
-109.32
-105.32
-94.75
-79.16
-61.05
-43.1
-27.23
-14.21
-3.75
5.02
12.98
20.59
27.91
34.71
40.73
45.81
49.91
53.05
55.33
56.85
57.73
58.04
57.87
57.29
56.39
55.29
54.13
52.98
51.76
50.26
48.16
45.21
41.34
36.73
31.72
26.7
21.94
17.5
13.22
8.87
4.2
-0.98
-6.67
-12.73
-18.85
-24.75
-30.19
-35.2
-40.03
-45.1
-50.98
-58.13
-66.8
-76.77
-87.22
-96.72
-103.39
-105.4
-101.57
-91.81
-77.25
-59.91
-42.1
-25.71
-11.82
-0.62
8.42
16.09
23.09
29.87
36.5
42.78
48.38
53.01
56.53
58.95
60.41
61.08
61.17
60.88
60.39
59.86
59.33
58.78
58.02
56.87
55.16
52.84
49.91
46.43
42.45
38.03
33.29
28.44
23.68
19.24
15.2
11.49
7.91
4.23
0.19
-4.33
-9.34
-14.74
-20.33
-25.87
-31.2
-36.23
-41.06
-45.98
-51.4
-57.82
-65.6
-74.73
-84.55
-93.64
-100.05
-101.82
-97.78
-87.94
-73.62
-56.98
-40.24
-25.05
-12.17
-1.57
7.18
14.54
20.81
26.16
30.65
34.37
37.44
39.94
41.97
43.58
44.78
45.61
46.07
46.17
46.02
45.78
45.61
45.57
45.45
44.84
43.23
40.29
36.08
31.11
26.12
21.79
18.41
15.78
13.25
10.13
5.98
0.8
-4.93
-10.53
-15.43
-19.41
-22.73
-25.97
-29.81
-34.86
-41.46
-49.62
-58.85
-68.07
-75.64
-79.71
-78.71
-72.04
-60.35
-45.45
-29.62
-14.93
-2.56
7.22
14.89
21.07
26.23
30.56
34.09
36.88
39.09
40.96
42.7
44.41
46.03
47.34
48.1
48.16
47.54
46.51
45.47
44.72
44.3
43.9
42.95
40.88
37.39
32.63
27.14
21.62
16.68
12.56
9.09
5.81
2.21
-2.1
-7.17
-12.82
-18.61
-24.17
-29.23
-33.85
-38.31
-43.07
-48.65
-55.49
-63.84
-73.54
-83.81
-93.21
-99.78
-101.67
-97.7
-87.94
-73.77
-57.41
-41.17
-26.68
-14.55
-4.47
4.26
12.24
19.73
26.65
32.79
37.97
42.14
45.42
47.98
49.99
51.56
52.66
53.26
53.34
53.0
52.49
52.01
51.72
51.51
51.08
50.08
48.21
45.38
41.65
37.21
32.3
27.21
22.24
17.66
13.6
9.99
6.5
2.7
-1.79
-7.13
-13.27
-19.9
-26.65
-33.12
-39.03
-44.31
-49.13
-53.92
-59.33
-65.99
-74.23
-83.85
-93.85
-102.5
-107.73
-107.73
-101.59
-89.73
-73.77
-56.04
-38.84
-23.74
-11.3
-1.19
7.34
15.03
22.29
29.25
35.81
41.81
47.07
51.5
55.01
57.56
59.18
59.99
60.15
59.9
59.46
59.08
58.86
58.73
58.41
57.48
55.6
52.66
48.91
44.86
40.98
37.5
34.28
30.9
26.95
22.27
17.07
11.76
6.79
2.35
-1.69
-5.71
-10.15
-15.27
-21.08
-27.25
-33.34
-38.98
-44.02
-48.69
-53.51
-59.11
-66.06
-74.56
-84.26
-94.08
-102.33
-107.04
-106.58
-100.18
-88.33
-72.68
-55.45
-38.8
-24.1
-11.82
-1.68
6.88
14.35
20.94
26.63
31.41
35.32
38.54
41.23
43.55
45.57
47.27
48.58
49.45
49.82
49.74
49.31
48.68
47.95
47.09
45.91
44.12
41.49
37.95
33.72
29.2
24.81
20.8
17.11
13.43
9.4
4.82
-0.26
-5.5
-10.54
-15.12
-19.23
-23.09
-27.04
-31.46
-36.69
-43.03
-50.63
-59.26
-68.18
-75.99
-81.01
-81.66
-77.1
-67.54
-54.23
-39.03
-23.83
-10.04
1.64
11.15
18.77
24.88
29.76
33.55
36.35
38.28
39.53
40.33
40.89
41.33
41.7
42.0
42.23
42.5
42.9
43.41
43.84
43.8
42.85
40.69
37.3
33.03
28.36
23.76
19.41
15.22
10.87
6.07
0.79
-4.71
-10.01
-14.74
-18.87
-22.69
-26.73
-31.58
-37.71
-45.35
-54.36
-64.09
-73.3
-80.27
-83.2
-80.79
-72.85
-60.46
-45.61
-30.53
-16.88
-5.35
4.18
12.32
19.56
26.09
31.78
36.38
39.8
42.18
43.86
45.25
46.66
48.15
49.57
50.66
51.2
51.18
50.78
50.23
49.64
48.85
47.51
45.2
41.72
37.16
31.92
26.54
21.56
17.27
13.68
10.46
7.04
2.9
-2.31
-8.54
-15.34
-22.08
-28.2
-33.49
-38.14
-42.69
-47.81
-54.14
-62.08
-71.69
-82.5
-93.33
-102.35
-107.47
-106.94
-100.07
-87.59
-71.44
-54.13
-37.9
-24.05
-12.8
-3.54
4.6
12.36
20.05
27.61
34.71
41.01
46.23
50.29
53.27
55.36
56.81
57.79
58.43
58.79
58.9
58.82
58.54
58.04
57.23
56.0
54.25
51.89
48.92
45.33
41.19
36.55
31.56
26.43
21.38
16.67
12.39
8.48
4.64
0.43
-4.58
-10.59
-17.37
-24.45
-31.16
-37.04
-42.01
-46.38
-50.79
-55.93
-62.46
-70.76
-80.71
-91.43
-101.24
-107.91
-109.24
-103.95
-92.22
-75.82
-57.43
-39.7
-24.36
-11.91
-1.84
6.74
14.6
22.06
29.11
35.64
41.53
46.81
51.49
55.57
58.94
61.38
62.67
62.78
61.94
60.67
59.6
59.13
59.22
59.39
58.9
57.2
54.22
50.33
46.14
42.14
38.47
34.95
31.31
27.34
23.07
18.62
14.18
9.85
5.66
1.53
-2.68
-7.18
-12.16
-17.74
-23.8
-30.04
-36.02
-41.42
-46.15
-50.56
-55.32
-61.24
-68.92
-78.32
-88.54
-97.78
-103.82
-104.68
-99.36
-88.19
-72.78
-55.42
-38.35
-23.14
-10.44
-0.15
8.23
15.27
21.4
26.86
31.75
36.08
39.82
42.93
45.39
47.2
48.37
48.96
49.1
48.97
48.86
49.0
49.47
50.1
50.45
49.96
48.18
44.92
40.45
35.28
30.08
25.36
21.34
17.9
14.64
11.07
6.82
1.81
-3.71
-9.28
-14.44
-18.91
-22.76
-26.39
-30.38
-35.36
-41.79
-49.8
-58.99
-68.32
-76.24
-80.92
-80.9
-75.51
-65.25
-51.58
-36.47
-21.75
-8.61
2.5
11.7
19.34
25.73
31.04
35.31
38.59
40.97
42.63
43.84
44.85
45.84
46.89
47.88
48.64
49.01
48.97
48.67
48.3
47.9
47.27
46.04
43.8
40.38
35.94
30.95
25.93
21.3
17.17
13.37
9.55
5.35
0.52
-5.01
-11.08
-17.37
-23.45
-28.99
-33.84
-38.18
-42.46
-47.29
-53.3
-60.93
-70.22
-80.61
-90.82
-99.0
-103.13
-101.66
-94.12
-81.35
-65.31
-48.36
-32.45
-18.65
-7.06
2.81
11.57
19.57
26.83
33.25
38.73
43.31
47.09
50.13
52.43
53.97
54.8
55.13
55.21
55.33
55.63
56.07
56.43
56.37
55.62
54.02
51.6
48.58
45.2
41.65
37.98
34.12
29.94
25.43
20.69
16.0
11.58
7.54
3.76
-0.08
-4.38
-9.37
-15.04
-21.12
-27.21
-32.97
-38.2
-42.98
-47.62
-52.57
-58.34
-65.4
-74.05
-84.18
-95.05
-105.15
-112.43
-114.78
-110.82
-100.45
-85.06
-67.04
-48.99
-32.81
-19.29
-8.15
1.39
10.07
18.21
25.74
32.46
38.26
43.18
47.38
50.96
53.91
56.18
57.75
58.69
59.18
59.42
59.64
59.95
60.35
60.62
60.41
59.36
57.19
53.93
49.9
45.59
41.48
37.81
34.48
31.12
27.33
22.89
17.88
12.68
7.78
3.53
-0.03
-3.28
-6.82
-11.26
-16.85
-23.41
-30.35
-36.97
-42.85
-47.97
-52.73
-57.78
-63.76
-71.17
-80.19
-90.46
-100.85
-109.5
-114.13
-112.78
-104.57
-90.21
-71.89
-52.48
-34.55
-19.56
-7.72
1.67
9.57
16.72
23.38
29.52
34.97
39.69
43.72
47.16
50.15
52.68
54.68
56.04
56.74
56.9
56.84
56.89
57.24
57.73
57.91
57.2
55.29
52.22
48.44
44.51
40.84
37.51
34.28
30.8
26.85
22.45
17.87
13.45
9.45
5.91
2.65
-0.72
-4.56
-9.13
-14.42
-20.22
-26.21
-32.09
-37.66
-42.88
-47.81
-52.75
-58.17
-64.69
-72.8
-82.4
-92.41
-100.83
-105.22
-103.61
-95.34
-81.42
-64.14
-46.21
-29.79
-15.99
-4.85
4.21
11.82
18.31
23.78
28.16
31.53
34.15
36.41
38.67
41.1
43.58
45.8
47.42
48.25
48.37
48.1
47.81
47.72
47.76
47.57
46.65
44.65
41.42
37.17
32.41
27.7
23.53
20.06
17.05
14.0
10.36
5.85
0.56
-5.06
-10.54
-15.55
-20.1
-24.51
-29.17
-34.51
-40.89
-48.56
-57.47
-67.07
-76.06
-82.61
-84.84
-81.53
-72.72
-59.71
-44.6
-29.48
-15.77
-3.95
6.22
15.21
23.32
30.52
36.57
41.23
44.46
46.51
47.75
48.63
49.49
50.45
51.45
52.32
52.9
53.14
53.04
52.65
51.96
50.91
49.35
47.21
44.4
40.94
36.85
32.29
27.48
22.71
18.24
14.19
10.46
6.75
2.7
-1.96
-7.31
-13.18
-19.28
-25.26
-30.86
-35.93
-40.57
-45.1
-50.08
-56.17
-63.95
-73.55
-84.45
-95.31
-104.14
-108.72
-107.36
-99.45
-85.85
-68.66
-50.52
-33.74
-19.68
-8.46
0.64
8.57
16.06
23.34
30.3
36.71
42.41
47.38
51.63
55.12
57.73
59.37
60.08
60.04
59.56
58.94
58.39
57.93
57.41
56.57
55.17
53.07
50.3
47.02
43.47
39.82
36.15
32.43
28.57
24.5
20.27
16.06
12.01
8.23
4.57
0.79
-3.44
-8.31
-13.79
-19.66
-25.56
-31.19
-36.39
-41.27
-46.18
-51.7
-58.47
-66.94
-77.02
-87.79
-97.54
-104.05
-105.31
-100.28
-89.3
-74.02
-56.8
-39.97
-25.11
-12.84
-2.94
5.31
12.64
19.58
26.35
32.89
39.0
44.42
48.91
52.36
54.75
56.19
56.82
56.88
56.63
56.35
56.28
56.51
56.93
57.19
56.75
55.21
52.34
48.31
43.63
38.94
34.78
31.41
28.73
26.29
23.58
20.28
16.36
12.08
7.83
3.88
0.22
-3.44
-7.52
-12.31
-17.81
-23.7
-29.49
-34.75
-39.25
-43.06
-46.58
-50.44
-55.34
-61.85
-70.08
-79.41
-88.41
-95.04
-97.25
-93.75
-84.5
-70.79
-54.78
-38.73
-24.27
-12.09
-2.07
6.32
13.57
19.92
25.36
29.8
33.27
35.96
38.15
40.12
42.02
43.87
45.56
46.95
47.95
48.5
48.66
48.54
48.24
47.8
47.12
45.98
44.06
41.15
37.24
32.62
27.84
23.52
20.06
17.5
15.44
13.21
10.14
5.91
0.6
-5.29
-11.14
-16.4
-20.84
-24.64
-28.27
-32.34
-37.41
-43.93
-52.02
-61.35
-71.03
-79.55
-85.11
-86.05
-81.52
-71.82
-58.39
-43.36
-28.73
-15.86
-5.21
3.45
10.59
16.62
21.75
26.19
30.13
33.81
37.36
40.67
43.47
45.45
46.48
46.65
46.31
45.85
45.57
45.6
45.81
45.92
45.57
44.46
42.48
39.72
36.46
32.99
29.55
26.17
22.81
19.41
15.95
12.47
9.04
5.66
2.31
-1.06
-4.54
-8.23
-12.28
-16.81
-21.87
-27.29
-32.74
-37.85
-42.37
-46.39
-50.37
-55.0
-60.97
-68.67
-77.92
-87.73
-96.48
-102.13
-102.94
-97.97
-87.59
-73.35
-57.46
-42.11
-28.75
-17.91
-9.26
-2.07
4.41
10.67
16.92
23.08
28.93
34.25
38.85
42.71
45.88
48.44
50.39
51.6
52.02
51.72
51.08
50.57
50.6
51.19
51.94
52.2
51.32
49.06
45.63
41.63
37.75
34.49
31.95
29.83
27.56
24.63
20.76
16.08
11.06
6.27
2.11
-1.37
-4.5
-7.81
-11.72
-16.4
-21.7
-27.27
-32.73
-37.84
-42.6
-47.18
-51.96
-57.4
-63.91
-71.72
-80.57
-89.53
-97.06
-101.34
-100.86
-94.93
-84.06
-69.78
-54.17
-39.2
-26.17
-15.48
-6.79
0.61
7.39
13.89
20.14
25.99
31.27
35.91
39.9
43.24
45.8
47.5
48.31
48.43
48.22
48.13
48.42
49.09
49.82
50.09
49.44
47.64
44.78
41.24
37.59
34.36
31.8
29.85
28.08
25.92
22.91
18.95
14.34
9.66
5.42
1.87
-1.14
-4.08
-7.46
-11.6
-16.5
-21.84
-27.17
-32.1
-36.46
-40.38
-44.31
-48.87
-54.69
-62.11
-70.89
-80.06
-87.95
-92.66
-92.56
-86.98
-76.38
-62.31
-46.84
-31.85
-18.61
-7.53
1.55
9.04
15.24
20.25
24.09
26.84
28.81
30.48
32.34
34.66
37.38
40.13
42.41
43.86
44.43
44.36
44.03
43.77
43.65
43.44
42.75
41.22
38.68
35.26
31.29
27.21
23.39
19.92
16.67
13.24
9.21
4.38
-1.14
-6.91
-12.38
-17.12
-21.1
-24.66
-28.46
-33.22
-39.54
-47.63
-57.23
-67.47
-76.86
-83.59
-85.88
-82.68
-73.99
-61.0
-45.69
-30.23
-16.3
-4.75
4.42
11.73
17.81
23.16
28.01
32.38
36.2
39.41
42.03
44.12
45.76
46.98
47.75
48.04
47.89
47.46
47.01
46.79
46.84
47.02
46.94
46.16
44.32
41.28
37.15
32.29
27.15
22.17
17.68
13.76
10.29
6.93
3.26
-1.07
-6.19
-11.98
-18.13
-24.2
-29.87
-34.94
-39.51
-43.92
-48.72
-54.54
-61.95
-71.09
-81.42
-91.6
-99.66
-103.49
-101.53
-93.4
-80.06
-63.55
-46.34
-30.46
-17.08
-6.35
2.25
9.47
15.93
21.98
27.68
33.06
38.09
42.78
47.07
50.79
53.77
55.84
56.98
57.34
57.17
56.79
56.42
56.22
56.11
55.91
55.27
53.9
51.62
48.5
44.86
41.04
37.31
33.72
30.12
26.32
22.27
18.16
14.26
10.72
7.42
4.0
0.02
-4.79
-10.38
-16.38
-22.36
-28.0
-33.26
-38.37
-43.7
-49.65
-56.58
-64.67
-73.86
-83.54
-92.45
-98.82
-100.76
-96.91
-87.09
-72.45
-55.27
-38.13
-23.13
-11.23
-2.27
4.71
10.79
16.73
22.81
28.91
34.78
40.16
44.82
48.54
51.09
52.37
52.5
51.81
50.84
50.04
49.69
49.76
50.04
50.19
49.89
48.89
47.09
44.54
41.44
38.09
34.74
31.49
28.24
24.83
21.2
17.41
13.64
10.05
6.59
3.03
-0.96
-5.59
-10.82
-16.36
-21.79
-26.73
-30.96
-34.56
-37.88
-41.49
-46.06
-52.17
-60.03
-69.18
-78.4
-85.87
-89.66
-88.29
-81.34
-69.56
-54.73
-39.03
-24.41
-12.04
-2.21
5.5
11.78
17.22
22.07
26.34
29.94
32.86
35.25
37.32
39.25
41.04
42.55
43.6
44.14
44.29
44.22
44.18
44.27
44.44
44.45
43.93
42.52
40.0
36.36
31.96
27.33
23.05
19.44
16.44
13.64
10.5
6.63
2.02
-3.05
-8.17
-13.02
-17.53
-21.88
-26.36
-31.3
-36.97
-43.58
-51.29
-59.96
-69.03
-77.36
-83.31
-85.23
-82.01
-73.57
-61.05
-46.39
-31.7
-18.57
-7.69
1.15
8.62
15.36
21.7
27.57
32.68
36.79
39.89
42.19
44.06
45.8
47.53
49.17
50.5
51.33
51.57
51.29
50.6
49.63
48.36
46.73
44.62
41.95
38.78
35.27
31.62
28.01
24.51
21.1
17.65
14.12
10.44
6.66
2.8
-1.19
-5.43
-10.09
-15.21
-20.67
-26.2
-31.51
-36.44
-41.09
-45.76
-50.91
-57.01
-64.37
-73.03
-82.48
-91.55
-98.52
-101.51
-99.16
-91.13
-78.4
-62.92
-46.95
-32.33
-20.01
-10.02
-1.75
5.53
12.39
19.03
25.41
31.3
36.52
40.92
44.48
47.28
49.38
50.88
51.9
52.57
53.08
53.66
54.39
55.18
55.71
55.59
54.53
52.42
49.44
45.88
42.04
38.12
34.19
30.26
26.39
22.64
19.09
15.73
12.41
8.93
5.05
0.61
-4.4
-9.87
-15.6
-21.33
-26.88
-32.2
-37.4
-42.81
-48.83
-55.81
-63.94
-72.91
-81.86
-89.32
-93.58
-93.15
-87.38
-76.73
-62.77
-47.61
-33.24
-20.95
-11.03
-3.06
3.78
10.16
16.46
22.65
28.54
33.88
38.53
42.4
45.52
47.96
49.74
50.86
51.31
51.17
50.59
49.82
49.12
48.63
48.26
47.72
46.62
44.61
41.54
37.56
32.98
28.3
23.98
20.31
17.33
14.77
12.16
9.01
5.05
0.34
-4.75
-9.71
-14.19
-18.13
-21.75
-25.49
-29.71
-34.7
-40.63
-47.56
-55.36
-63.55
-71.11
-76.65
-78.65
-76.08
-68.81
-57.76
-44.58
-31.13
-18.87
-8.59
-0.37
6.18
11.62
16.42
20.78
24.76
28.27
31.26
33.74
35.82
37.62
39.15
40.33
41.05
41.26
41.08
40.76
40.52
40.46
40.39
39.96
38.79
36.62
33.46
29.57
25.43
21.51
18.14
15.31
12.66
9.67
5.87
1.15
-4.18
-9.51
-14.3
-18.29
-21.67
-24.95
-28.81
-33.82
-40.3
-48.13
-56.7
-64.85
-70.96
-73.51
-71.44
-64.68
-54.18
-41.55
-28.56
-16.58
-6.32
2.12
9.02
14.79
19.82
24.38
28.58
32.4
35.76
38.56
40.81
42.6
44.02
45.09
45.75
45.89
45.51
44.73
43.82
42.94
42.17
41.37
40.3
38.68
36.32
33.19
29.36
25.1
20.73
16.57
12.8
9.38
6.16
2.84
-0.8
-4.88
-9.4
-14.28
-19.39
-24.58
-29.71
-34.69
-39.52
-44.34
-49.52
-55.48
-62.57
-70.74
-79.33
-87.04
-92.16
-93.08
-88.89
-79.75
-66.92
-52.41
-38.26
-25.96
-16.0
-8.03
-1.25
5.14
11.53
17.91
23.99
29.42
33.99
37.68
40.57
42.8
44.5
45.72
46.51
46.9
46.99
46.88
46.65
46.34
45.87
45.08
43.83
42.02
39.73
37.18
34.62
32.22
29.91
27.49
24.71
21.42
17.68
13.68
9.71
5.94
2.39
-1.13
-4.91
-9.19
-14.09
-19.48
-25.09
-30.56
-35.68
-40.44
-45.14
-50.26
-56.34
-63.69
-72.08
-80.63
-87.83
-91.91
-91.45
-85.87
-75.76
-62.71
-48.74
-35.61
-24.34
-15.03
-7.18
-0.13
6.57
13.03
19.12
24.6
29.37
33.42
36.82
39.63
41.87
43.53
44.65
45.3
45.61
45.71
45.7
45.61
45.35
44.74
43.59
41.83
39.52
36.87
34.14
31.47
28.84
26.09
23.08
19.79
16.36
13.01
9.86
6.84
3.76
0.37
-3.44
-7.61
-11.98
-16.37
-20.67
-24.87
-29.0
-33.15
-37.51
-42.37
-48.11
-55.04
-63.1
-71.63
-79.34
-84.57
-85.79
-82.18
-73.94
-62.31
-49.12
-36.2
-24.82
-15.42
-7.73
-1.16
4.84
10.48
15.68
20.24
24.07
27.27
30.05
32.64
35.15
37.46
39.4
40.79
41.56
41.82
41.81
41.81
41.98
42.24
42.29
41.69
40.11
37.44
33.95
30.13
26.52
23.44
20.85
18.43
15.7
12.27
7.96
2.86
-2.74
-8.43
-13.76
-18.43
-22.4
-25.93
-29.52
-33.87
-39.54
-46.84
-55.55
-64.83
-73.32
-79.38
-81.49
-78.72
-71.13
-59.72
-46.23
-32.5
-19.96
-9.35
-0.66
6.56
12.86
18.59
23.92
28.84
33.25
37.07
40.19
42.59
44.27
45.35
46.03
46.55
47.05
47.61
48.16
48.51
48.44
47.76
46.34
44.22
41.52
38.47
35.28
32.12
29.11
26.23
23.4
20.46
17.24
13.61
9.59
5.32
1.04
-3.09
-7.03
-10.96
-15.12
-19.7
-24.67
-29.84
-34.99
-40.04
-45.15
-50.7
-57.17
-64.94
-73.93
-83.42
-92.04
-98.01
-99.66
-96.0
-87.19
-74.48
-59.89
-45.48
-32.77
-22.44
-14.35
-7.9
-2.38
2.79
7.99
13.38
19.0
24.76
30.46
35.82
40.57
44.45
47.34
49.26
50.39
51.07
51.67
52.44
53.45
54.51
55.22
55.16
54.09
52.01
49.16
45.9
42.59
39.48
36.65
34.07
31.57
28.88
25.72
21.89
17.39
12.37
7.11
1.82
-3.43
-8.68
-14.03
-19.43
-24.73
-29.64
-33.95
-37.55
-40.56
-43.27
-46.14
-49.71
-54.53
-60.95
-68.9
-77.6
-85.62
-91.07
-92.23
-88.09
-78.82
-65.66
-50.64
-35.81
-22.7
-11.97
-3.4
3.76
10.34
16.95
23.74
30.53
36.98
42.74
47.56
51.32
53.98
55.57
56.24
56.23
55.9
55.62
55.65
56.03
56.56
56.86
56.45
54.99
52.35
48.71
44.56
40.54
37.16
34.66
32.81
31.13
29.03
26.13
22.35
17.91
13.19
8.55
4.2
0.2
-3.54
-7.2
-11.03
-15.17
-19.66
-24.4
-29.18
-33.82
-38.29
-42.82
-47.77
-53.6
-60.54
-68.41
-76.43
-83.27
-87.34
-87.24
-82.3
-72.87
-60.25
-46.29
-32.78
-20.93
-11.13
-3.15
3.56
9.45
14.75
19.48
23.59
27.13
30.19
32.91
35.36
37.51
39.27
40.55
41.33
41.73
41.94
42.21
42.67
43.2
43.51
43.17
41.85
39.46
36.16
32.35
28.47
24.88
21.74
19.08
16.75
14.46
11.9
8.76
4.86
0.33
-4.48
-9.08
-13.15
-16.62
-19.81
-23.27
-27.56
-33.12
-40.05
-48.03
-56.2
-63.19
-67.37
-67.38
-62.64
-53.71
-42.09
-29.77
-18.49
-9.18
-1.9
3.94
9.04
13.85
18.42
22.51
25.84
28.29
29.95
31.08
32.0
32.91
33.84
34.63
35.06
34.99
34.47
33.7
32.93
32.32
31.77
31.03
29.74
27.66
24.78
21.26
17.43
13.66
10.2
7.21
4.62
2.19
-0.45
-3.64
-7.68
-12.6
-18.17
-24.0
-29.64
-34.73
-39.13
-42.97
-46.62
-50.62
-55.57
-61.94
-69.83
-78.74
-87.49
-94.37
-97.6
-95.87
-88.9
-77.51
-63.38
-48.51
-34.61
-22.66
-12.85
-4.76
2.26
8.81
15.2
21.46
27.38
32.76
37.42
41.37
44.68
47.47
49.76
51.56
52.85
53.71
54.28
54.69
54.97
55.04
54.69
53.74
52.03
49.59
46.6
43.31
39.97
36.76
33.65
30.58
27.37
23.97
20.39
16.69
12.86
8.81
4.31
-0.78
-6.48
-12.49
-18.42
-23.9
-28.8
-33.29
-37.73
-42.56
-48.19
-54.99
-63.1
-72.24
-81.53
-89.36
-93.86
-93.39
-87.36
-76.48
-62.6
-47.99
-34.54
-23.19
-13.91
-6.1
0.95
7.68
14.21
20.46
26.26
31.5
36.08
39.97
43.18
45.75
47.78
49.29
50.32
50.9
51.1
51.05
50.88
50.61
50.18
49.44
48.24
46.49
44.15
41.28
37.96
34.31
30.49
26.68
23.07
19.77
16.74
13.82
10.76
7.31
3.29
-1.3
-6.29
-11.34
-16.2
-20.66
-24.79
-28.83
-33.19
-38.32
-44.57
-52.01
-60.32
-68.64
-75.55
-79.45
-78.97
-73.56
-63.77
-51.12
-37.53
-24.71
-13.58
-4.22
3.78
10.86
17.25
22.88
27.61
31.44
34.61
37.48
40.35
43.32
46.23
48.74
50.45
51.14
50.84
49.89
48.77
47.91
47.51
47.33
46.89
45.61
43.17
39.63
35.38
30.94
26.74
23.01
19.71
16.65
13.55
10.17
6.36
2.09
-2.49
-7.1
-11.5
-15.53
-19.27
-22.98
-27.05
-31.83
-37.56
-44.28
-51.65
-58.88
-64.71
-67.67
-66.59
-61.06
-51.69
-39.97
-27.66
-16.18
-6.17
2.47
10.21
17.52
24.51
31.01
36.71
41.3
44.69
46.91
48.11
48.48
48.17
47.34
46.11
44.61
42.97
41.33
39.74
38.18
36.46
34.35
31.64
28.26
24.29
19.93
15.44
11.07
7.06
3.59
0.68
-1.79
-4.16
-6.82
-10.1
-14.12
-18.8
-23.86
-28.95
-33.78
-38.14
-41.98
-45.43
-48.78
-52.48
-57.05
-62.93
-70.24
-78.59
-87.0
-94.01
-97.98
-97.6
-92.33
-82.65
-69.93
-55.93
-42.28
-29.99
-19.32
-9.94
-1.27
7.16
15.51
23.69
31.37
38.17
43.78
48.04
51.0
52.88
54.0
54.66
55.08
55.35
55.46
55.37
55.01
54.24
52.89
50.84
48.09
44.81
41.33
37.97
34.84
31.82
28.57
24.83
20.56
16.0
11.55
7.59
4.3
1.6
-0.76
-3.03
-5.4
-7.92
-10.59
-13.46
-16.57
-20.09
-24.16
-28.91
-34.5
-41.09
-48.78
-57.46
-66.58
-75.05
-81.4
-84.17
-82.45
-76.28
-66.72
-55.41
-44.07
-33.92
-25.41
-18.33
-12.12
-6.23
-0.31
5.7
11.64
17.25
22.32
26.71
30.41
33.5
36.06
38.15
39.77
40.99
41.95
42.85
43.86
44.93
45.86
46.25
45.82
44.51
42.48
40.09
37.64
35.27
32.94
30.45
27.52
23.95
19.62
14.53
8.81
2.65
-3.7
-10.02
-16.03
-21.54
-26.39
-30.53
-34.1
-37.39
-40.88
-45.06
-50.29
-56.55
-63.38
-69.78
-74.45
-76.08
-73.71
-67.13
-56.93
-44.45
-31.31
-19.01
-8.48
0.01
6.77
12.32
17.1
21.3
24.89
27.78
29.93
31.44
32.5
33.29
33.94
34.53
35.06
35.59
36.21
37.01
38.04
39.22
40.29
40.81
40.34
38.57
35.51
31.44
26.96
22.69
19.06
16.16
13.67
11.06
7.76
3.37
-2.15
-8.51
-15.11
-21.33
-26.62
-30.75
-33.91
-36.63
-39.63
-43.52
-48.64
-54.77
-61.13
-66.45
-69.28
-68.41
-63.3
-54.34
-42.78
-30.39
-18.81
-9.15
-1.67
4.06
8.75
13.06
17.28
21.39
25.17
28.46
31.27
33.77
36.24
38.85
41.6
44.31
46.72
48.59
49.86
50.56
50.79
50.51
49.56
47.71
44.82
40.99
36.5
31.7
26.87
22.08
17.38
12.83
8.68
5.21
2.59
0.65
-1.04
-3.14
-6.11
-10.03
-14.65
-19.44
-23.91
-27.84
-31.3
-34.59
-38.15
-42.42
-47.81
-54.62
-62.89
-72.21
-81.57
-89.47
-94.19
-94.35
-89.45
-80.04
-67.66
-54.24
-41.49
-30.37
-20.99
-12.87
-5.37
1.92
9.06
15.84
22.06
27.61
32.54
36.88
40.6
43.5
45.42
46.33
46.44
46.16
45.97
46.18
46.87
47.85
48.69
48.9
48.13
46.32
43.76
40.99
38.59
36.9
35.83
34.94
33.62
31.43
28.25
24.32
20.03
15.74
11.58
7.44
3.02
-1.95
-7.59
-13.82
-20.33
-26.71
-32.58
-37.76
-42.26
-46.37
-50.55
-55.34
-61.19
-68.27
-76.2
-83.95
-89.93
-92.41
-90.1
-82.74
-71.22
-57.36
-43.21
-30.44
-19.85
-11.43
-4.65
1.13
6.41
11.45
16.28
20.86
25.1
28.9
32.2
35.01
37.4
39.45
41.27
42.84
44.21
45.43
46.57
47.67
48.66
49.27
49.16
47.98
45.6
42.23
38.29
34.29
30.64
27.47
24.59
21.63
18.26
14.36
10.19
6.21
2.93
0.59
-1.03
-2.48
-4.44
-7.34
-11.19
-15.57
-19.9
-23.76
-27.09
-30.22
-33.65
-37.92
-43.43
-50.37
-58.59
-67.52
-76.06
-82.65
-85.72
-84.16
-77.82
-67.6
-55.12
-42.15
-30.02
-19.36
-10.19
-2.16
5.12
11.88
18.2
24.02
29.27
33.85
37.66
40.75
43.18
45.09
46.62
47.86
48.93
49.94
51.01
52.19
53.38
54.29
54.51
53.74
51.86
49.02
45.52
41.66
37.66
33.58
29.4
25.06
20.54
15.81
10.95
6.06
1.29
-3.19
-7.28
-11.05
-14.7
-18.51
-22.66
-27.17
-31.87
-36.5
-40.85
-44.89
-48.89
-53.36
-58.9
-65.93
-74.35
-83.27
-91.09
-95.88
-95.97
-90.67
-80.44
-66.84
-51.9
-37.4
-24.41
-13.2
-3.48
5.21
13.17
20.52
27.18
33.08
38.21
42.6
46.32
49.44
52.07
54.25
56.02
57.4
58.38
58.95
59.13
58.96
58.46
57.58
56.19
54.14
51.31
47.73
43.57
39.2
35.05
31.46
28.58
26.25
24.08
21.61
18.56
14.99
11.26
7.84
5.04
2.77
0.61
-2.03
-5.6
-10.2
-15.59
-21.32
-26.91
-32.1
-36.84
-41.38
-46.15
-51.76
-58.78
-67.59
-78.1
-89.46
-100.09
-107.94
-111.0
-108.05
-99.09
-85.37
-68.98
-52.2
-36.8
-23.65
-12.77
-3.62
4.51
12.15
19.6
26.93
34.06
40.84
47.07
52.47
56.74
59.64
61.05
61.07
60.01
58.32
56.49
54.88
53.58
52.47
51.2
49.37
46.7
43.19
39.13
35.06
31.5
28.79
26.88
25.41
23.87
21.87
19.25
16.16
12.92
9.83
7.05
4.5
1.92
-1.05
-4.78
-9.45
-15.04
-21.32
-27.92
-34.43
-40.62
-46.48
-52.34
-58.75
-66.36
-75.52
-85.94
-96.47
-105.16
-109.8
-108.69
-101.27
-88.44
-72.21
-54.95
-38.67
-24.5
-12.72
-2.99
5.2
12.36
18.85
24.89
30.57
35.88
40.7
44.87
48.27
50.83
52.57
53.58
53.97
53.97
53.88
53.97
54.44
55.2
55.92
56.09
55.25
53.2
50.09
46.37
42.55
39.1
36.15
33.55
30.9
27.79
23.95
19.43
14.52
9.68
5.27
1.35
-2.31
-6.18
-10.69
-16.03
-22.07
-28.39
-34.54
-40.2
-45.36
-50.3
-55.48
-61.39
-68.47
-76.88
-86.31
-95.86
-103.99
-108.88
-108.87
-103.18
-92.15
-77.25
-60.52
-43.9
-28.7
-15.5
-4.25
5.33
13.54
20.61
26.72
32.08
36.84
41.1
44.86
48.04
50.6
52.56
54.02
55.11
55.94
56.56
56.97
57.12
56.91
56.25
55.0
53.12
50.63
47.62
44.17
40.38
36.29
31.99
27.63
23.4
19.45
15.82
12.41
8.94
