0
-48.53
-38.13
-22.87
-4.75
13.7
30.17
43.01
51.43
55.26
54.69
50.0
41.73
30.8
18.7
7.34
-1.47
-6.6
-7.96
-6.44
-3.52
-0.58
1.5
2.51
2.65
2.23
1.38
-0.08
-2.5
-6.24
-11.55
-18.51
-26.89
-36.12
-45.09
-52.15
-55.35
-52.96
-44.07
-29.11
-9.9
10.78
29.99
45.35
55.6
60.54
60.74
57.13
50.66
42.28
32.99
23.85
15.9
9.98
6.54
5.54
6.56
8.89
11.77
14.46
16.35
16.93
15.9
13.1
8.65
2.93
-3.52
-9.99
-15.89
-20.87
-24.94
-28.47
-32.15
-36.66
-42.38
-49.02
-55.46
-59.81
-59.92
-54.06
-41.69
-23.81
-2.85
18.1
36.2
49.7
58.13
62.02
62.21
59.46
54.21
46.94
38.46
30.03
23.15
19.02
18.13
20.07
23.8
28.05
31.79
34.43
35.72
35.66
34.27
31.59
27.75
23.02
17.84
12.66
7.86
3.61
-0.11
-3.45
-6.57
-9.49
-12.14
-14.4
-16.21
-17.66
-19.01
-20.6
-22.77
-25.68
-29.24
-33.06
-36.63
-39.51
-41.56
-43.08
-44.8
-47.67
-52.44
-59.24
-67.19
-74.46
-78.51
-76.88
-68.0
-51.82
-29.98
-5.45
18.38
38.61
53.44
62.41
66.06
65.35
61.29
54.79
46.73
38.18
30.37
24.52
21.45
21.31
23.54
27.11
30.84
33.86
35.71
36.35
35.91
34.53
32.24
28.9
24.43
18.92
12.69
6.35
0.59
-4.06
-7.43
-9.8
-11.83
-14.18
-17.25
-20.96
-24.75
-27.91
-29.94
-30.79
-30.92
-31.17
-32.45
-35.48
-40.54
-47.29
-54.67
-60.96
-64.06
-62.08
-53.91
-39.79
-21.3
-0.95
18.5
34.88
46.93
54.34
57.39
56.62
52.61
46.05
37.89
29.35
21.8
16.44
13.94
14.31
16.9
20.68
24.6
27.83
29.94
30.84
30.7
29.66
27.75
24.85
20.81
15.68
9.83
3.9
-1.41
-5.63
-8.71
-11.04
-13.23
-15.74
-18.74
-22.02
-25.18
-27.82
-29.75
-31.04
-31.98
-33.03
-34.75
-37.69
-42.24
-48.38
-55.4
-61.87
-65.83
-65.26
-58.78
-46.21
-28.76
-8.72
11.16
28.49
41.7
50.22
54.23
54.27
50.93
44.83
36.66
27.43
18.42
10.97
6.15
4.43
5.54
8.64
12.67
16.7
20.14
22.77
24.49
25.14
24.43
22.09
18.05
12.66
6.65
0.84
-4.12
-8.06
-11.28
-14.33
-17.7
-21.57
-25.74
-29.75
-33.08
-35.45
-36.89
-37.83
-38.98
-41.13
-44.85
-50.2
-56.48
-62.26
-65.56
-64.47
-57.66
-44.97
-27.55
-7.54
12.46
30.15
43.96
53.26
58.13
59.03
56.53
51.2
43.7
34.9
25.87
17.83
11.86
8.67
8.44
10.75
14.75
19.37
23.59
26.64
28.12
27.94
26.25
23.29
19.34
14.62
9.36
3.77
-2.0
-7.79
-13.44
-18.76
-23.54
-27.58
-30.8
-33.31
-35.45
-37.68
-40.5
-44.33
-49.29
-55.06
-60.69
-64.7
-65.3
-60.92
-50.78
-35.29
-16.08
4.48
23.91
40.23
52.3
59.77
62.81
61.87
57.57
50.68
42.17
33.23
25.05
18.63
14.6
13.09
13.78
16.02
19.08
22.3
25.16
27.38
28.76
29.12
28.2
25.76
21.68
16.13
9.66
3.04
-2.92
-7.72
-11.35
-14.26
-17.12
-20.46
-24.43
-28.7
-32.67
-35.77
-37.74
-38.81
-39.61
-40.99
-43.75
-48.38
-54.69
-61.73
-67.8
-70.76
-68.69
-60.48
-46.32
-27.66
-6.81
13.7
31.78
46.11
56.1
61.75
63.31
61.22
56.0
48.39
39.34
30.07
21.84
15.75
12.48
12.1
14.08
17.58
21.68
25.67
29.12
31.81
33.5
33.82
32.36
28.84
23.44
16.76
9.77
3.4
-1.82
-5.92
-9.4
-12.92
-16.93
-21.38
-25.82
-29.63
-32.4
-34.11
-35.19
-36.32
-38.19
-41.36
-46.07
-52.13
-58.69
-64.27
-66.92
-64.72
-56.44
-42.09
-23.06
-1.79
18.97
36.92
50.64
59.68
64.23
64.74
61.66
55.46
46.82
36.72
26.51
17.64
11.36
8.33
8.45
11.02
14.97
19.28
23.22
26.42
28.73
30.01
30.04
28.57
25.44
20.76
14.96
8.7
2.64
-2.76
-7.37
-11.4
-15.24
-19.21
-23.43
-27.69
-31.61
-34.8
-37.12
-38.73
-40.14
-42.04
-45.06
-49.6
-55.49
-61.85
-67.06
-69.08
-65.98
-56.69
-41.47
-21.93
-0.61
19.83
37.3
50.6
59.36
63.73
64.04
60.67
54.16
45.34
35.39
25.65
17.4
11.51
8.38
7.9
9.64
12.95
17.15
21.58
25.6
28.64
30.21
30.0
27.95
24.28
19.45
14.08
8.72
3.75
-0.72
-4.81
-8.81
-12.95
-17.28
-21.63
-25.69
-29.09
-31.67
-33.57
-35.24
-37.38
-40.7
-45.58
-51.73
-58.08
-62.82
-63.86
-59.51
-49.08
-33.19
-13.69
6.9
26.05
41.85
53.23
59.99
62.43
61.09
56.55
49.35
40.12
29.77
19.44
10.42
3.84
0.39
0.11
2.4
6.23
10.5
14.37
17.34
19.27
20.16
19.96
18.52
15.64
11.23
5.43
-1.33
-8.38
-15.02
-20.69
-25.12
-28.41
-30.92
-33.19
-35.73
-38.97
-43.17
-48.33
-54.01
-59.27
-62.64
-62.46
-57.38
-46.88
-31.61
-13.29
5.81
23.51
38.22
49.17
56.15
59.23
58.54
54.25
46.76
36.95
26.11
15.79
7.38
1.8
-0.68
-0.4
1.88
5.24
8.88
12.24
15.0
17.03
18.17
18.2
16.77
13.55
8.45
1.8
-5.67
-13.03
-19.43
-24.5
-28.32
-31.41
-34.45
-38.02
-42.49
-47.94
-54.1
-60.21
-64.98
-66.7
-63.65
-54.77
-40.16
-21.27
-0.5
19.49
36.53
49.42
57.86
62.1
62.55
59.56
53.47
44.87
34.76
24.47
15.43
8.83
5.32
4.89
6.97
10.61
14.76
18.53
21.32
22.87
23.17
22.35
20.55
17.85
14.25
9.82
4.68
-0.97
-6.84
-12.65
-18.17
-23.21
-27.63
-31.33
-34.27
-36.61
-38.7
-41.17
-44.66
-49.56
-55.66
-61.89
-66.46
-67.25
-62.53
-51.59
-35.1
-14.97
6.18
25.76
41.8
53.32
60.17
62.77
61.72
57.6
50.98
42.53
33.18
24.07
16.42
11.2
8.9
9.4
12.06
15.97
20.19
23.95
26.71
28.12
28.03
26.47
23.62
19.74
15.11
9.91
4.24
-1.8
-8.02
-14.07
-19.54
-24.08
-27.58
-30.19
-32.25
-34.26
-36.68
-39.93
-44.27
-49.61
-55.26
-59.87
-61.6
-58.65
-49.99
-35.83
-17.74
1.88
20.49
36.16
47.89
55.48
59.2
59.36
56.27
50.25
41.91
32.22
22.5
14.12
8.22
5.4
5.61
8.2
12.14
16.34
19.98
22.57
23.98
24.24
23.39
21.41
18.25
13.94
8.65
2.72
-3.46
-9.53
-15.18
-20.2
-24.44
-27.83
-30.49
-32.79
-35.3
-38.65
-43.26
-49.03
-55.21
-60.44
-62.98
-61.22
-54.17
-41.82
-25.25
-6.38
12.57
29.54
43.12
52.62
57.96
59.41
57.37
52.3
44.74
35.51
25.7
16.62
9.52
5.3
4.24
5.96
9.56
13.89
17.96
21.06
22.91
23.51
23.0
21.49
19.03
15.58
11.13
5.76
-0.26
-6.53
-12.51
-17.76
-22.0
-25.26
-27.86
-30.25
-32.9
-36.19
-40.29
-45.17
-50.38
-55.02
-57.7
-56.85
-51.17
-40.21
-24.69
-6.44
12.15
28.81
41.93
50.78
55.37
56.06
53.3
47.52
39.29
29.49
19.34
10.17
3.17
-1.03
-2.44
-1.59
0.73
3.82
7.18
10.47
13.41
15.59
16.51
15.67
12.77
7.89
1.51
-5.57
-12.49
-18.56
-23.47
-27.36
-30.78
-34.44
-38.95
-44.57
-51.01
-57.36
-62.23
-64.07
-61.56
-54.03
-41.75
-25.96
-8.51
8.56
23.52
35.21
43.11
47.14
47.48
44.48
38.61
30.6
21.47
12.42
4.64
-0.96
-3.93
-4.37
-2.77
0.12
3.59
7.0
9.86
11.71
12.17
10.93
7.9
3.34
-2.2
-7.98
-13.36
-18.06
-22.24
-26.47
-31.45
-37.68
-45.14
-53.06
-59.94
-63.82
-62.8
-55.7
-42.58
-24.82
-4.82
14.73
31.58
44.37
52.75
57.0
57.71
55.38
50.46
43.44
35.04
26.19
17.95
11.25
6.75
4.67
4.83
6.77
9.8
13.14
16.01
17.73
17.81
15.96
12.22
6.9
0.6
-5.97
-12.16
-17.64
-22.47
-27.11
-32.22
-38.26
-45.04
-51.56
-56.0
-56.31
-50.93
-39.43
-22.82
-3.33
16.3
33.6
46.92
55.64
59.94
60.39
57.54
51.91
44.02
34.66
24.91
16.08
9.38
5.65
5.07
7.09
10.61
14.31
17.02
18.07
17.35
15.18
12.03
8.3
4.14
-0.49
-5.65
-11.4
-17.68
-24.45
-31.69
-39.21
-46.46
-52.34
-55.26
-53.64
-46.47
-33.81
-16.93
2.0
20.51
36.43
48.3
55.45
57.83
55.81
50.01
41.25
30.59
19.32
8.91
0.76
-4.16
-5.61
-4.16
-1.06
2.24
4.58
5.44
4.94
3.61
2.03
0.49
-1.06
-2.94
-5.54
-9.15
-13.87
-19.61
-26.15
-33.09
-39.79
-45.25
-48.14
-47.04
-40.86
-29.35
-13.37
5.14
23.65
39.71
51.58
58.48
60.47
58.14
52.18
43.29
32.27
20.14
8.16
-2.29
-10.06
-14.52
-15.68
-14.13
-10.78
-6.59
-2.4
1.11
3.44
4.19
3.13
0.32
-3.86
-8.74
-13.61
-17.9
-21.47
-24.6
-27.84
-31.79
-36.72
-42.28
-47.46
-50.72
-50.35
-45.05
-34.46
-19.38
-1.64
16.37
32.35
44.69
52.61
56.07
55.42
51.15
43.87
34.43
24.05
14.26
6.61
2.15
1.14
2.95
6.42
10.27
13.57
15.89
17.22
17.73
17.45
16.26
13.88
10.09
4.97
-1.06
-7.3
-13.0
-17.59
-20.88
-23.15
-25.0
-27.16
-30.26
-34.62
-40.09
-46.0
-51.19
-54.16
-53.41
-47.9
-37.43
-22.83
-5.78
11.57
27.2
39.63
48.09
52.45
52.9
49.87
43.87
35.6
26.05
16.5
8.32
2.66
0.19
0.88
4.12
8.96
14.38
19.55
23.82
26.78
28.2
28.04
26.4
23.55
19.83
15.55
10.91
6.06
1.07
-3.93
-8.79
-13.32
-17.37
-20.84
-23.63
-25.71
-27.14
-28.15
-29.18
-30.83
-33.7
-38.17
-44.08
-50.57
-56.13
-58.84
-56.94
-49.45
-36.54
-19.6
-0.9
17.13
32.49
44.0
51.31
54.59
54.22
50.59
44.16
35.69
26.33
17.54
10.78
7.11
6.83
9.39
13.64
18.24
22.07
24.49
25.33
24.74
22.97
20.16
16.37
11.62
5.99
-0.31
-6.96
-13.52
-19.55
-24.66
-28.61
-31.3
-32.85
-33.56
-33.87
-34.34
-35.51
-37.8
-41.28
-45.48
-49.38
-51.51
-50.36
-44.88
-34.86
-21.07
-5.09
11.19
25.96
37.92
46.28
50.75
51.32
48.22
41.9
33.14
23.05
12.97
4.28
-1.95
-5.15
-5.37
-3.27
0.16
3.86
7.02
9.21
10.39
10.68
10.2
8.88
6.45
2.67
-2.48
-8.65
-15.16
-21.21
-26.19
-29.91
-32.59
-34.75
-36.96
-39.72
-43.32
-47.8
-52.88
-57.83
-61.43
-62.19
-58.69
-50.12
-36.67
-19.54
-0.7
17.7
33.78
46.28
54.56
58.5
58.42
54.88
48.71
40.91
32.59
24.8
18.39
13.91
11.56
11.17
12.31
14.41
16.89
19.32
21.35
22.69
23.01
21.97
19.35
15.2
9.96
4.28
-1.1
-5.72
-9.53
-12.81
-15.98
-19.33
-22.86
-26.3
-29.28
-31.51
-32.94
-33.81
-34.61
-35.97
-38.54
-42.72
-48.47
-55.06
-61.03
-64.43
-63.37
-56.63
-44.22
-27.35
-8.19
10.89
27.88
41.52
51.34
57.28
59.49
58.2
53.79
46.96
38.83
30.85
24.47
20.77
20.16
22.26
26.13
30.63
34.79
38.11
40.49
42.05
42.84
42.68
41.22
38.16
33.53
27.79
21.71
16.07
11.38
7.69
4.63
1.66
-1.71
-5.62
-9.85
-13.91
-17.33
-19.85
-21.63
-23.15
-25.12
-28.21
-32.93
-39.42
-47.36
-55.8
-63.21
-67.7
-67.53
-61.68
-50.31
-34.81
-17.36
-0.28
14.59
26.18
34.12
38.46
39.4
37.18
32.23
25.3
17.5
10.18
4.59
1.63
1.6
4.23
8.73
14.12
19.44
23.95
27.26
29.27
30.04
29.59
27.89
24.85
20.43
14.89
8.75
2.76
-2.37
-6.27
-9.03
-11.17
-13.31
-15.96
-19.25
-22.93
-26.59
-29.83
-32.45
-34.51
-36.29
-38.19
-40.68
-44.18
-48.92
-54.82
-61.22
-66.88
-70.1
-69.13
-62.72
-50.62
-33.7
-13.84
6.62
25.5
41.18
52.82
60.21
63.51
63.05
59.22
52.61
44.0
34.46
25.11
16.98
10.73
6.6
4.42
3.77
4.24
5.42
6.94
8.41
9.41
9.53
8.52
6.26
2.8
-1.75
-7.22
-13.32
-19.59
-25.39
-30.07
-33.26
-35.04
-35.93
-36.65
-37.72
-39.23
-40.81
-41.9
-42.18
-41.74
-41.06
-40.8
-41.53
-43.48
-46.48
-49.92
-52.79
-53.74
-51.29
-44.23
-31.94
-14.79
5.91
28.15
49.76
68.77
83.79
94.01
99.1
99.15
94.59
86.25
75.33
63.28
51.62
41.65
34.22
29.62
27.6
27.52
28.58
30.03
31.36
32.31
32.77
32.75
32.22
31.1
29.34
26.91
23.87
20.31
16.31
11.9
7.04
1.67
-4.18
-10.29
-16.31
-21.81
-26.47
-30.24
-33.39
-36.41
-39.88
-44.24
-49.63
-55.84
-62.19
-67.5
-70.33
-69.22
-63.18
-52.09
-36.82
-19.07
-0.87
16.04
30.47
41.86
50.0
54.71
55.81
53.24
47.41
39.41
30.89
23.72
19.4
18.7
21.44
26.65
32.98
39.1
44.05
47.34
48.85
48.64
46.83
43.47
38.57
32.28
24.85
16.68
8.25
-0.02
-7.84
-15.05
-21.57
-27.37
-32.42
-36.82
-40.77
-44.68
-48.93
-53.73
-58.79
-63.23
-65.68
-64.65
-59.03
-48.58
-34.09
-17.22
-0.12
15.18
27.13
34.96
38.54
38.19
34.5
28.16
19.94
10.74
1.6
-6.41
-12.32
-15.52
-15.88
-13.78
-10.01
-5.48
-1.09
2.52
4.93
5.95
5.57
3.86
1.0
-2.79
-7.3
-12.33
-17.68
-23.09
-28.2
-32.64
-36.14
-38.65
-40.45
-41.96
-43.62
-45.74
-48.47
-51.92
-56.16
-61.12
-66.3
-70.58
-72.31
-69.74
-61.71
-48.16
-30.27
-10.09
10.08
28.34
43.42
54.71
62.04
65.45
65.12
61.42
55.0
46.82
38.14
30.29
24.53
21.74
22.28
25.95
32.05
39.64
47.65
55.06
60.94
64.51
65.18
62.72
57.36
49.83
41.19
32.47
24.39
17.14
10.44
3.85
-2.95
-9.92
-16.69
-22.78
-27.85
-31.83
-34.98
-37.76
-40.66
-44.17
-48.6
-53.99
-59.91
-65.31
-68.64
-68.15
-62.47
-51.18
-35.02
-15.74
4.36
23.06
38.74
50.6
58.51
62.77
63.81
62.0
57.78
51.77
44.92
38.35
33.12
29.9
28.82
29.52
31.51
34.33
37.68
41.2
44.32
46.22
46.11
43.57
38.86
32.79
26.32
20.16
14.49
9.08
3.57
-2.2
-8.03
-13.55
-18.35
-22.19
-25.11
-27.29
-29.03
-30.68
-32.65
-35.37
-39.26
-44.56
-51.1
-58.07
-64.05
-67.23
-65.95
-59.28
-47.47
-31.93
-14.87
1.44
15.28
25.79
32.82
36.63
37.39
35.14
29.82
21.65
11.28
-0.17
-11.3
-20.77
-27.59
-31.32
-32.1
-30.53
-27.52
-24.12
-21.27
-19.69
-19.78
-21.57
-24.87
-29.25
-34.25
-39.42
-44.32
-48.66
-52.22
-54.87
-56.57
-57.27
-56.98
-55.81
-53.97
-51.87
-49.99
-48.75
-48.29
-48.28
-47.89
-45.98
-41.35
-33.21
-21.42
-6.58
10.16
27.34
43.57
57.68
68.9
76.79
81.15
82.07
79.87
75.11
68.66
61.6
55.12
50.3
47.86
48.0
50.33
53.99
57.94
61.23
63.2
63.55
62.2
59.14
54.26
47.5
38.87
28.68
17.64
6.7
-3.21
-11.41
-17.8
-22.81
-27.24
-31.97
-37.6
-44.26
-51.51
-58.27
-63.06
-64.27
-60.54
-51.21
-36.62
-18.16
2.07
21.74
38.85
52.14
61.18
66.17
67.71
66.41
62.83
57.45
50.76
43.37
36.06
29.65
24.89
22.17
21.44
22.21
23.74
25.25
26.21
26.36
25.66
24.1
21.51
17.57
11.98
4.69
-3.96
-13.28
-22.5
-31.07
-38.91
-46.34
-53.91
-62.04
-70.9
-80.3
-89.85
-99.02
-107.1
-113.08
-115.59
-113.18
-104.75
-90.1
-70.28
-47.47
-24.43
-3.72
12.97
25.01
32.7
36.72
37.74
36.25
32.7
27.74
22.35
17.71
14.88
14.43
16.31
19.98
24.62
29.44
33.83
37.33
39.59
40.36
39.52
37.11
33.37
28.66
23.37
17.86
12.44
7.31
2.6
-1.64
-5.48
-8.97
-12.15
-14.95
-17.3
-19.18
-20.79
-22.59
-25.17
-29.08
-34.53
-41.17
-48.0
-53.44
-55.71
-53.25
-45.28
-32.08
-15.05
3.65
21.69
37.13
48.76
56.18
59.5
59.11
55.47
49.12
40.87
31.82
23.31
16.57
12.41
11.03
12.0
14.61
18.11
21.96
25.77
29.19
31.75
32.9
32.14
29.27
24.53
18.56
12.22
6.25
1.09
-3.19
-6.84
-10.29
-13.85
-17.63
-21.49
-25.08
-28.05
-30.24
-31.8
-33.17
-34.96
-37.75
-41.9
-47.39
-53.68
-59.71
-63.93
-64.62
-60.34
-50.48
-35.55
-17.22
2.17
20.23
35.19
46.15
52.97
55.94
55.39
51.72
45.39
37.23
28.38
20.19
13.86
10.19
9.38
11.06
14.5
18.82
23.18
26.92
29.58
30.9
30.77
29.21
26.38
22.54
18.09
13.42
8.86
4.62
0.69
-3.07
-6.84
-10.71
-14.57
-18.18
-21.24
-23.63
-25.47
-27.21
-29.51
-32.95
-37.81
-43.79
-49.91
-54.62
-56.21
-53.28
-45.26
-32.65
-16.93
-0.13
15.68
28.93
38.73
44.86
47.49
46.85
43.21
36.88
28.42
18.81
9.39
1.57
-3.52
-5.43
-4.42
-1.35
2.7
6.78
10.26
12.88
14.57
15.35
15.16
13.93
11.56
8.06
3.58
-1.58
-7.02
-12.25
-16.9
-20.74
-23.83
-26.42
-28.89
-31.64
-34.99
-39.08
-43.72
-48.28
-51.68
-52.56
-49.64
-42.2
-30.38
-15.21
1.6
18.24
33.08
45.0
53.34
57.8
58.37
55.29
49.08
40.64
31.08
21.61
13.33
7.02
3.06
1.46
1.9
3.84
6.64
9.66
12.3
14.05
14.49
13.3
10.3
5.56
-0.62
-7.7
-14.99
-21.84
-27.84
-32.9
-37.32
-41.62
-46.31
-51.61
-57.24
-62.32
-65.56
-65.53
-61.1
-51.88
-38.43
-22.17
-5.09
10.83
24.08
33.87
40.05
42.81
42.42
38.99
32.68
23.88
13.46
2.78
-6.58
-13.23
-16.4
-16.11
-13.1
-8.51
-3.58
0.68
3.6
4.81
4.29
2.19
-1.15
-5.39
-10.14
-15.1
-20.07
-25.0
-30.03
-35.43
-41.39
-47.74
-53.69
-57.76
-58.1
-53.15
-42.3
-26.25
-6.97
12.92
30.88
45.12
54.83
60.03
61.29
59.23
54.44
47.43
38.79
29.3
19.99
11.96
6.15
3.09
2.81
4.76
8.08
11.77
14.86
16.63
16.61
14.7
11.08
6.23
0.71
-4.99
-10.54
-15.91
-21.31
-27.12
-33.69
-41.09
-48.81
-55.6
-59.7
-59.21
-52.82
-40.35
-23.0
-3.01
16.93
34.45
48.01
56.94
61.31
61.58
58.38
52.42
44.55
35.73
26.97
19.22
13.19
9.31
7.63
7.91
9.7
12.44
15.53
18.38
20.39
20.99
19.74
16.45
11.34
5.01
-1.66
-7.87
-13.13
-17.42
-21.17
-25.08
-29.78
-35.64
-42.44
-49.29
-54.67
-56.74
-53.84
-45.13
-30.96
-12.91
6.62
25.09
40.52
51.86
58.92
62.06
61.76
58.44
52.5
44.51
35.41
26.48
19.06
14.23
12.44
13.47
16.48
20.4
24.24
27.34
29.38
30.37
30.37
29.46
27.57
24.63
20.56
15.46
9.66
3.63
-2.07
-6.94
-10.74
-13.53
-15.66
-17.65
-19.95
-22.83
-26.19
-29.68
-32.84
-35.3
-36.97
-38.09
-39.22
-41.04
-44.2
-49.06
-55.41
-62.35
-68.33
-71.38
-69.61
-61.84
-47.95
-29.11
-7.51
14.24
33.68
49.08
59.6
65.19
66.29
63.62
57.91
50.02
40.92
31.8
23.91
18.29
15.56
15.7
18.11
21.84
25.95
29.68
32.65
34.67
35.65
35.48
33.98
31.02
26.64
21.15
15.04
8.89
3.22
-1.6
-5.45
-8.41
-10.75
-12.81
-14.94
-17.39
-20.21
-23.25
-26.23
-28.85
-30.9
-32.38
-33.47
-34.55
-36.07
-38.51
-42.22
-47.28
-53.3
-59.26
-63.59
-64.46
-60.33
-50.5
-35.42
-16.72
3.24
22.03
37.69
49.11
55.98
58.56
57.4
53.09
46.33
37.93
28.91
20.4
13.45
8.86
6.94
7.51
9.94
13.38
17.01
20.2
22.6
24.01
24.29
23.26
20.72
16.63
11.24
5.07
-1.22
-7.1
-12.38
-17.19
-21.83
-26.45
-30.99
-35.14
-38.61
-41.27
-43.31
-45.05
-46.78
-48.56
-50.13
-51.05
-50.89
-49.45
-46.81
-43.39
-39.83
-36.89
-35.23
-35.25
-36.82
-39.13
-40.71
-39.79
-34.78
-24.86
-10.36
7.35
26.17
43.91
58.8
69.76
76.47
79.11
78.15
74.11
67.5
58.85
48.91
38.67
29.34
22.1
17.78
16.58
18.05
21.29
25.3
29.27
32.68
35.25
36.75
36.9
35.48
32.34
27.63
21.75
15.25
8.76
2.76
-2.47
-6.85
-10.46
-13.52
-16.3
-19.04
-21.91
-24.87
-27.73
-30.16
-31.86
-32.74
-33.01
-33.22
-34.09
-36.27
-40.15
-45.64
-52.06
-58.18
-62.4
-63.1
-59.03
-49.69
-35.61
-18.2
0.53
18.49
33.96
45.86
53.73
57.58
57.67
54.4
48.3
40.07
30.68
21.32
13.19
7.32
4.27
4.05
6.14
9.71
13.92
18.11
21.89
25.03
27.35
28.56
28.34
26.43
22.8
17.74
11.81
5.72
0.08
-4.74
-8.64
-11.83
-14.67
-17.53
-20.68
-24.1
-27.55
-30.65
-33.05
-34.61
-35.48
-36.12
-37.11
-39.0
-42.19
-46.71
-52.14
-57.52
-61.39
-62.08
-58.15
-48.88
-34.64
-16.89
2.2
20.34
35.73
47.33
54.87
58.57
58.85
56.13
50.86
43.59
35.08
26.29
18.21
11.72
7.4
5.43
5.65
7.61
10.78
14.6
18.52
22.04
24.67
25.93
25.45
23.12
19.13
14.01
8.42
2.97
-2.0
-6.49
-10.78
-15.18
-19.84
-24.62
-29.15
-32.93
-35.67
-37.38
-38.45
-39.54
-41.38
-44.5
-49.03
-54.54
-59.98
-63.83
-64.4
-60.31
-50.94
-36.75
-19.14
-0.18
18.03
33.76
45.94
54.09
58.15
58.35
55.08
48.96
40.81
31.63
22.43
14.13
7.5
3.04
1.02
1.44
3.99
8.04
12.85
17.58
21.55
24.25
25.41
24.89
22.71
19.04
14.24
8.79
3.22
-2.08
-6.99
-11.61
-16.16
-20.81
-25.46
-29.81
-33.5
-36.28
-38.24
-39.79
-41.58
-44.28
-48.29
-53.47
-59.03
-63.5
-65.15
-62.38
-54.35
-41.27
-24.44
-5.89
12.22
28.13
40.77
49.72
55.02
56.88
55.55
51.34
44.77
36.6
27.84
19.59
12.83
8.28
6.26
6.69
9.16
13.11
17.88
22.83
27.29
30.63
32.29
31.89
29.33
24.95
19.37
13.38
7.63
2.39
-2.41
-7.1
-11.93
-16.91
-21.73
-25.93
-29.15
-31.28
-32.62
-33.7
-35.18
-37.59
-41.24
-46.02
-51.39
-56.29
-59.23
-58.63
-53.22
-42.6
-27.45
-9.48
9.08
26.11
40.09
50.33
56.73
59.49
58.87
55.13
48.66
40.17
30.68
21.38
13.39
7.59
4.44
3.96
5.82
9.41
13.98
18.74
22.96
26.1
27.75
27.73
26.05
22.87
18.54
13.52
8.29
3.24
-1.45
-5.81
-10.02
-14.26
-18.56
-22.71
-26.39
-29.31
-31.35
-32.73
-33.93
-35.58
-38.25
-42.19
-47.14
-52.26
-56.17
-57.24
-54.07
-45.9
-32.97
-16.51
1.56
19.17
34.56
46.58
54.68
58.77
59.05
55.87
49.8
41.63
32.36
23.13
15.01
8.89
5.3
4.4
5.93
9.33
13.83
18.54
22.66
25.58
26.97
26.75
25.01
22.01
18.05
13.48
8.63
3.76
-1.01
-5.69
-10.41
-15.21
-19.96
-24.36
-28.05
-30.81
-32.69
-34.06
-35.5
-37.62
-40.84
-45.16
-50.01
-54.25
-56.32
-54.62
-48.03
-36.38
-20.62
-2.62
15.36
31.31
43.87
52.39
56.81
57.39
54.48
48.55
40.3
30.69
20.95
12.37
5.99
2.44
1.78
3.63
7.3
11.98
16.88
21.32
24.73
26.68
26.94
25.46
22.44
18.24
13.27
7.91
2.42
-3.08
-8.51
-13.78
-18.71
-23.06
-26.58
-29.13
-30.81
-31.94
-33.09
-34.91
-37.91
-42.26
-47.57
-52.85
-56.57
-56.99
-52.69
-43.09
-28.74
-11.26
7.07
23.99
37.83
47.75
53.66
55.9
54.85
50.82
44.18
35.56
25.98
16.78
9.28
4.44
2.59
3.46
6.36
10.45
14.97
19.32
22.94
25.37
26.16
25.11
22.28
18.08
13.11
7.97
3.02
-1.66
-6.2
-10.77
-15.42
-20.0
-24.18
-27.63
-30.12
-31.71
-32.75
-33.83
-35.63
-38.69
-43.09
-48.27
-53.02
-55.68
-54.6
-48.69
-37.77
-22.73
-5.32
12.37
28.37
41.25
50.24
55.2
56.34
54.03
48.74
41.06
31.81
22.07
13.09
6.09
1.96
1.04
3.04
7.18
12.37
17.55
21.82
24.66
25.82
25.35
23.44
20.34
16.3
11.5
6.11
0.34
-5.51
-11.11
-16.09
-20.21
-23.39
-25.72
-27.47
-29.0
-30.7
-32.96
-36.08
-40.17
-44.93
-49.58
-52.85
-53.22
-49.38
-40.71
-27.56
-11.28
6.15
22.65
36.55
46.84
53.2
55.76
54.84
50.82
44.18
35.57
25.99
16.66
8.86
3.66
1.64
2.73
6.26
11.18
16.35
20.84
24.05
25.76
25.97
24.82
22.37
18.7
13.88
8.11
1.81
-4.52
-10.38
-15.41
-19.51
-22.83
-25.61
-28.11
-30.54
-33.06
-35.87
-39.23
-43.29
-47.87
-52.22
-54.98
-54.6
-49.79
-40.12
-26.22
-9.69
7.42
23.13
36.0
45.26
50.69
52.38
50.59
45.58
37.85
28.17
17.71
7.88
0.15
-4.43
-5.46
-3.3
1.08
6.43
11.64
15.92
18.87
20.37
20.41
19.01
16.23
12.19
7.12
1.37
-4.62
-10.4
-15.53
-19.8
-23.16
-25.83
-28.17
-30.59
-33.44
-36.91
-41.03
-45.6
-50.1
-53.6
-54.85
-52.49
-45.53
-33.77
-18.08
-0.23
17.57
33.3
45.56
53.77
57.92
58.34
55.43
49.64
41.61
32.27
22.8
14.43
8.23
4.82
4.31
6.34
10.2
14.99
19.79
23.77
26.34
27.14
26.13
23.45
19.39
14.34
8.65
2.73
-3.09
-8.51
-13.42
-17.86
-21.97
-25.83
-29.38
-32.44
-34.8
-36.48
-37.86
-39.63
-42.53
-46.88
-52.32
-57.67
-61.14
-60.87
-55.48
-44.61
-29.01
-10.43
8.85
26.61
41.14
51.48
57.41
59.17
57.25
52.21
44.75
35.83
26.69
18.73
13.13
10.57
10.96
13.59
17.42
21.5
25.24
28.39
30.85
32.47
32.91
31.74
28.69
23.85
17.72
11.09
4.78
-0.66
-5.06
-8.61
-11.72
-14.79
-18.01
-21.37
-24.65
-27.54
-29.76
-31.2
-32.03
-32.64
-33.62
-35.62
-39.13
-44.28
-50.61
-56.98
-61.69
-62.82
-58.78
-48.83
-33.48
-14.43
5.81
24.71
40.3
51.56
58.37
61.16
60.48
56.84
50.69
42.72
33.89
25.45
18.61
14.26
12.7
13.66
16.46
20.3
24.47
28.37
31.55
33.62
34.28
33.33
30.73
26.68
21.52
15.73
9.86
4.34
-0.49
-4.52
-7.84
-10.62
-13.02
-15.13
-17.01
-18.7
-20.36
-22.17
-24.29
-26.67
-29.11
-31.31
-33.09
-34.54
-36.03
-38.14
-41.43
-46.19
-52.23
-58.76
-64.36
-67.2
-65.46
-57.96
-44.56
-26.44
-5.81
14.72
32.82
46.96
56.54
61.67
62.82
60.52
55.27
47.74
38.84
29.73
21.68
15.71
12.38
11.67
13.1
15.93
19.48
23.17
26.61
29.51
31.6
32.64
32.4
30.72
27.56
23.04
17.48
11.36
5.28
-0.22
-4.79
-8.39
-11.22
-13.64
-16.02
-18.56
-21.32
-24.16
-26.84
-29.1
-30.79
-31.96
-32.86
-33.92
-35.68
-38.61
-42.96
-48.57
-54.78
-60.33
-63.59
-62.91
-57.08
-45.83
-30.01
-11.41
7.73
25.23
39.49
49.65
55.45
57.11
55.04
49.79
42.11
32.89
23.21
14.22
6.98
2.26
0.43
1.35
4.5
9.08
14.27
19.28
23.49
26.38
27.51
26.62
23.69
19.05
13.35
7.34
1.64
-3.52
-8.2
-12.72
-17.23
-21.68
-25.77
-29.15
-31.69
-33.54
-35.12
-36.93
-39.44
-42.9
-47.28
-52.13
-56.51
-58.99
-58.01
-52.32
-41.51
-26.28
-8.29
10.3
27.36
41.36
51.42
57.31
59.18
57.4
52.5
45.14
36.2
26.7
17.79
10.49
5.55
3.29
3.55
5.79
9.32
13.52
17.85
21.88
25.18
27.27
27.64
26.0
22.38
17.22
11.28
5.34
-0.05
-4.76
-8.99
-13.14
-17.53
-22.16
-26.76
-30.83
-33.98
-36.07
-37.35
-38.44
-40.07
-42.86
-47.06
-52.39
-57.85
-61.96
-62.95
-59.37
-50.48
-36.59
-19.03
0.18
18.88
35.23
47.99
56.6
61.02
61.52
58.56
52.69
44.65
35.36
25.89
17.34
10.67
6.48
4.9
5.68
8.27
12.04
16.33
20.59
24.27
26.82
27.79
26.87
24.08
19.7
14.29
8.48
2.77
-2.57
-7.56
-12.34
-17.04
-21.64
-25.92
-29.58
-32.33
-34.16
-35.36
-36.54
-38.39
-41.5
-46.04
-51.53
-56.84
-60.33
-60.31
-55.48
-45.38
-30.62
-12.72
6.23
24.14
39.25
50.4
57.12
59.44
57.83
52.96
45.63
36.76
27.35
18.46
11.06
5.93
3.49
3.7
6.08
9.89
14.33
18.66
22.34
25.0
26.37
26.25
24.55
21.34
16.88
11.63
6.04
0.53
-4.69
-9.62
-14.33
-18.87
-23.19
-27.1
-30.36
-32.82
-34.5
-35.67
-36.81
-38.55
-41.41
-45.56
-50.52
-55.06
-57.39
-55.72
-48.86
-36.71
-20.44
-2.06
16.11
32.15
44.85
53.74
58.79
60.21
58.21
53.08
45.28
35.57
25.03
14.95
6.56
0.85
-1.77
-1.46
1.13
5.06
9.45
13.58
16.96
19.25
20.18
19.56
17.3
13.53
8.6
2.97
-2.87
-8.49
-13.65
-18.17
-22.03
-25.23
-27.9
-30.21
-32.4
-34.79
-37.65
-41.19
-45.36
-49.71
-53.28
-54.75
-52.72
-46.17
-34.99
-20.02
-2.95
14.23
29.76
42.47
51.78
57.53
59.67
58.18
53.15
44.95
34.47
23.07
12.36
3.8
-1.62
-3.65
-2.71
0.35
4.53
8.97
13.08
16.48
18.92
20.16
19.89
17.88
14.03
8.56
1.99
-4.97
-11.59
-17.35
-22.07
-25.93
-29.33
-32.73
-36.49
-40.85
-45.87
-51.33
-56.64
-60.74
-62.21
-59.58
-51.88
-39.09
-22.35
-3.59
14.92
31.29
44.31
53.48
58.75
60.27
58.24
52.94
44.94
35.2
25.03
15.82
8.79
4.69
3.64
5.16
8.38
12.3
16.09
19.24
21.48
22.75
22.92
21.86
19.4
15.48
10.24
4.05
-2.6
-9.18
-15.24
-20.52
-24.95
-28.62
-31.83
-34.94
-38.38
-42.52
-47.48
-52.92
-57.95
-61.15
-60.9
-55.9
-45.62
-30.69
-12.74
6.03
23.49
38.04
48.83
55.63
58.54
57.8
53.77
46.96
38.21
28.63
19.49
11.96
6.87
4.56
4.86
7.23
10.88
15.01
18.92
22.08
24.11
24.84
24.17
22.12
18.77
14.22
8.66
2.35
-4.34
-10.95
-16.97
-21.99
-25.81
-28.51
-30.44
-32.08
-33.97
-36.58
-40.25
-45.04
-50.51
-55.62
-58.81
-58.29
-52.68
-41.56
-25.73
-7.01
12.24
29.81
44.11
54.31
60.2
61.97
60.03
54.9
47.29
38.11
28.43
19.38
11.97
7.02
4.88
5.45
8.15
12.1
16.35
20.14
23.0
24.72
25.22
24.48
22.4
18.94
14.18
8.38
1.99
-4.42
-10.36
-15.45
-19.55
-22.7
-25.14
-27.19
-29.25
-31.73
-34.98
-39.19
-44.25
-49.57
-53.99
-56.0
-54.11
-47.39
-35.82
-20.49
-3.19
14.01
29.35
41.68
50.44
55.47
56.75
54.31
48.31
39.31
28.35
16.9
6.57
-1.31
-6.01
-7.55
-6.52
-3.82
-0.3
3.44
7.04
10.29
12.89
14.42
14.34
12.27
8.09
2.13
-4.86
-11.93
-18.21
-23.16
-26.71
-29.25
-31.46
-34.05
-37.53
-42.1
-47.47
-52.85
-56.98
-58.34
-55.56
-47.84
-35.32
-19.11
-1.08
16.73
32.52
45.06
53.76
58.42
59.09
55.96
49.48
40.44
30.04
19.71
10.79
4.26
0.51
-0.61
0.37
2.76
5.97
9.46
12.81
15.57
17.24
17.38
15.59
11.75
6.04
-1.0
-8.57
-15.81
-21.98
-26.76
-30.33
-33.35
-36.72
-41.24
-47.16
-53.96
-60.28
-64.27
-64.04
-58.34
-46.97
-30.85
-11.81
7.92
26.2
41.45
52.73
59.75
62.57
61.49
56.94
49.52
40.1
29.86
20.14
