0
81.26
85.15
84.28
79.23
70.95
60.67
49.88
40.03
32.33
27.52
25.74
26.56
29.12
32.43
35.64
38.2
39.83
40.48
40.13
38.68
36.0
31.97
26.6
20.06
12.64
4.72
-3.42
-11.52
-19.4
-26.9
-33.9
-40.44
-46.86
-53.76
-61.95
-72.01
-83.84
-96.29
-107.17
-113.66
-113.2
-104.3
-87.16
-63.6
-36.52
-9.04
16.23
37.73
54.76
67.21
75.1
78.35
76.93
71.08
61.7
50.32
38.86
29.12
22.33
18.79
18.05
19.19
21.31
23.81
26.42
28.98
31.23
32.73
32.86
31.14
27.3
21.45
13.99
5.51
-3.28
-11.81
-19.65
-26.68
-33.09
-39.27
-45.8
-53.21
-61.87
-71.74
-82.16
-91.75
-98.48
-100.12
-94.9
-82.17
-62.73
-38.68
-12.73
12.5
35.03
53.62
67.53
76.31
79.7
77.75
71.15
61.19
49.69
38.46
28.94
21.84
17.15
14.42
13.08
12.74
13.24
14.55
16.54
18.74
20.37
20.48
18.28
13.52
6.55
-1.72
-10.22
-18.1
-25.06
-31.45
-38.06
-45.85
-55.59
-67.45
-80.89
-94.44
-105.84
-112.49
-112.01
-103.05
-85.78
-61.93
-34.35
-6.2
19.89
42.2
59.87
72.6
80.21
82.61
79.93
72.84
62.66
51.3
40.7
32.35
26.96
24.37
23.9
24.74
26.27
28.21
30.41
32.67
34.52
35.28
34.23
30.81
24.91
16.89
7.56
-2.16
-11.41
-19.75
-27.23
-34.35
-41.92
-50.7
-61.17
-73.22
-85.97
-97.8
-106.47
-109.6
-105.31
-92.86
-72.99
-47.82
-20.21
6.9
31.24
51.4
66.73
76.98
82.06
82.05
77.38
69.06
58.66
48.05
38.96
32.53
29.13
28.38
29.48
31.51
33.7
35.56
36.86
37.49
37.36
36.3
34.06
30.36
25.01
18.02
9.69
0.59
-8.63
-17.35
-25.23
-32.23
-38.62
-44.9
-51.73
-59.8
-69.55
-80.89
-92.84
-103.42
-109.97
-109.91
-101.57
-84.89
-61.45
-34.05
-5.82
20.53
43.18
61.13
73.92
81.41
83.66
81.07
74.52
65.41
55.34
45.87
38.21
33.0
30.42
30.23
32.01
35.19
39.16
43.25
46.77
49.02
49.45
47.76
44.03
38.63
32.18
25.22
18.09
10.82
3.21
-4.98
-13.72
-22.76
-31.57
-39.67
-46.72
-52.79
-58.25
-63.74
-70.07
-77.91
-87.47
-98.13
-108.25
-115.3
-116.54
-109.9
-94.72
-72.09
-44.5
-15.1
13.12
37.92
57.96
72.58
81.6
85.17
83.76
78.21
69.74
59.8
49.86
41.17
34.57
30.44
28.73
29.11
31.11
34.23
37.93
41.66
44.77
46.59
46.61
44.68
41.0
36.09
30.53
24.72
18.81
12.63
5.91
-1.53
-9.63
-18.06
-26.3
-33.88
-40.55
-46.46
-52.12
-58.32
-65.89
-75.23
-86.04
-97.05
-106.07
-110.53
-108.16
-97.76
-79.66
-55.69
-28.58
-1.29
23.72
44.8
61.09
72.31
78.53
80.01
77.29
71.17
62.72
53.12
43.63
35.32
29.03
25.2
23.89
24.73
27.05
30.0
32.81
34.92
36.05
36.15
35.23
33.21
29.93
25.22
19.01
11.53
3.27
-5.14
-13.13
-20.41
-26.94
-33.0
-38.9
-45.04
-51.79
-59.56
-68.63
-78.91
-89.55
-98.82
-104.3
-103.63
-95.29
-79.34
-57.48
-32.48
-7.33
15.62
34.96
50.11
60.92
67.34
69.29
66.88
60.64
51.66
41.41
31.39
22.86
16.55
12.61
10.74
10.47
11.3
12.89
15.01
17.37
19.47
20.62
20.06
17.28
12.23
5.43
-2.25
-9.92
-16.93
-23.15
-28.86
-34.69
-41.3
-49.31
-59.02
-70.22
-81.91
-92.24
-98.83
-99.35
-92.35
-77.78
-57.1
-32.74
-7.45
16.45
37.35
54.26
66.67
74.28
77.02
75.21
69.56
61.19
51.43
41.55
32.59
25.23
19.78
16.26
14.47
14.13
14.92
16.43
18.16
19.44
19.49
17.58
13.31
6.85
-1.14
-9.6
-17.58
-24.51
-30.51
-36.34
-43.09
-51.79
-62.95
-76.19
-89.97
-101.83
-108.9
-108.71
-99.97
-83.05
-59.88
-33.33
-6.36
18.62
40.07
57.15
69.42
76.63
78.71
75.95
69.19
59.76
49.26
39.25
30.92
24.96
21.51
20.34
20.94
22.76
25.28
28.02
30.52
32.31
32.86
31.7
28.5
23.25
16.28
8.23
-0.21
-8.39
-16.01
-23.07
-29.89
-36.95
-44.81
-53.97
-64.72
-76.82
-89.24
-100.09
-106.88
-107.16
-99.38
-83.47
-60.93
-34.4
-6.8
19.38
42.4
61.24
75.29
84.12
87.46
85.47
78.9
69.16
58.05
47.39
38.58
32.43
29.1
28.28
29.32
31.54
34.29
37.04
39.49
41.46
42.79
43.28
42.57
40.19
35.67
28.77
19.61
8.76
-2.86
-14.33
-24.95
-34.45
-42.97
-50.98
-59.22
-68.41
-79.02
-90.88
-102.81
-112.58
-117.37
-114.58
-102.87
-82.72
-56.38
-27.12
1.77
27.8
49.52
66.26
77.8
84.05
85.12
81.52
74.31
64.93
54.94
45.72
38.23
32.97
30.04
29.16
29.82
31.39
33.28
35.04
36.46
37.38
37.65
37.03
35.17
31.77
26.71
20.12
12.33
3.85
-4.73
-12.87
-20.13
-26.34
-31.64
-36.51
-41.7
-48.04
-56.12
-65.99
-76.88
-87.1
-94.38
-96.38
-91.41
-79.04
-60.22
-37.04
-12.1
12.11
33.63
51.19
64.09
72.12
75.35
74.22
69.46
62.09
53.24
44.06
35.48
28.16
22.4
18.17
15.3
13.57
12.92
13.3
14.6
16.37
17.8
17.9
15.93
11.67
5.56
-1.54
-8.71
-15.38
-21.51
-27.48
-33.93
-41.5
-50.68
-61.6
-73.85
-86.2
-96.69
-102.93
-102.84
-95.34
-80.75
-60.73
-37.66
-14.0
8.24
27.71
43.5
55.05
61.99
64.21
62.05
56.27
48.0
38.5
28.96
20.41
13.57
8.85
6.34
5.8
6.66
8.14
9.42
9.76
8.68
6.02
1.89
-3.4
-9.45
-15.86
-22.33
-28.77
-35.4
-42.8
-51.68
-62.48
-74.8
-87.11
-96.84
-101.07
-97.5
-85.33
-65.51
-40.54
-13.59
12.33
34.98
53.13
66.32
74.54
77.91
76.65
71.16
62.21
50.98
39.05
28.02
19.19
13.28
10.24
9.49
10.15
11.39
12.55
13.24
13.18
12.17
10.02
6.61
1.93
-3.92
-10.79
-18.61
-27.5
-37.65
-49.13
-61.41
-73.13
-82.09
-85.77
-82.13
-70.4
-51.49
-27.75
-2.27
22.04
43.07
59.74
71.68
78.86
81.24
78.9
72.15
61.87
49.49
36.76
25.36
16.51
10.68
7.69
6.89
7.4
8.42
9.37
9.85
9.57
8.31
5.93
2.34
-2.41
-8.2
-14.93
-22.6
-31.38
-41.41
-52.54
-63.95
-74.09
-80.79
-81.87
-75.8
-62.26
-42.29
-18.1
7.45
31.6
52.09
67.49
77.21
81.24
80.04
74.41
65.44
54.49
43.09
32.67
24.35
18.72
15.81
15.25
16.45
18.75
21.45
23.86
25.3
25.15
23.1
19.15
13.63
7.08
-0.01
-7.28
-14.6
-22.17
-30.44
-40.03
-51.34
-64.17
-77.29
-88.43
-94.78
-93.77
-84.08
-66.1
-41.92
-14.66
12.43
36.72
56.49
70.87
79.55
82.63
80.53
74.08
64.54
53.41
42.25
32.27
24.21
18.33
14.54
12.63
12.38
13.54
15.77
18.54
21.12
22.65
22.4
19.86
14.98
8.12
-0.04
-8.64
-16.95
-24.56
-31.51
-38.28
-45.62
-54.22
-64.3
-75.26
-85.54
-92.83
-94.63
-89.02
-75.37
-54.64
-29.12
-1.78
24.54
47.71
66.44
80.04
88.14
90.57
87.49
79.69
68.68
56.48
45.07
35.88
29.47
25.54
23.39
22.31
21.86
21.99
22.71
23.89
25.11
25.62
24.59
21.47
16.16
9.04
0.9
-7.44
-15.34
-22.51
-28.98
-35.13
-41.48
-48.71
-57.4
-67.73
-79.05
-89.7
-97.14
-98.72
-92.55
-78.21
-56.91
-31.11
-3.7
22.68
46.05
65.18
79.28
87.95
91.05
88.81
81.96
71.74
59.75
47.73
37.23
29.26
24.12
21.46
20.55
20.68
21.37
22.46
23.84
25.24
26.07
25.57
23.12
18.47
11.96
4.3
-3.66
-11.27
-18.26
-24.75
-31.12
-37.89
-45.63
-54.78
-65.5
-77.33
-89.03
-98.55
-103.5
-101.79
-92.34
-75.54
-53.09
-27.49
-1.38
22.97
43.91
60.33
71.57
77.33
77.71
73.34
65.37
55.25
44.49
34.37
25.79
19.18
14.63
11.97
10.96
11.35
12.8
14.88
16.94
18.17
17.81
15.34
10.72
4.4
-2.88
-10.34
-17.39
-23.86
-29.95
-36.25
-43.56
-52.68
-64.0
-77.02
-90.11
-100.58
-105.46
-102.38
-90.49
-70.74
-45.57
-18.09
8.75
32.7
52.29
66.71
75.52
78.68
76.61
70.24
60.94
50.31
39.76
30.34
22.66
16.92
13.06
10.94
10.42
11.31
13.3
15.88
18.29
19.69
19.29
16.64
11.71
4.96
-2.89
-11.05
-19.0
-26.66
-34.47
-43.24
-53.81
-66.51
-80.65
-94.38
-104.92
-109.34
-105.44
-92.58
-71.82
-45.63
-17.09
10.85
35.88
56.55
72.06
82.08
86.6
85.9
80.63
71.86
61.07
49.94
40.06
32.61
28.09
26.25
26.31
27.32
28.5
29.4
29.91
30.03
29.66
28.53
26.24
22.39
16.76
9.43
0.82
-8.45
-17.67
-26.32
-34.15
-41.38
-48.55
-56.4
-65.62
-76.59
-88.98
-101.54
-112.1
-117.97
-116.66
-106.69
-88.17
-62.86
-33.63
-3.74
24.04
47.78
66.46
79.66
87.33
89.62
86.92
79.97
69.91
58.24
46.56
36.35
28.64
23.88
21.92
22.19
23.99
26.63
29.59
32.46
34.87
36.4
36.63
35.2
31.81
26.37
19.01
10.14
0.4
-9.47
-18.84
-27.41
-35.24
-42.73
-50.47
-59.04
-68.9
-80.17
-92.41
-104.41
-114.16
-119.12
-116.94
-106.21
-87.07
-61.32
-31.9
-2.05
25.5
48.91
67.25
80.17
87.64
89.79
86.99
79.98
69.9
58.22
46.48
36.12
28.18
23.2
21.16
21.57
23.57
26.23
28.74
30.6
31.68
32.0
31.54
30.13
27.4
22.99
16.81
9.14
0.55
-8.26
-16.77
-24.77
-32.3
-39.61
-46.94
-54.58
-62.9
-72.27
-82.82
-94.0
-104.27
-111.26
-112.26
-105.26
-89.65
-66.61
-38.73
-9.2
19.1
44.1
64.62
80.07
90.12
94.55
93.38
87.09
76.76
63.94
50.52
38.25
28.52
22.04
18.85
18.38
19.79
22.25
25.19
28.26
31.24
33.75
35.22
34.93
32.29
27.07
19.57
10.53
0.92
-8.35
-16.69
-23.98
-30.48
-36.81
-43.74
-51.97
-61.93
-73.41
-85.39
-95.98
-102.77
-103.38
-96.23
-81.04
-58.99
-32.44
-4.18
23.1
47.28
66.99
81.49
90.46
93.95
92.35
86.35
77.0
65.58
53.46
41.91
31.9
23.99
18.3
14.67
12.8
12.48
13.49
15.51
17.97
19.96
20.53
18.94
15.0
9.14
2.15
-5.14
-12.2
-18.98
-25.79
-33.19
-41.74
-51.88
-63.72
-76.74
-89.61
-100.19
-105.88
-104.41
-94.6
-76.85
-53.07
-26.12
0.99
25.8
46.65
62.66
73.5
79.13
79.74
75.82
68.14
57.77
45.96
33.97
22.92
13.64
6.63
2.07
-0.11
-0.19
1.35
3.87
6.52
8.44
8.88
7.47
4.25
-0.36
-5.79
-11.6
-17.6
-23.93
-31.08
-39.58
-49.89
-61.92
-74.69
-86.29
-94.12
-95.65
-89.26
-74.87
-54.09
-29.73
-4.87
17.88
36.92
51.6
61.8
67.6
68.99
66.04
59.15
49.15
37.39
25.42
14.72
6.3
0.59
-2.54
-3.63
-3.39
-2.56
-1.75
-1.42
-1.85
-3.22
-5.55
-8.82
-12.93
-17.88
-23.71
-30.63
-39.02
-49.18
-61.05
-73.76
-85.42
-93.43
-95.11
-88.65
-73.88
-52.36
-27.0
-1.08
22.65
42.46
57.63
68.03
73.68
74.56
70.69
62.46
50.86
37.38
23.71
11.37
1.37
-5.94
-10.72
-13.49
-14.84
-15.3
-15.28
-15.04
-14.81
-14.81
-15.33
-16.71
-19.35
-23.64
-29.97
-38.69
-49.89
-63.13
-77.14
-89.71
-98.0
-99.23
-91.66
-75.23
-51.74
-24.29
3.61
28.96
49.82
65.42
75.71
80.99
81.6
77.83
70.14
59.38
46.86
34.21
23.04
14.51
9.08
6.42
5.75
6.11
6.77
7.26
7.38
6.93
5.69
3.34
-0.39
-5.68
-12.52
-20.85
-30.62
-41.8
-54.26
-67.33
-79.54
-88.58
-91.76
-86.89
-73.09
-51.29
-24.02
5.31
33.35
57.53
76.33
89.06
95.63
96.27
91.56
82.47
70.39
56.96
43.77
32.08
22.69
15.9
11.65
9.76
9.91
11.69
14.51
17.53
19.73
20.15
18.17
13.7
7.21
-0.42
-8.27
-15.75
-22.72
-29.63
-37.34
-46.77
-58.47
-72.18
-86.39
-98.55
-105.53
-104.51
-93.97
-74.19
-47.28
-16.51
14.6
43.07
66.77
84.53
95.82
100.61
99.29
92.77
82.38
69.79
56.71
44.59
34.48
26.91
21.99
19.5
19.09
20.31
22.72
25.84
28.99
31.35
32.04
30.3
25.77
18.7
9.84
0.32
-8.86
-17.05
-24.25
-31.04
-38.32
-47.06
-57.82
-70.44
-83.68
-95.33
-102.57
-102.76
-94.31
-77.21
-53.17
-25.0
4.12
31.43
55.0
73.69
86.92
94.37
95.91
91.8
82.89
70.61
56.88
43.62
32.43
24.16
18.92
16.3
15.59
16.23
17.82
20.12
22.86
25.59
27.61
28.12
26.41
22.13
15.42
6.94
-2.35
-11.46
-19.71
-26.94
-33.56
-40.32
-48.14
-57.74
-69.39
-82.59
-95.86
-106.8
-112.54
-110.46
-99.12
-78.88
-51.87
-21.43
8.89
36.22
58.85
76.08
87.73
93.83
94.41
89.74
80.6
68.4
55.01
42.36
32.01
24.84
21.0
20.06
21.34
24.1
27.63
31.27
34.4
36.48
37.09
36.01
33.22
28.84
23.0
15.86
7.64
-1.34
-10.63
-19.7
-28.12
-35.7
-42.54
-49.02
-55.72
-63.39
-72.69
-83.9
-96.47
-108.77
-118.14
-121.52
-116.43
-101.86
-78.72
-49.63
-18.07
12.55
39.59
61.46
77.44
87.4
91.51
90.2
84.2
74.59
62.77
50.3
38.76
29.49
23.36
20.7
21.22
24.19
28.61
33.47
37.89
41.21
43.02
43.12
41.45
38.05
33.09
26.77
19.31
10.99
2.1
-7.08
-16.3
-25.28
-33.84
-41.92
-49.55
-57.04
-64.88
-73.72
-84.02
-95.63
-107.42
-117.2
-122.15
-119.57
-107.88
-87.21
-59.5
-27.97
3.82
32.85
57.05
75.43
87.75
94.16
95.13
91.32
83.73
73.63
62.49
51.75
42.55
35.67
31.37
29.61
30.08
32.33
35.84
39.98
43.99
47.07
48.48
47.79
44.94
40.31
34.52
28.2
21.68
14.92
7.61
-0.61
-9.79
-19.61
-29.41
-38.45
-46.26
-52.81
-58.58
-64.38
-71.18
-79.78
-90.46
-102.67
-114.73
-124.03
-127.58
-122.88
-108.85
-86.32
-57.78
-26.63
3.83
31.08
53.59
70.66
82.04
87.71
87.92
83.3
74.88
64.09
52.44
41.38
32.05
25.18
20.96
19.2
19.37
20.83
23.02
25.5
28.0
30.26
31.89
32.38
31.11
27.57
21.57
13.38
3.74
-6.36
-15.96
-24.44
-31.72
-38.19
-44.53
-51.5
-59.73
-69.52
-80.71
-92.45
-103.12
-110.46
-112.08
-106.15
-92.17
-71.11
-45.24
-17.4
9.68
33.9
53.84
68.69
77.96
81.53
79.67
73.21
63.46
52.06
40.59
30.36
22.2
16.41
12.88
11.31
11.38
12.79
15.27
18.43
21.58
23.76
23.91
21.26
15.57
7.33
-2.45
-12.56
-22.11
-30.75
-38.71
-46.67
-55.43
-65.69
-77.71
-90.99
-104.1
-114.71
-120.01
-117.56
-106.12
-86.13
-59.68
-29.81
0.29
28.01
51.57
69.91
82.49
89.09
89.88
85.53
77.22
66.57
55.24
44.71
36.0
29.61
25.62
23.81
23.86
25.42
28.11
31.37
34.44
36.33
36.13
33.23
27.58
19.75
10.7
1.44
-7.35
-15.44
-23.1
-30.99
-39.96
-50.7
-63.29
-76.88
-89.49
-98.29
-100.41
-93.83
-78.17
-54.87
-26.72
2.91
30.96
55.08
73.81
86.31
92.3
92.0
86.22
76.34
64.19
51.65
40.3
31.16
24.6
20.53
18.59
18.41
19.64
21.92
24.8
27.61
29.59
29.91
27.98
23.63
17.09
9.02
0.28
-8.28
-16.12
-23.1
-29.59
-36.41
-44.54
-54.71
-66.92
-80.11
-92.12
-100.18
-101.62
-94.78
-79.54
-57.38
-30.99
-3.43
22.54
44.92
62.55
74.95
82.01
83.91
81.02
74.06
64.18
52.85
41.76
32.45
26.06
23.05
23.22
25.82
29.85
34.31
38.39
41.53
43.41
43.88
42.93
40.55
36.79
31.62
25.05
17.17
8.22
-1.31
-10.78
-19.58
-27.35
-34.11
-40.25
-46.43
-53.38
-61.75
-71.9
-83.58
-95.74
-106.46
-113.16
-113.25
-104.94
-87.99
-63.88
-35.43
-6.04
21.2
44.15
61.73
73.64
80.04
81.33
78.03
70.96
61.24
50.27
39.51
30.27
23.45
19.47
18.3
19.58
22.75
27.13
31.98
36.49
39.94
41.72
41.5
39.3
35.44
30.34
24.44
18.04
11.23
4.03
-3.53
-11.33
-19.14
-26.68
-33.73
-40.2
-46.24
-52.28
-58.94
-66.94
-76.72
-88.06
-99.71
-109.36
-114.19
-111.66
-100.49
-81.18
-55.91
-27.83
-0.06
24.96
45.85
62.04
73.4
79.91
81.61
78.74
71.99
62.55
51.92
41.69
33.2
27.31
24.21
23.6
24.78
26.96
29.53
32.06
34.39
36.34
37.64
37.81
36.32
32.73
26.95
19.34
10.62
1.65
-6.84
-14.47
-21.22
-27.41
-33.47
-39.92
-47.31
-56.16
-66.71
-78.58
-90.52
-100.34
-105.4
-103.42
-93.35
-75.73
-52.62
-26.87
-1.27
22.01
41.65
56.92
67.4
72.89
73.42
69.43
61.88
52.15
41.74
31.98
23.77
17.53
13.26
10.81
9.95
10.52
12.31
14.96
17.84
20.04
20.6
18.79
14.38
7.76
-0.19
-8.39
-15.99
-22.64
-28.52
-34.26
-40.68
-48.51
-58.14
-69.41
-81.47
-92.71
-100.91
-103.74
-99.46
-87.47
-68.62
-45.03
-19.4
5.61
27.97
46.36
60.07
68.78
72.41
71.19
65.75
57.09
46.51
35.36
24.85
15.89
9.05
4.54
2.31
2.09
3.43
5.76
8.38
10.52
11.41
10.43
7.3
2.19
-4.36
-11.57
-18.72
-25.47
-31.99
-38.97
-47.33
-57.77
-70.22
-83.48
-95.23
-102.57
-102.88
-94.7
-78.25
-55.38
-28.97
-2.13
22.55
43.3
59.21
69.91
75.43
76.02
72.2
64.85
55.17
44.56
34.34
25.53
18.68
13.93
11.15
10.19
10.9
13.11
16.4
19.97
22.7
23.48
21.55
16.8
9.77
1.46
-7.12
-15.27
-22.81
-30.06
-37.77
-46.85
-57.89
-70.79
-84.35
-96.28
-103.67
-103.82
-95.17
-77.89
-53.86
-26.1
2.19
28.29
50.38
67.45
79.02
84.87
85.08
80.13
71.03
59.35
46.95
35.55
26.38
19.98
16.25
14.7
14.76
16.03
18.27
21.31
24.77
27.96
29.96
29.84
27.02
21.48
13.84
5.09
-3.7
-11.77
-18.85
-25.2
-31.54
-38.79
-47.84
-59.19
-72.49
-86.32
-98.13
-104.87
-103.86
-93.68
-74.78
-49.36
-20.64
8.04
34.02
55.63
72.11
83.22
89.0
89.65
85.64
77.81
67.37
55.84
44.77
35.51
28.99
25.56
24.97
26.52
29.28
32.39
35.23
37.43
38.79
39.12
38.14
35.49
30.88
24.28
15.95
6.49
-3.33
-12.78
-21.38
-28.95
-35.62
-41.74
-47.8
-54.45
-62.32
-71.89
-83.04
-94.74
-104.88
-110.67
-109.39
-99.35
-80.58
-54.86
-25.29
4.7
32.13
54.99
72.32
83.83
89.66
90.14
85.8
77.52
66.58
54.6
43.27
33.99
27.62
24.39
23.94
25.59
28.59
32.22
35.88
39.09
41.41
42.5
42.13
40.19
36.69
31.7
25.39
17.95
9.68
0.94
-7.88
-16.44
-24.51
-32.03
-39.12
-46.03
-53.22
-61.26
-70.71
-81.74
-93.72
-104.99
-112.97
-114.93
-108.79
-94.0
-71.74
-44.55
-15.54
12.45
37.31
57.73
73.01
82.8
87.09
86.23
80.97
72.49
62.12
51.22
41.01
32.46
26.26
22.72
21.76
22.94
25.56
28.85
32.13
34.85
36.64
37.21
36.35
33.9
29.85
24.28
17.44
9.62
1.18
-7.54
-16.18
-24.45
-32.16
-39.3
-46.03
-52.67
-59.69
-67.59
-76.71
-86.93
-97.39
-106.24
-111.03
-109.29
-99.45
-81.42
-56.82
-28.49
0.35
26.88
49.24
66.5
78.41
85.04
86.6
83.5
76.37
66.25
54.49
42.58
31.96
23.76
18.57
16.47
17.05
19.64
23.45
27.74
31.86
35.19
37.24
37.68
36.33
33.22
28.49
22.31
14.84
6.3
-3.04
-12.77
-22.45
-31.69
-40.26
-48.14
-55.56
-62.97
-70.96
-80.04
-90.35
-101.32
-111.33
-117.97
-118.58
-111.17
-95.15
-71.69
-43.41
-13.57
14.76
39.39
59.08
73.43
82.53
86.63
86.11
81.49
73.52
63.22
51.87
40.8
31.24
24.11
19.87
18.54
19.71
22.7
26.7
30.87
34.47
36.91
37.84
37.17
34.96
31.32
26.37
20.16
12.77
4.39
-4.68
-13.97
-23.08
-31.68
-39.66
-47.08
-54.24
-61.57
-69.62
-78.91
-89.51
-100.68
-110.61
-116.71
-116.28
-107.42
-89.9
-65.27
-36.42
-6.68
21.05
44.83
63.71
77.38
85.79
89.07
87.47
81.56
72.29
60.98
49.06
37.93
28.72
22.2
18.69
18.06
19.81
23.17
27.29
31.37
34.76
37.02
37.89
37.19
34.85
30.9
25.43
18.65
10.85
2.43
-6.22
-14.74
-22.82
-30.34
-37.32
-43.97
-50.64
-57.8
-65.95
-75.44
-86.18
-97.31
-107.06
-112.93
-112.4
-103.72
-86.69
-62.79
-34.78
-5.82
21.3
44.73
63.48
77.1
85.42
88.38
86.2
79.51
69.39
57.29
44.76
33.24
23.9
17.48
14.22
13.95
16.05
19.67
23.92
28.04
31.47
33.83
34.81
34.21
31.87
27.81
22.18
15.3
7.6
-0.53
-8.74
-16.79
-24.52
-31.82
-38.67
-45.25
-51.92
-59.28
-67.93
-78.13
-89.28
-99.8
-107.26
-109.09
-103.38
-89.58
-68.76
-43.23
-15.81
10.87
34.85
54.91
70.34
80.72
85.79
85.51
80.27
70.96
59.0
46.11
33.99
24.02
16.98
13.03
11.81
12.74
15.13
18.39
22.0
25.47
28.33
30.14
30.54
29.32
26.44
21.97
16.1
9.18
1.6
-6.22
-13.89
-21.16
-28.04
-34.77
-41.79
-49.63
-58.8
-69.49
-81.29
-92.93
-102.36
-107.08
-104.91
-94.74
-76.99
-53.53
-27.08
-0.49
23.98
44.84
61.3
72.97
79.59
81.14
77.91
70.71
60.73
49.51
38.57
29.23
22.37
18.36
17.05
17.88
20.07
22.91
25.8
28.38
30.38
31.47
31.28
29.34
25.34
19.22
11.35
2.43
-6.7
-15.24
-22.78
-29.29
-35.16
-41.05
-47.78
-56.03
-66.13
-77.74
-89.65
-99.73
-105.42
-104.38
-95.28
-78.32
-55.19
-28.59
-1.43
23.82
45.48
62.56
74.56
81.22
82.49
78.68
70.56
59.48
47.15
35.35
25.52
18.45
14.25
12.43
12.32
13.32
15.11
17.6
20.62
23.74
26.17
26.98
25.4
21.17
14.66
6.69
-1.78
-9.95
-17.41
-24.19
-30.58
-37.02
-44.05
-52.23
-62.01
-73.35
-85.4
-96.3
-103.44
-104.24
-97.07
-81.81
-59.97
-34.14
-7.18
18.46
41.1
59.62
73.33
81.72
84.51
81.9
74.63
64.01
51.75
39.65
29.27
21.67
17.18
15.48
15.85
17.44
19.66
22.22
24.99
27.8
30.17
31.36
30.56
27.18
21.19
13.1
3.87
-5.48
-14.15
-21.76
-28.45
-34.73
-41.32
-48.99
-58.32
-69.39
-81.51
-93.03
-101.55
-104.46
-99.76
-86.82
-66.61
-41.47
-14.38
11.86
35.18
54.33
68.61
77.67
81.35
79.78
73.57
63.86
52.29
40.57
30.24
22.32
17.21
14.74
14.37
15.44
17.42
19.99
22.91
25.91
28.49
29.86
29.23
26.03
20.24
12.46
3.66
-5.12
-13.14
-20.14
-26.37
-32.42
-39.0
-46.77
-56.11
-66.88
-78.17
-88.28
-94.89
-95.77
-89.39
-75.52
-55.35
-31.11
-5.5
19.0
40.48
57.65
69.7
76.28
77.38
73.4
65.28
54.36
42.23
30.46
20.3
12.55
7.43
4.77
4.19
5.3
7.71
11.0
14.51
17.33
18.44
17.04
12.84
6.23
-1.87
-10.38
-18.44
-25.63
-32.13
-38.6
-45.92
-54.95
-66.05
-78.65
-91.1
-100.76
-104.69
-100.57
-87.55
-66.6
-40.21
-11.62
16.11
40.67
60.71
75.56
84.91
88.68
87.01
80.6
70.72
59.12
47.69
37.98
30.9
26.62
24.72
24.56
25.45
26.97
28.86
30.94
32.85
33.98
33.53
30.76
25.29
17.33
7.71
-2.41
-11.91
-20.09
-26.99
-33.16
-39.59
-47.23
-56.72
-68.1
-80.51
-92.16
-100.5
-102.86
-97.23
-82.96
-61.11
-34.22
-5.54
21.79
45.43
64.08
77.27
85.06
87.67
85.49
79.12
69.58
58.27
46.85
36.94
29.74
25.76
24.82
26.17
28.86
31.98
34.93
37.37
39.12
40.02
39.79
38.05
34.41
28.6
20.73
11.3
1.12
-8.87
-17.91
-25.63
-32.11
-37.77
-43.22
-49.08
-55.95
-64.2
-73.85
-84.16
-93.56
-99.74
-100.2
-93.11
-77.96
-55.94
-29.55
-1.91
24.1
46.3
63.44
75.0
80.94
81.58
77.57
69.87
59.87
49.08
38.98
30.74
25.12
22.31
22.15
24.16
27.77
32.36
37.27
41.79
45.2
46.8
46.12
43.05
37.91
31.4
24.34
17.41
10.93
4.81
-1.32
-7.86
-14.97
-22.44
-29.85
-36.71
-42.73
-47.96
-52.76
-57.79
-63.81
-71.49
-81.07
-91.99
-102.64
-110.51
-112.74
-107.09
-92.69
-70.49
-43.01
-13.54
14.76
39.46
59.17
73.29
81.74
84.74
82.76
76.57
67.35
56.56
45.87
36.86
30.69
27.95
28.45
31.49
36.02
41.11
46.08
50.53
54.18
56.66
57.46
56.06
52.18
45.99
38.18
29.69
21.45
14.01
7.44
1.36
-4.83
-11.62
-19.16
-27.21
-35.21
-42.54
-48.77
-53.83
-57.97
-61.75
-65.85
-71.01
-77.88
-86.71
-96.95
-106.95
-114.16
-115.68
-109.35
-94.53
-72.39
-45.59
-17.35
9.41
32.59
51.03
64.26
72.2
75.0
73.1
67.27
58.62
48.48
38.28
29.34
22.78
19.23
18.81
21.12
25.4
30.74
36.23
41.11
44.76
46.67
46.53
44.26
40.08
34.44
27.81
20.54
12.79
4.58
-4.0
-12.75
-21.28
-29.2
-36.28
-42.61
-48.57
-54.75
-61.81
-70.19
-79.93
-90.31
-99.74
-105.96
-106.57
-99.78
-85.15
-63.79
-38.07
-10.9
15.01
37.7
56.04
69.48
77.8
80.99
79.33
73.55
64.84
54.72
44.73
36.13
29.72
25.83
24.41
25.2
27.82
31.78
36.48
41.19
45.08
47.4
47.6
45.43
41.03
34.85
27.59
19.93
12.43
5.35
-1.43
-8.19
-15.26
-22.72
-30.38
-37.84
-44.68
-50.65
-55.83
-60.62
-65.69
-71.85
-79.66
-89.16
-99.42
-108.5
-113.71
-112.46
-103.12
-85.69
-61.87
-34.49
-6.64
19.07
40.92
58.03
70.05
76.9
78.68
75.76
68.86
59.16
48.13
37.29
28.03
21.37
17.8
17.33
19.53
23.67
28.93
34.44
39.37
43.02
44.81
44.4
41.77
37.22
31.26
24.51
17.47
10.43
3.38
-3.85
-11.45
-19.43
-27.55
-35.38
-42.47
-48.65
-54.13
-59.56
-65.8
-73.55
-82.93
-93.11
-102.32
-108.11
-108.05
-100.46
-84.99
-62.77
-36.15
-8.05
18.75
42.1
60.7
73.96
81.81
84.5
82.49
76.48
67.48
56.7
45.48
35.09
26.56
20.55
17.33
16.83
18.68
22.27
26.81
31.41
35.24
37.68
38.48
37.65
35.38
31.83
27.04
20.94
13.53
5.06
-4.05
-13.23
-21.96
-29.99
-37.38
-44.4
-51.45
-58.94
-67.26
-76.66
-86.99
-97.43
-106.39
-111.64
-110.95
-102.81
-87.03
-64.93
-38.92
-11.85
13.75
36.01
53.83
66.62
74.12
76.25
73.3
66.03
55.67
43.84
32.19
22.16
14.66
9.98
7.9
7.93
9.51
12.25
15.83
19.95
24.07
27.39
28.92
27.81
23.68
16.78
8.0
-1.48
-10.58
-18.74
-25.98
-32.87
-40.23
-48.86
-59.24
-71.3
-84.18
-96.12
-104.67
-107.2
-101.77
-87.78
-66.31
-39.84
-11.49
15.82
39.96
59.69
74.41
83.88
87.98
86.87
81.11
71.81
60.52
48.94
38.61
30.59
25.3
22.6
21.95
22.66
24.16
26.05
28.16
30.34
32.3
33.5
33.18
30.59
25.27
17.34
7.52
-3.04
-13.17
-22.08
-29.65
-36.34
-42.98
-50.42
-59.32
-69.9
-81.84
-94.08
-104.73
-111.33
-111.41
-103.28
-86.68
-63.01
-34.94
-5.64
22.0
45.91
64.85
78.24
85.85
87.72
84.24
76.26
65.1
52.49
40.18
29.68
21.98
17.45
15.84
16.53
18.77
21.87
25.33
28.76
31.86
34.21
35.31
34.62
31.72
26.45
19.04
10.05
0.31
-9.35
-18.29
-26.28
-33.47
-40.4
-47.77
-56.25
-66.21
-77.45
-88.97
-98.92
-104.91
-104.58
-96.38
-80.11
-57.11
-29.89
-1.4
25.62
49.13
67.87
81.22
88.94
91.1
88.05
80.57
69.88
57.58
45.31
34.6
26.5
21.43
19.17
19.11
20.45
22.52
24.96
27.6
30.24
32.52
33.76
33.21
30.22
24.63
16.8
7.58
-2.0
-11.1
-19.33
-26.78
-33.95
-41.5
-50.08
-60.07
-71.44
-83.47
-94.66
-102.89
-105.83
-101.62
-89.54
-70.33
-46.02
-19.29
7.19
31.25
51.39
66.71
76.66
80.99
79.87
73.98
64.49
52.95
41.02
30.17
21.5
15.57
12.45
11.76
12.89
15.25
18.36
21.82
25.13
27.59
28.33
26.56
21.96
14.93
6.46
-2.19
-10.01
-16.58
-22.21
-27.7
-34.05
-42.14
-52.45
-64.73
-77.86
-89.75
-97.69
-99.02
-92.02
-76.56
-54.2
-27.77
-0.43
25.1
46.99
64.3
76.56
83.55
85.17
81.66
73.74
62.8
50.6
38.95
29.32
22.52
18.65
17.28
17.69
19.2
21.35
23.86
26.53
29.0
30.69
30.81
28.68
23.89
16.63
7.61
-2.13
-11.54
-19.94
-27.11
-33.4
-39.48
-46.16
-54.14
-63.7
-74.54
-85.52
-94.72
-99.74
-98.31
-89.05
-72.04
-48.93
-22.51
4.08
28.14
47.97
62.85
72.72
77.81
78.37
74.72
67.53
57.88
47.32
37.48
29.69
24.68
22.49
22.58
24.16
26.49
28.99
31.37
33.49
35.14
36.02
35.64
33.44
29.05
22.4
13.9
4.34
-5.33
-14.29
-22.09
-28.73
-34.64
-40.47
-46.94
-54.65
-63.94
-74.57
-85.65
-95.38
-101.45
-101.52
-94.0
-78.65
-56.77
-30.89
-4.04
21.05
42.4
58.92
70.19
76.22
77.18
73.49
65.89
55.59
44.11
33.08
23.9
17.46
13.95
12.95
13.72
15.46
17.56
19.77
21.98
24.1
25.78
26.42
25.31
21.89
16.06
8.28
-0.62
-9.59
-17.82
-24.84
-30.69
-35.75
-40.7
-46.31
-53.28
-61.93
-71.87
-81.78
-89.54
-92.74
-89.45
-78.9
-61.77
-39.92
-15.8
8.18
30.07
48.44
62.29
70.9
73.98
71.68
64.86
54.86
43.4
32.11
22.25
14.53
9.18
6.0
4.65
4.71
5.86
7.8
10.23
12.66
14.48
15.01
13.61
9.97
4.2
-3.16
-11.3
-19.43
-27.01
-33.96
-40.66
-47.8
-56.08
-65.94
-77.18
-88.66
-98.4
-103.84
-102.6
-93.25
-75.9
-52.29
-25.27
1.99
26.84
47.53
63.21
73.59
78.65
78.54
73.69
65.0
53.89
42.1
31.31
22.69
16.87
13.78
12.99
13.9
15.98
18.79
21.93
24.94
27.21
28.03
26.72
22.88
16.55
8.3
-0.96
-10.23
-18.76
-26.31
-33.15
-39.94
-47.46
-56.34
-66.79
-78.32
-89.66
-98.73
-103.06
-100.47
-89.78
-71.32
-46.94
-19.5
7.92
32.77
53.45
69.18
79.78
85.23
85.56
81.05
72.37
60.82
48.15
36.23
26.53
19.82
16.11
14.82
15.25
16.86
19.34
22.46
25.79
28.61
29.98
29.02
25.3
18.93
10.61
1.33
-7.88
-16.25
-23.47
-29.76
-35.78
-42.43
-50.6
-60.76
-72.59
-84.81
-95.2
-101.1
-100.14
-90.98
-73.78
-50.26
-23.15
4.45
29.88
51.24
67.55
78.41
83.83
84.01
79.44
71.01
60.06
48.22
37.17
28.29
22.32
19.34
18.81
19.96
22.02
24.45
26.96
29.41
31.63
33.27
33.77
32.49
28.94
22.97
14.99
5.77
-3.65
-12.42
-20.04
-26.53
-32.33
-38.13
-44.68
-52.6
-62.19
-73.19
-84.57
-94.48
-100.48
-100.19
-92.11
-76.11
-53.68
-27.43
-0.35
24.9
46.5
63.38
75.04
81.28
82.12
77.94
69.61
58.45
46.11
34.18
23.91
16.09
10.94
8.3
7.79
9.01
11.59
15.17
19.28
23.24
26.16
27.09
25.34
20.74
13.73
5.24
-3.65
-12.08
-19.74
-26.84
-33.94
-41.68
-50.6
-60.83
-71.97
-82.91
-91.85
-96.59
-95.05
-85.98
