0
-62.46
-48.33
-30.96
-12.87
3.69
17.2
27.05
33.36
36.61
37.41
36.3
33.84
30.69
27.6
25.29
24.24
24.61
26.15
28.37
30.67
32.59
33.8
34.09
33.33
31.3
27.91
23.15
17.3
10.9
4.54
-1.27
-6.38
-11.05
-15.86
-21.56
-28.75
-37.6
-47.69
-57.83
-66.2
-70.75
-69.75
-62.43
-49.37
-32.41
-14.15
2.83
16.67
26.59
32.73
35.78
36.51
35.57
33.47
30.67
27.74
25.26
23.71
23.35
24.11
25.66
27.49
29.13
30.14
30.25
29.33
27.36
24.42
20.63
16.17
11.23
6.08
0.97
-3.99
-8.88
-14.05
-20.06
-27.34
-35.85
-44.88
-52.98
-58.33
-59.24
-54.76
-44.97
-31.1
-15.09
0.87
14.93
25.9
33.35
37.47
38.7
37.59
34.63
30.36
25.4
20.56
16.68
14.4
13.99
15.23
17.51
20.05
22.12
23.17
22.85
21.05
17.84
13.46
8.24
2.61
-3.04
-8.39
-13.32
-18.0
-22.83
-28.4
-35.19
-43.22
-51.76
-59.29
-63.85
-63.6
-57.56
-46.03
-30.48
-13.16
3.56
17.85
28.58
35.44
38.62
38.65
36.22
32.09
27.16
22.35
18.49
16.15
15.5
16.35
18.18
20.32
22.15
23.2
23.22
22.13
19.98
16.86
12.87
8.13
2.76
-3.03
-8.92
-14.65
-19.98
-25.01
-30.11
-35.94
-43.09
-51.66
-60.9
-69.16
-74.23
-74.09
-67.69
-55.34
-38.77
-20.5
-3.08
11.62
22.7
30.17
34.53
36.38
36.21
34.43
31.53
28.11
24.88
22.43
21.13
20.99
21.77
23.12
24.69
26.19
27.29
27.66
26.93
24.81
21.17
16.11
9.99
3.33
-3.29
-9.37
-14.63
-19.12
-23.35
-28.12
-34.25
-42.03
-50.89
-59.24
-64.9
-65.75
-60.59
-49.56
-34.17
-16.79
0.07
14.42
25.2
32.19
35.77
36.55
35.09
31.92
27.61
22.84
18.48
15.37
14.09
14.8
17.09
20.16
23.11
25.17
25.85
25.05
22.88
19.57
15.43
10.72
5.7
0.58
-4.53
-9.68
-15.08
-21.09
-28.03
-36.01
-44.65
-52.91
-59.2
-61.72
-59.06
-50.7
-37.39
-20.93
-3.7
12.03
24.66
33.53
38.73
40.8
40.32
37.77
33.6
28.35
22.75
17.7
13.99
12.11
12.05
13.42
15.53
17.65
19.16
19.55
18.51
15.88
11.74
6.41
0.39
-5.77
-11.65
-17.13
-22.34
-27.64
-33.48
-40.23
-48.02
-56.51
-64.71
-71.12
-73.94
-71.64
-63.54
-50.16
-33.17
-14.95
2.09
16.18
26.43
32.82
35.87
36.26
34.66
31.64
27.8
23.8
20.45
18.38
17.96
19.07
21.15
23.44
25.3
26.39
26.7
26.3
25.22
23.24
20.08
15.57
9.85
3.41
-3.08
-9.08
-14.35
-19.13
-24.02
-29.75
-36.9
-45.56
-55.11
-64.13
-70.71
-72.9
-69.4
-60.02
-45.84
-28.84
-11.39
4.45
17.28
26.5
32.13
34.58
34.46
32.46
29.32
25.86
22.84
20.86
20.25
21.0
22.74
24.95
27.04
28.63
29.55
29.76
29.24
27.86
25.39
21.67
16.77
11.05
5.09
-0.6
-5.66
-10.05
-14.08
-18.26
-23.22
-29.48
-37.23
-46.0
-54.55
-61.02
-63.45
-60.42
-51.68
-38.25
-22.14
-5.7
9.09
20.97
29.48
34.7
36.99
36.73
34.37
30.48
25.84
21.44
18.2
16.8
17.45
19.79
23.03
26.24
28.66
29.83
29.64
28.15
25.47
21.7
16.95
11.47
5.6
-0.2
-5.65
-10.68
-15.55
-20.77
-26.91
-34.36
-43.01
-52.08
-60.03
-64.95
-64.99
-59.12
-47.61
-32.02
-14.72
1.88
15.97
26.67
33.9
37.92
39.1
37.79
34.52
30.1
25.6
22.08
20.26
20.26
21.65
23.71
25.76
27.39
28.44
28.92
28.82
27.93
25.97
22.62
17.76
11.56
4.5
-2.77
-9.59
-15.51
-20.46
-24.75
-29.03
-34.16
-40.89
-49.55
-59.7
-69.97
-78.28
-82.38
-80.51
-72.14
-58.12
-40.45
-21.69
-4.13
10.69
22.1
30.16
35.17
37.5
37.44
35.43
32.13
28.49
25.56
24.17
24.68
26.84
29.94
33.08
35.55
36.97
37.38
37.04
36.19
34.88
32.9
29.88
25.51
19.76
12.96
5.77
-1.08
-7.08
-12.1
-16.43
-20.63
-25.32
-31.03
-38.11
-46.6
-56.03
-65.32
-72.74
-76.33
-74.39
-66.23
-52.52
-35.12
-16.54
0.91
15.59
26.8
34.52
39.02
40.65
39.76
36.87
32.78
28.49
25.06
23.29
23.53
25.53
28.64
31.94
34.64
36.26
36.75
36.34
35.32
33.83
31.68
28.51
23.98
18.04
11.07
3.79
-3.02
-8.76
-13.27
-16.85
-20.15
-23.99
-29.05
-35.72
-43.81
-52.55
-60.54
-66.05
-67.39
-63.41
-53.95
-39.91
-23.08
-5.61
10.56
24.08
34.31
41.1
44.6
45.05
42.87
38.72
33.61
28.74
25.21
23.74
24.44
26.87
30.26
33.83
36.93
39.19
40.32
40.11
38.32
34.82
29.72
23.38
16.44
9.54
3.1
-2.79
-8.44
-14.35
-21.12
-29.2
-38.78
-49.57
-60.68
-70.58
-77.3
-78.99
-74.5
-63.9
-48.54
-30.78
-13.22
1.98
13.49
20.91
24.53
24.96
22.93
19.17
14.5
9.82
6.06
3.94
3.76
5.3
7.89
10.71
13.09
14.82
16.01
16.89
17.48
17.42
16.12
13.07
8.21
1.99
-4.73
-11.1
-16.56
-21.09
-25.1
-29.31
-34.43
-40.99
-49.15
-58.43
-67.69
-75.13
-78.66
-76.59
-68.13
-53.88
-35.66
-16.0
2.64
18.51
30.74
39.26
44.39
46.53
46.02
43.34
39.18
34.53
30.52
28.08
27.63
28.91
31.16
33.38
34.8
35.16
34.65
33.7
32.59
31.26
29.24
25.99
21.18
14.93
7.84
0.68
-5.84
-11.38
-15.98
-20.03
-24.12
-28.89
-34.91
-42.54
-51.65
-61.36
-70.02
-75.54
-75.96
-70.22
-58.56
-42.53
-24.47
-6.78
8.7
20.93
29.6
34.87
37.08
36.66
34.12
30.19
25.79
21.9
19.39
18.72
19.93
22.55
25.87
29.13
31.74
33.38
33.9
33.26
31.37
28.16
23.63
17.98
11.63
5.11
-1.08
-6.68
-11.7
-16.52
-21.73
-27.97
-35.59
-44.36
-53.22
-60.4
-63.81
-61.84
-53.87
-40.73
-24.35
-7.17
8.62
21.61
31.21
37.39
40.38
40.39
37.77
33.08
27.23
21.35
16.54
13.57
12.75
13.9
16.47
19.71
22.81
25.02
25.79
24.87
22.28
18.34
13.47
8.11
2.59
-2.9
-8.35
-13.87
-19.72
-26.25
-33.75
-42.27
-51.24
-59.45
-65.09
-66.35
-61.94
-51.79
-37.08
-19.96
-2.86
12.27
24.26
32.79
38.04
40.36
40.1
37.67
33.73
29.2
25.12
22.36
21.36
21.99
23.7
25.81
27.79
29.36
30.4
30.83
30.39
28.67
25.3
20.1
13.32
5.54
-2.44
-9.9
-16.42
-21.96
-26.88
-31.8
-37.49
-44.54
-53.1
-62.51
-71.24
-77.13
-78.08
-72.81
-61.39
-45.33
-27.06
-9.09
6.67
19.26
28.54
34.8
38.37
39.56
38.65
36.2
33.01
30.1
28.36
28.28
29.83
32.45
35.29
37.56
38.79
38.94
38.27
37.09
35.48
33.25
29.97
25.34
19.34
12.38
5.14
-1.67
-7.57
-12.44
-16.61
-20.7
-25.47
-31.59
-39.42
-48.74
-58.63
-67.44
-73.18
-74.02
-68.92
-58.0
-42.56
-24.72
-6.81
9.25
22.24
31.73
37.8
40.86
41.38
39.95
37.26
34.14
31.46
29.99
30.12
31.76
34.36
37.14
39.33
40.5
40.59
39.86
38.62
37.02
34.94
32.06
28.05
22.84
16.66
10.03
3.6
-2.08
-6.75
-10.5
-13.8
-17.33
-21.85
-27.96
-35.86
-45.15
-54.71
-62.81
-67.5
-67.1
-60.83
-49.07
-33.32
-15.81
1.17
15.83
27.21
35.08
39.67
41.44
40.8
38.28
34.58
30.64
27.5
25.96
26.3
28.15
30.7
33.04
34.5
34.88
34.39
33.42
32.23
30.82
28.87
25.95
21.76
16.28
9.87
3.21
-3.02
-8.27
-12.42
-15.81
-19.08
-22.93
-27.97
-34.46
-42.3
-50.81
-58.75
-64.4
-65.93
-61.97
-52.16
-37.48
-19.96
-2.16
13.62
25.91
34.14
38.47
39.41
37.67
34.0
29.34
24.71
21.06
19.05
18.77
19.83
21.52
23.12
24.14
24.4
24.02
23.18
22.0
20.4
18.17
15.02
10.81
5.63
-0.13
-5.89
-11.09
-15.39
-18.88
-22.0
-25.45
-29.86
-35.52
-42.18
-48.93
-54.38
-56.96
-55.36
-48.99
-38.21
-24.35
-9.33
4.83
16.52
24.86
29.68
31.37
30.54
27.83
23.84
19.2
14.59
10.76
8.34
7.71
8.87
11.41
14.61
17.67
19.9
20.83
20.26
18.26
15.06
10.95
6.27
1.36
-3.48
-8.07
-12.35
-16.41
-20.57
-25.26
-30.85
-37.35
-44.13
-49.85
-52.8
-51.41
-44.93
-33.88
-19.89
-5.19
8.11
18.63
25.84
29.86
31.07
29.86
26.54
21.56
15.62
9.66
4.73
1.66
0.82
2.06
4.7
7.82
10.51
12.07
12.16
10.79
8.19
4.7
0.66
-3.7
-8.22
-12.85
-17.66
-22.82
-28.58
-35.16
-42.56
-50.35
-57.55
-62.73
-64.31
-61.04
-52.52
-39.41
-23.45
-6.93
7.87
19.3
26.68
30.18
30.54
28.65
25.28
21.04
16.47
12.13
8.54
6.16
5.17
5.45
6.66
8.33
10.02
11.37
12.1
11.94
10.68
8.17
4.37
-0.56
-6.27
-12.28
-18.12
-23.48
-28.38
-33.16
-38.38
-44.51
-51.57
-58.8
-64.81
-67.85
-66.37
-59.66
-48.08
-33.07
-16.68
-1.05
12.1
21.79
27.76
30.36
30.26
28.27
25.17
21.74
18.57
16.21
14.95
14.88
15.9
17.64
19.7
21.66
23.14
23.84
23.51
21.97
19.08
14.88
9.56
3.57
-2.55
-8.2
-12.99
-16.91
-20.28
-23.8
-28.25
-34.15
-41.57
-49.82
-57.5
-62.78
-63.9
-59.71
-50.15
-36.32
-20.19
-4.04
10.16
21.22
28.71
32.83
34.09
33.06
30.36
26.7
22.86
19.61
17.58
17.09
18.07
20.11
22.59
24.91
26.57
27.33
27.21
26.38
25.03
23.21
20.7
17.19
12.41
6.44
-0.27
-6.97
-12.86
-17.46
-20.81
-23.46
-26.22
-29.95
-35.22
-42.11
-50.05
-57.77
-63.53
-65.52
-62.41
-53.82
-40.55
-24.37
-7.57
7.75
20.09
28.71
33.47
34.7
32.96
29.06
24.02
18.96
14.93
12.66
12.4
13.91
16.54
19.58
22.43
24.76
26.48
27.55
27.88
27.21
25.22
21.73
16.89
11.16
5.24
-0.28
-5.07
-9.21
-13.03
-16.98
-21.53
-26.95
-33.3
-40.2
-46.76
-51.6
-53.2
-50.38
-42.75
-30.94
-16.47
-1.32
12.68
24.14
32.34
37.12
38.6
37.17
33.42
28.16
22.43
17.4
14.0
12.81
13.8
16.41
19.76
22.91
25.19
26.31
26.26
25.24
23.43
20.88
17.51
13.23
8.02
2.07
-4.17
-10.12
-15.3
-19.56
-23.23
-26.97
-31.59
-37.69
-45.42
-54.29
-63.13
-70.27
-73.87
-72.42
-65.23
-52.77
-36.65
-19.17
-2.68
11.13
21.48
28.45
32.5
34.09
33.61
31.41
28.03
24.34
21.33
19.76
20.0
21.83
24.61
27.61
30.18
31.99
32.93
33.09
32.54
31.31
29.31
26.37
22.32
17.18
11.17
4.74
-1.56
-7.26
-12.08
-16.09
-19.58
-23.0
-26.9
-31.76
-37.99
-45.64
-54.29
-62.9
-69.92
-73.57
-72.41
-65.8
-54.17
-38.98
-22.31
-6.25
7.54
18.24
25.81
30.73
33.65
35.09
35.35
34.63
33.17
31.4
29.96
29.41
30.1
31.93
34.42
36.96
38.97
40.12
40.27
39.47
37.83
35.46
32.44
28.81
24.6
19.85
14.62
9.1
3.6
-1.51
-5.96
-9.65
-12.77
-15.69
-18.85
-22.65
-27.44
-33.48
-40.9
-49.47
-58.35
-66.06
-70.76
-70.73
-65.07
-54.12
-39.4
-23.15
-7.64
5.46
15.3
21.86
25.56
26.94
26.51
24.78
22.29
19.75
17.93
17.52
18.87
21.85
25.83
29.87
33.11
34.99
35.45
34.82
33.55
31.89
29.8
26.97
23.03
17.92
11.95
5.73
-0.02
-4.78
-8.39
-11.09
-13.38
-15.95
-19.47
-24.47
-31.07
-38.91
-47.04
-53.98
-58.01
-57.71
-52.36
-42.24
-28.62
-13.4
1.34
13.97
23.51
29.7
32.86
33.5
32.17
29.35
25.6
21.61
18.29
16.47
16.65
18.74
22.04
25.48
28.09
29.35
29.34
28.49
27.28
25.86
23.99
21.22
17.17
11.79
5.47
-1.15
-7.37
-12.68
-16.91
-20.29
-23.35
-26.79
-31.34
-37.5
-45.33
-54.26
-63.06
-69.96
-73.09
-71.0
-63.17
-50.31
-34.19
-17.17
-1.51
11.24
20.52
26.52
29.93
31.42
31.48
30.44
28.63
26.53
24.79
24.04
24.71
26.78
29.84
33.16
35.97
37.72
38.17
37.42
35.74
33.42
30.65
27.45
23.71
19.35
14.4
9.02
3.53
-1.77
-6.64
-11.0
-14.92
-18.57
-22.22
-26.19
-30.88
-36.68
-43.9
-52.42
-61.5
-69.63
-74.89
-75.39
-70.03
-58.93
-43.45
-25.87
-8.61
6.37
17.97
26.02
30.91
33.34
34.01
33.56
32.54
31.49
30.88
31.08
32.27
34.37
37.06
39.92
42.47
44.38
45.42
45.53
44.7
43.01
40.5
37.28
33.5
29.36
25.03
20.64
16.18
11.6
6.83
1.9
-2.99
-7.63
-11.83
-15.59
-19.07
-22.63
-26.74
-31.92
-38.53
-46.6
-55.57
-64.15
-70.5
-72.66
-69.22
-59.89
-45.7
-28.77
-11.59
3.63
15.6
23.99
29.2
31.91
32.77
32.16
30.38
27.88
25.35
23.64
23.5
25.21
28.44
32.4
36.04
38.61
39.76
39.66
38.69
37.22
35.39
33.16
30.33
26.73
22.31
17.16
11.52
5.7
0.08
-4.99
-9.29
-12.81
-15.81
-18.74
-22.19
-26.67
-32.51
-39.66
-47.56
-55.09
-60.65
-62.49
-59.26
-50.52
-37.05
-20.73
-3.99
10.96
22.66
30.67
35.27
37.08
36.66
34.43
30.82
26.47
22.3
19.33
18.34
19.55
22.54
26.41
30.17
32.97
34.39
34.43
33.36
31.56
29.28
26.58
23.26
19.07
13.83
7.61
0.83
-5.89
-11.92
-16.88
-20.7
-23.75
-26.62
-29.99
-34.48
-40.52
-48.15
-56.88
-65.67
-72.91
-76.85
-75.99
-69.59
-57.93
-42.34
-24.83
-7.61
7.44
19.19
27.25
31.9
33.8
33.67
32.18
29.9
27.39
25.19
23.85
23.73
24.9
27.14
29.94
32.74
35.1
36.74
37.48
37.26
36.02
33.82
30.82
27.24
23.31
19.11
14.65
9.86
4.74
-0.58
-5.83
-10.76
-15.24
-19.26
-22.97
-26.64
-30.62
-35.37
-41.37
-48.89
-57.62
-66.51
-73.81
-77.49
-75.92
-68.41
-55.53
-39.0
-21.17
-4.37
9.63
19.93
26.52
29.98
31.15
30.85
29.65
27.94
26.05
24.35
23.28
23.2
24.32
26.47
29.26
32.13
34.64
36.45
37.36
37.21
35.88
33.34
29.7
25.25
20.41
15.54
10.86
6.35
1.85
-2.74
-7.42
-12.0
-16.24
-19.99
-23.27
-26.34
-29.61
-33.58
-38.68
-45.16
-52.84
-60.96
-68.14
-72.62
-72.73
-67.48
-56.95
-42.35
-25.7
-9.24
5.18
16.42
24.13
28.54
30.14
29.5
27.18
23.74
19.84
16.25
13.77
13.05
14.33
17.31
21.24
25.12
28.12
29.81
30.26
29.79
28.73
27.13
24.77
21.28
16.46
10.42
3.59
-3.32
-9.66
-14.95
-19.07
-22.27
-25.11
-28.28
-32.42
-37.95
-44.86
-52.66
-60.27
-66.17
-68.71
-66.53
-59.09
-46.91
-31.54
-15.11
0.3
13.17
22.81
29.21
32.72
33.68
32.36
29.13
24.59
19.67
15.51
13.12
13.02
15.12
18.74
22.86
26.44
28.79
29.63
29.17
27.82
25.96
23.72
20.9
17.09
12.0
5.68
-1.43
-8.59
-15.1
-20.57
-25.01
-28.81
-32.51
-36.79
-42.28
-49.42
-58.25
-68.12
-77.55
-84.45
-86.71
-82.9
-72.88
-57.85
-39.99
-21.75
-5.13
8.64
19.13
26.42
30.89
32.93
32.98
31.53
29.24
26.82
25.05
24.54
25.63
28.27
31.93
35.86
39.26
41.58
42.61
42.55
41.69
40.28
38.31
35.54
31.64
26.47
20.15
13.13
6.04
-0.52
-6.18
-10.91
-14.98
-18.92
-23.29
-28.6
-35.26
-43.39
-52.75
-62.56
-71.4
-77.41
-78.76
-74.2
-63.67
-48.39
-30.64
-12.93
2.66
15.01
23.96
29.91
33.37
34.7
34.07
31.79
28.56
25.4
23.41
23.37
25.36
28.83
32.78
36.28
38.77
40.23
40.94
41.21
41.0
39.92
37.43
33.11
27.03
19.79
12.3
5.52
0.02
-4.17
-7.5
-10.73
-14.64
-19.81
-26.52
-34.67
-43.64
-52.23
-58.77
-61.48
-58.96
-50.83
-37.94
-22.13
-5.68
9.37
21.76
31.04
37.35
40.99
42.24
41.26
38.36
34.18
29.67
26.01
24.16
24.55
26.89
30.27
33.54
35.77
36.53
36.03
34.77
33.19
31.37
28.94
25.36
20.24
13.64
6.08
-1.61
-8.6
-14.38
-18.87
-22.48
-25.96
-30.17
-35.86
-43.42
-52.6
-62.36
-71.0
-76.46
-76.88
-71.22
-59.63
-43.49
-25.07
-6.84
9.19
21.85
30.91
36.7
39.79
40.62
39.58
37.08
33.8
30.7
28.74
28.58
30.28
33.29
36.65
39.41
40.96
41.18
40.35
38.94
37.32
35.59
33.54
30.76
26.84
21.58
15.16
8.15
1.3
-4.72
-9.61
-13.54
-17.08
-21.0
-26.05
-32.71
-41.02
-50.44
-59.74
-67.17
-70.82
-69.18
-61.66
-48.95
-32.81
-15.55
0.61
14.14
24.32
31.17
35.03
36.37
35.64
33.33
30.13
26.9
24.59
23.96
25.31
28.35
32.26
36.02
38.78
40.15
40.23
39.45
38.22
36.65
34.5
31.34
26.83
21.02
14.36
7.56
1.31
-3.95
-8.2
-11.78
-15.24
-19.18
-24.1
-30.29
-37.71
-45.77
-53.32
-58.74
-60.29
-56.75
-47.9
-34.72
-19.19
-3.61
10.07
20.7
27.94
32.04
33.43
32.51
29.67
25.45
20.72
16.6
14.15
13.99
16.06
19.58
23.37
26.37
27.98
28.19
27.41
26.07
24.3
21.85
18.27
13.24
6.86
-0.28
-7.31
-13.4
-18.12
-21.61
-24.52
-27.8
-32.36
-38.74
-46.87
-55.95
-64.51
-70.71
-72.74
-69.39
-60.44
-46.81
-30.37
-13.43
1.88
14.16
22.91
28.38
31.19
32.02
31.34
29.48
26.84
23.97
21.64
20.52
20.97
22.85
25.51
28.13
30.0
30.83
30.68
29.85
28.56
26.81
24.38
20.92
16.24
10.36
3.71
-3.14
-9.51
-14.91
-19.2
-22.59
-25.6
-28.89
-33.1
-38.66
-45.72
-53.85
-62.07
-68.81
-72.25
-70.85
-63.93
-52.03
-36.79
-20.51
-5.34
7.25
16.69
23.1
26.95
28.68
28.65
27.22
24.85
22.24
20.16
19.26
19.88
21.91
24.86
27.99
30.57
32.1
32.48
31.91
30.79
29.34
27.54
25.04
21.45
16.54
10.48
3.83
-2.69
-8.44
-13.12
-16.72
-19.6
-22.3
-25.43
-29.58
-35.17
-42.24
-50.26
-58.09
-64.06
-66.48
-64.05
-56.38
-44.17
-29.01
-12.99
1.88
14.18
23.2
28.87
31.53
31.66
29.79
26.55
22.76
19.34
17.16
16.72
17.99
20.42
23.18
25.5
26.99
27.65
27.71
27.33
26.41
24.63
21.59
17.11
11.43
5.16
-0.9
-6.14
-10.34
-13.73
-16.95
-20.77
-25.82
-32.3
-39.91
-47.74
-54.38
-58.25
-57.99
-52.88
-43.14
-29.99
-15.25
-0.89
11.53
21.17
27.82
31.72
33.21
32.64
30.33
26.75
22.61
18.84
16.33
15.66
16.83
19.28
22.11
24.43
25.68
25.78
24.98
23.67
22.02
19.92
17.0
12.91
7.57
1.28
-5.31
-11.45
-16.61
-20.68
-24.06
-27.45
-31.65
-37.29
-44.57
-53.09
-61.8
-69.08
-73.13
-72.35
-65.98
-54.4
-39.14
-22.49
-6.69
6.54
16.5
23.34
27.61
29.92
30.58
29.81
27.85
25.24
22.81
21.35
21.4
22.96
25.52
28.33
30.64
32.01
32.34
31.83
30.82
29.56
28.09
26.17
23.39
19.36
14.0
7.68
1.12
-4.87
-9.74
-13.46
-16.5
-19.6
-23.51
-28.82
-35.75
-44.17
-53.36
-62.07
-68.56
-71.02
-68.16
-59.7
-46.6
-30.75
-14.49
0.21
12.06
20.58
25.92
28.5
28.87
27.53
25.07
22.17
19.61
18.06
17.97
19.37
21.87
24.78
27.39
29.2
30.11
30.32
30.12
29.65
28.69
26.82
23.6
18.87
12.91
6.38
0.1
-5.18
-9.17
-12.0
-14.31
-16.94
-20.76
-26.32
-33.62
-42.01
-50.18
-56.5
-59.34
-57.55
-50.79
-39.65
-25.58
-10.47
3.85
15.96
25.16
31.28
34.54
35.26
33.86
30.89
27.15
23.59
21.14
20.37
21.33
23.48
26.02
28.19
29.54
30.0
29.76
29.01
27.74
25.74
22.67
18.27
12.53
5.81
-1.29
-8.06
-13.93
-18.68
-22.52
-26.0
-29.85
-34.7
-40.84
-47.93
-54.93
-60.27
-62.21
-59.43
-51.56
-39.34
-24.5
-9.18
4.74
16.1
24.52
30.18
33.44
34.51
33.54
30.77
26.81
22.62
19.34
17.89
18.6
21.12
24.55
27.77
29.93
30.67
30.16
28.84
27.17
25.31
23.07
20.06
15.87
10.44
4.11
-2.48
-8.57
-13.67
-17.68
-20.95
-24.08
-27.74
-32.46
-38.47
-45.66
-53.46
-60.82
-66.26
-68.21
-65.44
-57.54
-45.2
-30.05
-14.21
0.35
12.27
20.99
26.6
29.58
30.46
29.8
28.1
25.85
23.59
21.85
21.08
21.59
23.41
26.29
29.64
32.72
34.85
35.63
35.07
33.51
31.37
28.94
26.24
23.05
19.11
14.29
8.71
2.69
-3.35
-9.01
-14.04
-18.39
-22.22
-25.84
-29.68
-34.17
-39.63
-46.17
-53.47
-60.71
-66.62
-69.68
-68.58
-62.65
-52.15
-38.32
-23.06
-8.32
4.35
14.1
20.78
24.65
26.09
25.52
23.41
20.38
17.26
14.89
13.89
14.45
16.3
18.81
21.23
23.05
24.11
24.55
24.65
24.54
24.09
22.86
20.34
16.2
10.56
4.0
-2.56
-8.2
-12.38
-15.08
-16.78
-18.32
-20.62
-24.35
-29.82
-36.7
-44.02
-50.27
-53.74
-53.04
-47.6
-37.86
-25.18
-11.45
1.55
12.49
20.71
26.02
28.63
28.87
27.16
24.11
20.4
16.8
14.0
12.5
12.45
13.7
15.8
18.18
20.3
21.75
22.4
22.26
21.37
19.71
17.08
13.29
8.27
2.2
-4.41
-10.85
-16.46
-20.9
-24.25
-27.11
-30.29
-34.65
-40.69
-48.32
-56.74
-64.51
-69.79
-70.87
-66.72
-57.33
-43.81
-28.07
-12.25
1.85
13.14
21.3
26.56
29.31
29.98
28.93
26.59
23.58
20.65
18.54
17.81
18.61
20.61
23.2
25.63
27.34
28.03
27.8
26.88
25.52
23.76
21.42
18.24
14.02
8.86
3.14
-2.62
-7.97
-12.67
-16.81
-20.62
-24.45
-28.64
-33.56
-39.54
-46.77
-55.07
-63.58
-70.86
-75.05
-74.51
-68.38
-56.97
-41.73
-24.81
-8.45
5.64
16.49
23.94
28.33
30.19
30.09
28.56
26.2
23.7
21.75
20.93
21.51
23.36
26.07
29.08
31.85
34.03
35.44
36.03
35.82
34.87
33.24
30.95
27.94
24.06
19.23
13.52
7.28
1.03
-4.69
-9.5
-13.42
-16.79
-20.18
-24.18
-29.33
-35.98
-44.13
-53.26
-62.22
-69.33
-72.77
-71.12
-63.89
-51.76
-36.34
-19.7
-3.8
9.93
20.71
28.22
32.47
33.76
32.58
29.67
26.06
22.84
20.9
20.74
22.31
25.06
28.23
31.08
33.18
34.43
35.0
35.03
34.51
33.19
30.69
26.75
21.38
15.0
8.28
1.95
-3.47
-7.87
-11.55
-15.17
-19.48
-25.06
-32.06
-40.07
-48.05
-54.46
-57.63
-56.2
-49.63
-38.39
-23.95
-8.35
6.38
18.75
27.99
34.0
37.04
37.49
35.78
32.38
28.0
23.54
19.96
18.0
17.94
19.53
22.07
24.79
27.06
28.58
29.34
29.45
28.88
27.36
24.51
20.06
14.06
7.04
-0.18
-6.77
-12.23
-16.59
-20.43
-24.6
-29.98
-37.12
-46.01
-55.92
-65.36
-72.38
-74.93
-71.58
-62.03
-47.35
-29.72
-11.78
4.18
16.8
25.74
31.43
34.55
35.67
35.14
33.26
30.48
27.53
25.21
24.24
24.93
27.05
29.92
32.68
34.59
35.38
35.2
34.47
33.55
32.42
30.65
27.61
22.88
16.51
9.12
1.64
-5.12
-10.71
-15.21
-19.05
-22.82
-27.07
-32.29
-38.81
-46.72
-55.55
-64.14
-70.75
-73.42
-70.66
-62.03
-48.35
-31.5
-13.86
2.4
15.79
25.68
32.13
35.58
36.55
35.56
33.12
29.88
26.59
24.13
23.18
24.07
26.63
30.21
33.98
37.12
39.13
39.88
39.57
38.47
36.85
34.77
32.1
28.62
24.14
18.67
12.43
5.86
-0.54
-6.32
-11.22
-15.3
-18.83
-22.3
-26.25
-31.24
-37.66
-45.53
-54.36
-62.97
-69.63
-72.43
-69.89
-61.5
-48.02
-31.3
-13.72
2.43
15.59
25.06
30.87
33.48
33.47
31.5
28.32
24.79
21.81
20.05
19.84
21.05
23.22
25.73
28.07
29.93
31.18
31.8
31.74
30.81
28.78
25.41
20.6
14.59
7.89
1.2
-4.81
-9.85
-14.08
-18.11
-22.76
-28.72
-36.18
-44.58
-52.64
-58.55
-60.5
-57.25
-48.58
-35.46
-19.82
-3.96
10.09
21.06
28.54
32.78
34.32
33.71
31.46
28.17
24.55
21.48
19.71
19.7
21.35
24.12
27.19
29.8
31.49
32.18
32.06
31.33
30.03
27.93
24.67
19.91
13.62
6.14
-1.83
-9.41
-15.89
-20.99
-24.97
-28.61
-32.93
-38.84
-46.71
-56.15
-65.91
-74.11
-78.64
-77.8
-70.84
-58.26
-41.78
-23.83
-6.87
7.33
17.97
25.24
29.79
32.28
33.13
32.52
30.72
28.26
25.99
24.83
25.36
27.58
30.9
34.42
37.26
38.94
39.41
38.99
38.1
36.98
35.51
33.29
29.79
24.69
18.1
10.59
3.01
-3.79
-9.32
-13.63
-17.24
-20.94
-25.5
-31.43
-38.89
-47.63
-56.9
-65.5
-71.82
-74.13
-71.08
-62.24
-48.4
-31.48
-14.02
1.62
13.9
22.32
27.31
29.64
30.05
29.05
26.97
24.26
21.54
19.61
19.14
20.41
23.15
26.63
29.97
32.47
33.85
34.21
33.89
33.09
31.81
29.75
26.56
22.05
16.42
10.24
4.28
-0.83
-4.83
-7.91
-10.7
-14.03
-18.66
-25.04
-33.09
-42.04
-50.47
-56.62
-58.78
-55.84
-47.7
-35.31
-20.42
-5.07
8.95
20.48
29.03
34.62
37.48
37.9
36.2
32.89
28.7
24.67
21.81
20.86
22.02
24.85
28.44
31.77
34.05
34.99
34.73
33.6
31.87
29.52
26.27
21.83
16.13
9.48
2.56
-3.84
-9.19
-13.38
-16.82
-20.27
-24.6
-30.49
-38.15
-47.21
-56.61
-64.76
-69.8
-70.12
-64.86
-54.27
-39.67
-23.11
-6.81
7.47
18.75
26.8
31.87
34.44
34.98
33.92
31.74
29.05
26.57
24.97
24.74
26.01
28.5
31.67
34.82
37.34
38.84
39.19
38.52
37.05
35.0
32.39
29.1
24.92
19.74
13.68
7.17
0.8
-4.89
-9.62
-13.45
-16.79
-20.16
-24.13
-29.2
-35.67
-43.55
-52.33
-60.83
-67.3
-69.86
-67.04
-58.52
-45.27
-29.29
-12.98
1.64
13.37
21.91
27.55
30.76
31.95
31.46
29.73
27.35
25.05
23.54
23.33
24.5
26.74
29.46
31.93
33.61
34.25
33.94
33.01
31.8
30.46
28.9
26.79
23.8
19.71
14.62
8.87
3.02
-2.38
-6.92
-10.46
-13.15
-15.45
-18.01
-21.51
-26.41
-32.85
-40.39
-48.08
-54.49
-58.08
-57.51
-52.09
-42.08
-28.66
-13.71
0.72
12.94
21.96
27.56
30.07
30.05
28.08
24.72
20.59
16.49
13.29
11.69
11.95
13.77
16.41
19.02
20.99
22.1
22.51
22.5
22.21
21.51
20.08
17.56
13.78
8.88
3.26
-2.47
-7.72
-12.08
-15.43
-18.01
-20.33
-23.11
-27.02
-32.53
-39.6
-47.54
-55.02
-60.33
-61.76
-58.22
-49.63
-37.07
-22.43
-7.88
4.82
14.64
21.4
25.42
27.21
27.17
25.56
22.69
19.1
15.56
12.94
12.01
13.03
15.7
19.28
22.76
25.31
26.51
26.44
25.55
24.3
22.96
21.41
19.31
16.28
12.13
7.02
1.37
-4.34
-9.71
-14.54
-18.84
-22.71
-26.35
-30.04
-34.16
-39.15
-45.39
-52.84
-60.92
-68.3
-73.2
-73.87
-69.17
-59.09
-44.83
-28.5
-12.4
1.61
12.48
20.09
24.83
27.3
27.95
27.11
25.12
22.51
20.0
18.37
18.14
19.44
21.91
24.88
27.6
29.48
30.2
29.75
28.36
26.42
24.23
21.96
19.53
16.69
13.16
8.85
3.94
-1.17
-6.06
-10.48
-14.46
-18.23
-22.07
-26.26
-30.97
-36.34
-42.5
-49.44
-56.81
-63.73
-68.85
-70.63
-67.85
-60.07
-47.94
-33.04
-17.44
-3.15
8.37
16.47
21.21
23.08
22.77
20.94
18.22
15.26
12.73
11.22
11.13
12.51
15.01
17.95
20.63
22.5
23.38
23.41
22.89
22.07
20.99
19.38
16.87
13.18
8.34
2.74
-3.0
-8.26
-12.72
-16.46
-19.96
-23.83
-28.59
-34.44
-41.1
-47.85
-53.63
-57.23
-57.55
-53.88
-46.1
-34.83
-21.31
-7.08
6.31
17.68
26.3
31.95
34.74
35.0
33.2
29.9
25.82
21.8
18.63
16.92
16.93
18.48
21.04
23.88
26.32
27.9
28.39
27.82
26.33
24.05
21.02
17.19
12.52
7.01
0.89
-5.45
-11.47
-16.77
-21.19
-24.92
-28.47
-32.47
-37.52
-43.91
-51.52
-59.66
-67.1
-72.28
-73.58
-69.91
-61.01
-47.7
-31.69
-15.09
0.14
12.62
21.76
27.6
30.59
31.34
30.42
28.4
25.81
23.24
21.26
20.42
21.02
23.05
26.11
29.45
32.28
34.0
34.45
33.79
32.47
30.76
28.69
25.99
22.31
17.51
11.82
5.76
-0.05
-5.12
-9.28
-12.71
-15.81
-19.15
-23.26
-28.6
-35.36
-43.31
-51.67
-59.11
-63.99
-64.76
-60.54
-51.39
-38.44
-23.61
-8.94
3.81
13.69
20.5
24.6
26.54
26.8
25.74
23.7
21.21
18.99
17.8
18.14
20.05
22.99
26.19
28.93
30.82
31.86
32.3
32.28
31.72
30.29
27.63
23.63
18.54
12.91
7.41
2.55
-1.49
-4.8
-7.77
-10.87
-14.58
-19.32
-25.28
-32.27
-39.59
-46.0
-49.97
-50.02
-45.36
-36.1
-23.46
-9.31
4.29
15.74
24.17
29.48
32.05
32.38
30.92
28.05
24.31
20.4
17.16
15.3
15.16
16.49
18.66
20.9
22.66
23.78
24.33
24.45
24.07
22.88
20.52
16.81
11.9
6.24
0.43
-5.02
-9.82
-13.95
-17.63
-21.33
-25.62
-31.05
-37.79
-45.36
-52.55
-57.67
-58.96
-55.36
-46.83
-34.46
-20.08
-5.77
6.79
16.59
23.39
27.47
29.33
29.44
28.19
25.91
23.11
20.48
18.81
18.76
20.39
23.19
26.21
28.43
29.27
28.79
27.52
26.09
24.79
23.4
21.42
18.33
13.95
8.57
2.74
-2.9
-7.96
-12.31
-16.13
-19.83
-23.87
-28.77
-34.82
-42.04
-49.83
-57.04
-62.1
-63.41
-59.94
-51.61
-39.45
-25.21
-10.96
1.63
11.63
18.88
23.7
26.56
27.76
27.49
25.99
23.67
21.19
19.35
18.8
19.74
21.95
24.81
27.54
29.53
30.44
30.28
29.32
27.93
26.31
24.48
22.17
18.99
14.67
9.22
3.08
-3.1
-8.6
-13.04
-16.45
-19.34
-22.4
-26.3
-31.52
-38.1
-45.65
-53.3
-59.71
-63.35
-62.86
-57.5
-47.49
-34.08
-19.16
-4.75
7.57
16.99
23.37
27.02
28.36
27.81
25.79
22.87
19.74
17.2
15.85
15.96
17.32
19.4
21.61
23.47
24.79
25.6
26.02
26.06
25.56
24.18
21.57
17.56
12.31
6.33
0.36
-4.87
-8.92
-11.83
-14.08
-16.47
-19.76
-24.55
-30.94
-38.54
-46.44
-53.28
-57.52
-57.8
-53.36
-44.36
-31.93
-17.9
-4.2
7.62
16.73
22.91
26.41
27.52
26.63
24.18
20.81
17.38
14.7
13.36
13.49
14.78
16.6
18.36
19.66
20.4
20.73
20.82
20.67
20.0
18.34
15.26
10.61
4.7
-1.74
-7.86
-13.01
-17.06
-20.38
-23.67
-27.65
-32.86
-39.44
-47.05
-54.83
-61.45
-65.35
-65.06
-59.76
-49.61
-35.85
-20.46
-5.57
7.14
16.82
23.39
27.24
28.82
28.45
26.43
23.15
19.32
15.92
13.93
13.98
16.12
19.73
23.81
27.32
29.6
30.43
30.06
28.92
27.34
25.43
23.02
19.83
15.61
10.36
4.34
-2.01
-8.16
-13.77
-18.65
-22.95
-27.02
-31.34
-36.39
-42.58
-50.05
-58.44
-66.81
-73.63
-77.09
-75.7
-68.73
-56.64
-40.96
-23.94
-7.82
5.68
15.69
22.22
25.76
27.04
26.71
25.25
