0
83.54
81.12
78.3
75.27
71.83
67.5
61.86
54.8
46.73
38.39
30.52
23.52
17.31
11.43
5.31
-1.46
-8.95
-16.9
-24.89
-32.45
-39.26
-45.23
-50.57
-55.82
-61.78
-69.29
-79.01
-90.96
-104.29
-117.12
-126.83
-130.57
-126.1
-112.5
-90.57
-62.71
-32.25
-2.56
23.72
45.0
60.68
70.83
75.79
76.17
72.85
67.06
60.31
54.11
49.61
47.33
47.16
48.53
50.65
52.83
54.48
55.21
54.74
52.9
49.62
45.01
39.32
32.93
26.24
19.54
12.93
6.31
-0.56
-7.82
-15.49
-23.32
-30.89
-37.75
-43.67
-48.7
-53.29
-58.2
-64.31
-72.32
-82.35
-93.59
-104.23
-111.67
-113.25
-106.99
-92.34
-70.48
-43.95
-16.05
10.15
32.39
49.47
61.14
67.72
69.8
68.12
63.57
57.3
50.62
44.81
40.85
39.09
39.28
40.71
42.54
44.09
44.98
45.09
44.4
42.83
40.23
36.43
31.47
25.64
19.43
13.4
7.89
2.91
-1.92
-7.13
-13.18
-20.14
-27.67
-35.1
-41.73
-47.15
-51.44
-55.23
-59.46
-65.17
-73.06
-83.07
-94.17
-104.27
-110.65
-110.6
-102.29
-85.46
-61.61
-33.59
-4.79
21.76
44.09
61.36
73.63
81.32
84.95
85.03
82.18
77.36
71.76
66.69
63.2
61.86
62.51
64.45
66.57
67.75
67.23
64.8
60.87
56.22
51.63
47.5
43.71
39.72
34.96
29.12
22.46
15.67
9.54
4.5
0.42
-3.34
-7.63
-13.03
-19.58
-26.76
-33.75
-39.85
-44.73
-48.61
-52.1
-56.04
-61.25
-68.26
-77.2
-87.46
-97.55
-105.23
-107.93
-103.59
-91.34
-71.9
-47.44
-20.91
4.81
27.52
46.01
59.87
69.16
74.16
75.25
73.04
68.4
62.51
56.6
51.76
48.66
47.36
47.42
48.09
48.62
48.49
47.57
45.99
43.97
41.61
38.79
35.26
30.75
25.26
19.13
12.94
7.31
2.56
-1.39
-5.04
-8.99
-13.71
-19.22
-25.12
-30.75
-35.51
-39.13
-41.82
-44.17
-46.99
-51.09
-56.98
-64.7
-73.59
-82.19
-88.43
-90.02
-85.12
-73.03
-54.53
-31.72
-7.49
15.39
34.85
49.89
60.37
66.7
69.46
69.17
66.41
61.86
56.36
50.9
46.32
43.21
41.76
41.79
42.84
44.3
45.54
46.04
45.45
43.59
40.46
36.25
31.24
25.82
20.33
15.04
10.01
5.18
0.29
-4.87
-10.41
-16.23
-22.05
-27.54
-32.42
-36.68
-40.59
-44.74
-49.83
-56.45
-64.71
-73.93
-82.5
-88.11
-88.39
-81.64
-67.58
-47.51
-24.02
-0.18
21.42
39.18
52.7
62.27
68.37
71.32
71.26
68.43
63.5
57.56
51.92
47.65
45.21
44.38
44.47
44.73
44.71
44.31
43.69
42.98
42.03
40.44
37.7
33.51
27.95
21.57
15.11
9.27
4.39
0.39
-3.22
-7.04
-11.54
-16.93
-23.06
-29.52
-35.77
-41.34
-46.01
-49.92
-53.61
-57.9
-63.64
-71.29
-80.58
-90.24
-98.18
-101.94
-99.45
-89.71
-73.19
-51.78
-28.17
-5.09
15.35
32.02
44.66
53.52
58.91
61.06
60.15
56.59
51.16
45.03
39.4
35.19
32.74
31.78
31.68
31.79
31.72
31.28
30.43
29.07
27.01
24.0
19.94
14.97
9.49
4.02
-0.99
-5.33
-9.09
-12.6
-16.31
-20.6
-25.54
-30.91
-36.23
-40.96
-44.78
-47.81
-50.55
-53.82
-58.37
-64.58
-72.12
-79.86
-85.97
-88.33
-85.12
-75.36
-59.36
-38.68
-15.83
6.51
26.05
41.44
52.29
58.89
61.85
61.78
59.24
54.86
49.44
43.98
39.5
36.71
35.79
36.37
37.73
39.08
39.85
39.78
38.78
36.86
34.03
30.32
25.92
21.15
16.41
12.0
7.92
3.9
-0.48
-5.52
-11.22
-17.23
-23.04
-28.24
-32.67
-36.46
-39.99
-43.76
-48.33
-54.2
-61.59
-70.09
-78.46
-84.67
-86.34
-81.52
-69.45
-50.99
-28.37
-4.55
17.69
36.39
50.58
60.22
65.75
67.77
66.91
63.83
59.25
54.04
49.04
44.98
42.34
41.16
41.11
41.59
41.96
41.84
41.13
39.94
38.4
36.4
33.61
29.68
24.48
18.29
11.77
5.73
0.7
-3.3
-6.73
-10.31
-14.6
-19.76
-25.51
-31.29
-36.53
-40.92
-44.54
-47.79
-51.37
-56.05
-62.4
-70.56
-79.91
-89.0
-95.61
-97.4
-92.56
-80.5
-62.21
-39.93
-16.53
5.3
23.75
38.02
48.13
54.53
57.68
57.95
55.68
51.44
46.1
40.77
36.54
34.08
33.41
33.94
34.79
35.17
34.73
33.57
31.97
30.08
27.72
24.49
20.04
14.36
7.88
1.32
-4.61
-9.49
-13.39
-16.74
-20.16
-24.17
-28.96
-34.33
-39.77
-44.67
-48.56
-51.28
-53.17
-54.93
-57.51
-61.79
-68.22
-76.54
-85.57
-93.29
-97.29
-95.41
-86.43
-70.54
-49.37
-25.46
-1.64
19.72
37.15
50.04
58.55
63.13
64.36
62.8
59.1
54.09
48.76
44.13
41.03
39.82
40.26
41.72
43.36
44.5
44.71
43.89
42.07
39.34
35.77
31.47
26.64
21.56
16.5
11.6
6.8
1.91
-3.29
-8.93
-14.9
-20.95
-26.72
-31.87
-36.28
-40.07
-43.69
-47.82
-53.22
-60.31
-68.89
-77.82
-85.12
-88.44
-85.75
-76.07
-59.85
-38.88
-15.77
6.8
26.71
42.77
54.59
62.34
66.38
67.13
65.1
60.97
55.65
50.24
45.81
43.08
42.21
42.78
44.0
45.04
45.35
44.8
43.63
42.19
40.63
38.82
36.36
32.83
28.08
22.36
16.3
10.65
5.93
2.21
-0.95
-4.27
-8.4
-13.63
-19.76
-26.18
-32.16
-37.21
-41.25
-44.64
-48.05
-52.23
-57.89
-65.37
-74.61
-84.87
-94.65
-101.88
-104.25
-99.91
-88.13
-69.67
-46.68
-22.11
1.15
20.98
36.37
47.32
54.32
57.92
58.57
56.66
52.77
47.82
42.88
38.92
36.48
35.49
35.45
35.68
35.67
35.22
34.35
33.15
31.63
29.63
26.89
23.26
18.73
13.54
8.09
2.87
-1.68
-5.42
-8.46
-11.26
-14.38
-18.25
-22.93
-28.08
-33.1
-37.39
-40.73
-43.34
-45.88
-49.16
-53.9
-60.35
-68.18
-76.35
-83.15
-86.48
-84.36
-75.54
-60.02
-39.23
-15.68
7.75
28.63
45.49
57.92
66.21
70.84
72.2
70.59
66.44
60.57
54.16
48.5
44.53
42.56
42.22
42.76
43.44
43.82
43.85
43.61
43.13
42.15
40.23
36.95
32.14
26.04
19.31
12.72
6.89
2.09
-1.94
-5.78
-10.06
-15.15
-20.97
-27.01
-32.61
-37.26
-40.87
-43.84
-46.92
-50.98
-56.69
-64.31
-73.36
-82.6
-90.05
-93.31
-90.3
-79.91
-62.53
-40.09
-15.52
8.15
28.6
44.62
56.09
63.51
67.48
68.5
66.97
63.4
58.6
53.57
49.34
46.61
45.54
45.75
46.58
47.31
47.45
46.86
45.63
43.94
41.94
39.64
36.83
33.28
28.83
23.48
17.54
11.51
5.9
1.1
-2.81
-6.15
-9.37
-13.0
-17.38
-22.55
-28.25
-34.07
-39.57
-44.49
-48.81
-52.75
-56.76
-61.4
-67.23
-74.63
-83.55
-93.28
-102.36
-108.65
-109.91
-104.43
-91.7
-72.74
-49.84
-25.91
-3.66
15.09
29.57
39.84
46.35
49.53
49.78
47.46
43.24
38.1
33.19
29.57
27.83
27.9
29.19
30.9
32.34
33.22
33.56
33.53
33.15
32.17
30.24
27.07
22.68
17.51
12.19
7.3
3.1
-0.53
-4.0
-7.78
-12.17
-17.17
-22.54
-27.83
-32.56
-36.39
-39.24
-41.4
-43.58
-46.71
-51.67
-58.85
-67.74
-76.73
-83.45
-85.29
-80.31
-67.88
-48.99
-25.96
-1.8
20.7
39.54
53.82
63.56
69.26
71.6
71.16
68.45
64.1
58.89
53.79
49.68
47.15
46.27
46.64
47.55
48.32
48.52
48.06
47.03
45.55
43.62
41.14
37.99
34.11
29.6
24.64
19.4
14.04
8.67
3.41
-1.55
-6.12
-10.27
-14.22
-18.32
-22.91
-28.23
-34.18
-40.39
-46.39
-51.76
-56.34
-60.32
-64.17
-68.58
-74.22
-81.52
-90.38
-99.97
-108.62
-114.07
-113.99
-106.72
-91.88
-70.64
-45.4
-19.18
5.24
25.93
42.05
53.7
61.42
65.87
67.53
66.81
64.2
60.47
56.57
53.48
51.88
51.91
53.2
55.07
56.86
58.19
59.0
59.4
59.41
58.87
57.43
54.77
50.8
45.82
40.4
35.18
30.55
26.48
22.64
18.51
13.74
8.29
2.46
-3.24
-8.39
-12.78
-16.51
-19.94
-23.57
-27.85
-33.01
-38.99
-45.4
-51.71
-57.43
-62.3
-66.5
-70.58
-75.36
-81.6
-89.62
-98.96
-108.15
-114.93
-116.76
-111.62
-98.77
-79.09
-54.89
-29.22
-4.94
15.9
32.36
44.36
52.32
56.72
57.94
56.42
52.74
47.82
42.8
38.8
36.61
36.45
37.95
40.32
42.67
44.3
44.95
44.72
43.9
42.77
41.4
39.63
37.17
33.8
29.44
24.26
18.66
13.09
7.96
3.49
-0.36
-3.83
-7.35
-11.29
-15.81
-20.81
-25.93
-30.72
-34.86
-38.33
-41.42
-44.7
-48.79
-54.27
-61.42
-70.02
-79.2
-87.29
-92.12
-91.48
-83.88
-69.11
-48.45
-24.37
0.27
22.91
41.91
56.58
66.98
73.45
76.4
76.18
73.28
68.41
62.6
57.02
52.72
50.37
50.03
51.19
53.08
54.87
56.0
56.2
55.43
53.77
51.25
47.94
43.95
39.51
34.87
30.22
25.57
20.84
15.9
10.74
5.47
0.31
-4.57
-9.11
-13.41
-17.69
-22.2
-27.11
-32.45
-38.08
-43.7
-49.0
-53.76
-57.98
-62.0
-66.45
-72.09
-79.5
-88.72
-98.93
-108.29
-114.3
-114.38
-106.75
-91.09
-68.78
-42.55
-15.62
9.11
29.82
45.87
57.51
65.41
70.21
72.32
72.08
69.91
66.52
62.81
59.74
57.96
57.66
58.5
59.81
60.93
61.44
61.2
60.31
58.85
56.81
54.08
50.56
46.34
41.65
36.81
32.06
27.48
22.97
18.47
14.03
9.87
6.28
3.41
1.15
-0.9
-3.27
-6.36
-10.24
-14.66
-19.12
-23.12
-26.36
-28.85
-30.93
-33.07
-35.78
-39.4
-43.97
-49.02
-53.53
-55.89
-54.16
-46.54
-31.94
-10.43
16.63
46.91
77.77
106.88
132.72
154.63
172.66
187.17
198.64
207.55
214.53
220.53
226.78
234.43
243.99
254.64
264.16
269.4
267.34
256.37
236.9
211.03
181.53
150.67
119.61
88.64
58.05
28.67
2.0
-20.5
-38.33
-52.3
-64.33
-76.53
-90.35
-106.06
-122.94
-139.73
-155.35
-169.2
-181.33
-192.27
-202.8
-213.81
-226.02
-239.74
-254.48
-268.65
-279.66
-284.32
-279.84
-264.88
-240.17
-208.46
-173.69
-139.77
-109.5
-84.18
-63.81
-47.85
-35.72
-27.14
-21.84
-19.2
-18.08
-16.96
-14.39
-9.55
-2.53
5.73
13.86
20.64
25.42
28.2
29.49
29.8
29.44
28.23
25.78
21.64
15.67
8.2
-0.02
-7.99
-14.83
-20.08
-23.93
-27.11
-30.62
-35.27
-41.36
-48.53
-55.97
-62.83
-68.53
-73.09
-76.96
-80.9
-85.73
-92.11
-100.45
-110.63
-121.75
-131.9
-138.43
-138.55
-130.31
-113.41
-89.47
-61.62
-33.47
-8.04
12.99
29.25
41.29
49.85
55.51
58.59
59.29
58.04
55.59
52.89
50.86
50.12
50.82
52.58
54.78
56.72
57.88
58.09
57.36
55.83
53.58
50.62
46.94
42.57
37.65
32.41
27.05
21.7
16.39
11.09
5.72
0.22
-5.47
-11.43
-17.84
-24.86
-32.55
-40.81
-49.3
-57.62
-65.41
-72.48
-78.89
-85.01
-91.41
-98.88
-108.15
-119.55
-132.58
-145.63
-156.09
-160.95
-157.73
-145.42
-124.9
-98.66
-70.03
-42.22
-17.53
2.79
18.42
29.44
36.14
38.94
38.44
35.6
31.69
28.09
25.96
25.93
27.98
31.47
35.48
39.15
42.02
44.02
45.33
46.03
45.9
44.45
41.18
36.01
29.49
22.71
16.94
13.03
11.06
10.32
9.63
7.88
4.46
-0.55
-6.51
-12.63
-18.29
-23.24
-27.71
-32.17
-37.31
-43.88
-52.52
-63.5
-76.31
-89.39
-100.15
-105.5
-102.85
-91.0
-70.78
-44.77
-16.47
10.88
35.03
55.01
70.68
82.2
89.57
92.68
91.64
87.11
80.37
73.11
66.98
63.12
61.9
63.04
65.76
69.14
72.33
74.79
76.23
76.65
76.18
75.01
73.35
71.34
69.08
66.66
64.12
61.45
58.53
55.24
51.44
47.13
42.45
37.67
33.04
28.63
24.22
19.43
13.81
7.17
-0.34
-8.24
-15.92
-22.89
-29.04
-34.71
-40.6
-47.54
-56.25
-66.93
-78.9
-90.41
-98.76
-101.06
-95.03
-80.05
-57.4
-30.02
-1.48
25.07
47.68
65.7
79.34
89.08
95.27
98.05
97.64
94.59
89.8
84.42
79.48
75.66
73.15
71.67
70.71
69.76
68.54
67.01
65.34
63.71
62.05
60.03
57.11
52.79
46.84
39.51
31.51
23.75
17.01
11.68
7.6
4.14
0.52
-3.88
-9.27
-15.37
-21.66
-27.55
-32.72
-37.17
-41.23
-45.41
-50.29
-56.43
-64.23
-73.67
-84.09
-93.97
-101.0
-102.63
-96.83
-82.88
-61.82
-36.07
-8.83
16.94
39.17
56.88
69.92
78.52
82.96
83.52
80.69
75.36
68.86
62.64
57.9
55.2
54.37
54.71
55.32
55.61
55.38
54.76
53.95
52.91
51.32
48.65
44.47
38.69
31.71
24.29
17.27
11.31
6.58
2.76
-0.79
-4.82
-9.81
-15.79
-22.37
-28.88
-34.7
-39.5
-43.43
-47.11
-51.43
-57.34
-65.45
-75.64
-86.86
-97.03
-103.47
-103.58
-95.69
-79.63
-56.98
-30.57
-3.71
20.72
40.87
56.03
66.32
72.29
74.56
73.64
70.14
64.85
58.86
53.33
49.26
47.15
46.9
47.86
49.13
49.92
49.78
48.67
46.81
44.47
41.84
38.92
35.54
31.53
26.74
21.18
15.02
8.54
2.11
-3.95
-9.47
-14.44
-19.04
-23.51
-28.13
-33.02
-38.14
-43.28
-48.13
-52.36
-55.82
-58.61
-61.12
-64.03
-68.16
-74.25
-82.59
-92.66
-102.98
-111.23
-114.78
-111.45
-100.21
-81.65
-57.83
-31.7
-6.27
16.08
34.01
47.13
55.73
60.39
61.71
60.26
56.7
51.79
46.42
41.48
37.7
35.4
34.49
34.56
35.09
35.7
36.21
36.56
36.64
36.14
34.59
31.54
26.84
20.82
14.22
7.97
2.8
-1.08
-3.97
-6.58
-9.65
-13.62
-18.48
-23.75
-28.8
-33.08
-36.34
-38.81
-41.08
-43.98
-48.33
-54.59
-62.59
-71.26
-78.68
-82.43
-80.32
-71.11
-55.02
-33.75
-10.03
13.23
33.67
49.95
61.72
69.28
73.15
73.79
71.62
67.17
61.3
55.16
49.95
46.62
45.52
46.33
48.2
50.12
51.26
51.23
50.08
48.11
45.67
42.95
39.93
36.41
32.2
27.21
21.53
15.45
9.38
3.67
-1.48
-6.14
-10.58
-15.2
-20.34
-26.05
-32.06
-37.87
-42.96
-47.08
-50.38
-53.33
-56.58
-60.79
-66.49
-73.88
-82.67
-91.79
-99.32
-102.83
-100.0
-89.5
-71.61
-48.3
-22.61
2.35
24.19
41.7
54.67
63.45
68.52
70.29
69.17
65.76
60.94
55.77
51.23
48.06
46.48
46.25
46.81
47.46
47.64
47.06
45.75
43.87
41.61
38.98
35.83
31.83
26.78
20.64
13.73
6.6
-0.15
-6.02
-10.9
-15.03
-18.94
-23.24
-28.33
-34.31
-40.87
-47.48
-53.57
-58.78
-63.13
-66.94
-70.88
-75.66
-81.84
-89.57
-98.3
-106.67
-112.63
-113.89
-108.61
-96.07
-76.98
-53.42
-28.23
-4.19
16.62
33.16
45.3
53.37
57.83
59.14
57.78
54.42
49.99
45.55
42.06
40.1
39.69
40.41
41.58
42.59
43.07
42.93
42.22
40.97
39.07
36.26
32.37
27.42
21.77
15.94
10.43
5.46
0.88
-3.69
-8.67
-14.19
-20.07
-25.82
-30.95
-35.12
-38.36
-41.11
-44.18
-48.51
-54.85
-63.36
-73.18
-82.41
-88.46
-88.83
-81.89
-67.59
-47.45
-24.15
-0.66
20.57
38.06
51.34
60.59
66.29
68.9
68.76
66.24
61.87
56.46
51.07
46.71
44.09
43.33
43.96
45.18
46.14
46.35
45.7
44.36
42.58
40.5
38.02
34.96
31.14
26.53
21.28
15.73
10.33
5.56
1.72
-1.16
-3.43
-5.75
-8.85
-13.19
-18.79
-25.18
-31.63
-37.47
-42.43
-46.64
-50.61
-55.07
-60.72
-68.12
-77.39
-87.95
-98.31
-106.2
-108.98
-104.53
-92.01
-72.27
-47.75
-21.65
3.0
24.12
40.79
53.05
61.39
66.28
68.03
66.95
63.52
58.58
53.23
48.6
45.48
44.1
44.13
44.84
45.43
45.29
44.16
42.12
39.45
36.4
33.14
29.63
25.68
21.08
15.69
9.58
3.04
-3.44
-9.38
-14.42
-18.54
-22.0
-25.32
-28.95
-33.14
-37.72
-42.3
-46.41
-49.8
-52.57
-55.16
-58.15
-62.04
-67.23
-73.87
-81.81
-90.44
-98.46
-103.89
-104.47
-98.26
-84.54
-64.18
-39.56
-13.82
10.11
30.23
45.76
56.81
63.93
67.62
68.32
66.48
62.8
58.26
53.99
50.97
49.71
50.14
51.65
53.33
54.29
54.01
52.43
49.97
47.24
44.69
42.4
40.04
37.08
33.06
27.9
21.89
15.63
9.7
4.52
0.14
-3.63
-7.17
-10.86
-15.01
-19.74
-25.0
-30.59
-36.17
-41.42
-46.12
-50.28
-54.2
-58.5
-63.99
-71.36
-80.69
-91.13
-100.78
-106.99
-107.2
-99.7
-84.33
-62.6
-37.2
-11.22
12.72
32.94
48.77
60.25
67.77
71.76
72.69
71.15
67.93
64.01
60.34
57.67
56.28
56.04
56.47
57.02
57.31
57.15
56.58
55.66
54.41
52.65
50.19
46.85
42.63
37.77
32.6
27.52
22.8
18.46
14.38
10.34
6.25
2.15
-1.81
-5.53
-9.11
-12.87
-17.21
-22.39
-28.33
-34.62
-40.74
-46.25
-51.02
-55.31
-59.61
-64.56
-70.78
-78.65
-88.0
-97.86
-106.35
-110.97
-109.28
-99.77
-82.55
-59.39
-33.3
-7.51
15.41
34.04
48.08
57.94
64.17
67.19
67.25
64.67
60.07
54.42
48.91
44.56
41.94
41.02
41.21
41.73
41.86
41.25
39.87
37.87
35.44
32.64
29.35
25.44
20.79
15.44
9.6
3.62
-2.12
-7.28
-11.68
-15.35
-18.5
-21.46
-24.63
-28.31
-32.62
-37.42
-42.37
-47.01
-51.03
-54.35
-57.21
-60.11
-63.69
-68.55
-75.01
-82.94
-91.48
-99.06
-103.48
-102.48
-94.44
-79.07
-57.6
-32.58
-7.03
16.37
35.99
51.24
62.31
69.56
73.29
73.66
70.97
65.98
59.92
54.25
50.23
48.46
48.77
50.35
52.15
53.32
53.47
52.67
51.27
49.59
47.7
45.3
41.98
37.35
31.41
24.54
17.5
11.07
5.79
1.65
-1.83
-5.44
-9.89
-15.51
-22.11
-29.09
-35.71
-41.34
-45.79
-49.28
-52.47
-56.25
-61.52
-68.91
-78.43
-89.14
-99.15
-105.87
-106.69
-99.79
-84.8
-63.03
-37.15
-10.37
14.38
35.14
51.06
62.27
69.38
73.1
73.97
72.48
69.11
64.61
59.9
55.95
53.48
52.67
53.13
54.06
54.62
54.21
52.72
50.41
47.72
44.98
42.19
39.05
35.18
30.33
24.56
18.2
11.83
5.91
0.7
-3.94
-8.38
-13.11
-18.53
-24.78
-31.71
-38.97
-46.11
-52.77
-58.7
-63.88
-68.48
-72.9
-77.79
-83.93
-91.92
-101.76
-112.42
-121.8
-127.11
-125.78
-116.37
-99.17
-76.1
-50.14
-24.32
-0.97
18.59
33.91
45.04
52.16
55.47
55.34
52.42
47.74
42.6
38.27
35.59
34.82
35.59
37.22
39.0
40.45
41.42
41.86
41.74
40.85
38.92
35.81
31.59
26.62
21.37
16.16
11.03
5.8
0.22
-5.78
-11.99
-18.02
-23.44
-28.07
-32.0
-35.61
-39.46
-44.19
-50.37
-58.35
-67.88
-77.83
-86.16
-90.27
-87.79
-77.5
-59.79
-36.74
-11.43
13.05
34.33
51.24
63.59
71.73
76.13
77.22
75.37
71.15
65.47
59.52
54.49
51.27
50.16
50.83
52.48
54.25
55.48
55.93
55.69
54.94
53.7
51.73
48.61
44.11
38.32
31.8
25.34
19.58
14.68
10.24
5.5
-0.3
-7.47
-15.77
-24.46
-32.68
-39.8
-45.67
-50.57
-55.2
-60.35
-66.76
-74.9
-84.81
-95.82
-106.47
-114.57
-117.69
-113.83
-102.15
-83.38
-59.71
-34.14
-9.64
11.6
28.53
41.06
49.62
54.73
56.79
56.09
53.06
48.4
43.1
38.18
34.45
32.29
31.54
31.74
32.25
32.58
32.4
31.59
30.05
27.7
24.5
20.5
15.92
11.11
6.41
2.01
-2.12
-6.22
-10.56
-15.33
-20.5
-25.82
-30.95
-35.57
-39.58
-43.1
-46.61
-50.76
-56.21
-63.19
-71.21
-78.78
-83.67
-83.5
-76.53
-62.38
-42.22
-18.46
6.0
28.55
47.41
61.79
71.65
77.37
79.49
78.54
75.18
70.19
64.53
59.21
55.14
52.88
52.48
53.46
54.99
56.12
56.12
54.57
51.42
46.94
41.54
35.65
29.65
23.8
18.2
12.8
7.38
1.72
-4.35
-10.78
-17.37
-23.72
-29.5
-34.56
-39.01
-43.23
-47.81
-53.39
-60.51
-69.25
-78.98
-88.18
-94.52
-95.43
-88.95
-74.45
-53.09
-27.57
-1.34
22.47
41.85
56.17
65.84
71.74
74.63
75.01
73.18
69.61
65.05
60.41
56.6
54.1
52.88
52.41
52.04
51.25
49.88
48.09
46.14
44.11
41.78
38.72
34.47
28.89
22.24
15.15
8.36
2.31
-2.99
-7.93
-13.05
-18.71
-24.94
-31.45
-37.82
-43.7
-49.02
-54.0
-59.09
-64.94
-72.11
-80.93
-91.11
-101.48
-110.01
-114.21
-111.91
-102.03
-85.09
-63.13
-39.06
-15.73
4.76
21.44
34.2
43.39
49.38
52.35
52.5
50.17
46.08
41.3
37.02
34.19
33.29
34.11
35.94
37.78
38.75
38.33
36.47
33.53
29.93
26.03
21.97
17.66
12.92
7.64
1.9
-4.05
-9.81
-15.02
-19.49
-23.21
-26.36
-29.27
-32.32
-35.9
-40.43
-46.25
-53.47
-61.68
-69.78
-75.86
-77.73
-73.46
-62.2
-44.58
-22.57
0.97
23.3
42.39
57.23
67.69
74.09
76.84
76.33
73.06
67.85
61.84
56.29
52.23
50.08
49.6
50.08
50.69
50.88
50.42
49.32
47.55
44.93
41.18
36.1
29.78
22.68
15.54
9.04
3.59
-0.87
-4.8
-8.81
-13.48
-19.02
-25.29
-31.81
-38.02
-43.46
-47.95
-51.73
-55.37
-59.74
-65.64
-73.51
-82.96
-92.62
-100.17
-102.98
-98.84
-86.77
-67.53
-43.41
-17.54
7.03
28.16
44.9
57.29
65.84
71.08
73.34
72.9
70.22
66.09
61.58
57.72
55.2
54.14
54.1
54.33
54.08
52.87
50.64
47.65
44.3
40.88
37.42
33.66
29.22
23.79
17.43
10.5
3.63
-2.6
-7.93
-12.53
-16.91
-21.61
-26.98
-32.93
-39.06
-44.81
-49.77
-53.92
-57.56
-61.21
-65.42
-70.62
-77.09
-84.78
-93.25
-101.4
-107.48
-109.36
-105.18
-93.97
-76.19
-53.65
-29.06
-5.2
15.82
32.83
45.55
54.28
59.5
61.64
61.15
58.55
54.55
50.02
45.83
42.69
40.99
40.68
41.39
42.55
43.57
43.99
43.59
42.28
40.04
36.89
32.85
28.03
22.64
17.02
11.5
6.35
1.55
-3.1
-7.88
-12.96
-18.28
-23.55
-28.4
-32.65
-36.38
-40.07
-44.44
-50.16
-57.57
-66.34
-75.23
-82.21
-84.92
-81.31
-70.43
-52.86
-30.66
-6.73
15.99
35.36
50.37
60.96
67.59
70.81
71.05
68.76
64.6
59.5
54.57
50.75
48.59
48.03
48.54
49.35
49.71
49.21
47.77
45.65
43.24
40.87
38.57
36.07
32.9
28.65
23.25
16.99
10.49
4.42
-0.8
-5.11
-8.85
-12.51
-16.55
-21.2
-26.43
-31.95
-37.37
-42.33
-46.64
-50.4
-53.98
-57.97
-63.02
-69.71
-78.19
-88.06
-98.1
-106.31
-110.29
-107.91
-98.04
-81.03
-58.79
-34.19
-10.24
10.71
27.42
39.68
47.91
52.68
54.48
53.66
50.68
46.19
41.08
36.3
32.56
30.18
29.03
28.7
28.75
28.92
29.16
29.48
29.78
29.66
28.59
26.06
21.89
16.4
10.27
4.33
-0.78
-4.81
-7.97
-10.78
-13.85
-17.59
-22.08
-27.06
-32.06
-36.55
-40.27
-43.33
-46.25
-49.83
-54.84
-61.61
-69.74
-77.91
-84.07
-85.89
-81.51
-70.12
-52.33
-30.13
-6.28
16.47
36.0
51.22
61.94
68.55
71.58
71.51
68.83
64.18
58.48
52.84
48.27
45.41
44.27
44.37
44.88
45.12
44.67
43.47
41.64
39.29
36.35
32.64
27.98
22.4
16.24
10.04
4.34
-0.52
-4.61
-8.33
-12.24
-16.75
-21.97
-27.64
-33.24
-38.25
-42.34
-45.6
-48.5
-51.82
-56.41
-62.96
-71.55
-81.43
-90.92
-97.6
-98.93
-93.03
-79.35
-58.99
-34.46
-8.96
14.57
34.07
48.7
58.5
64.07
66.06
65.12
61.89
57.16
51.87
46.99
43.29
41.05
40.08
39.8
39.59
38.98
37.84
36.28
34.46
32.43
29.94
26.6
22.0
16.05
9.05
1.64
-5.4
-11.51
-16.58
-20.98
-25.35
-30.3
-36.12
-42.61
-49.19
-55.16
-60.1
-63.98
-67.27
-70.73
-75.19
-81.2
-88.84
-97.5
-105.77
-111.61
-112.72
-107.25
-94.4
-74.88
-50.76
-24.96
-0.38
20.81
37.47
49.41
56.99
60.75
61.25
59.06
54.95
49.86
44.88
40.99
38.81
38.48
39.67
41.67
43.71
45.1
45.39
44.41
42.18
38.86
34.66
29.85
24.71
19.44
14.24
9.12
3.98
-1.37
-7.08
-13.26
-19.77
-26.31
-32.51
-38.06
-42.88
-47.26
-51.85
-57.47
-64.78
-73.77
-83.49
-91.89
-96.35
-94.4
-84.68
-67.45
-44.63
-19.17
5.81
27.92
45.82
59.16
68.2
73.34
74.94
73.42
69.43
63.98
58.33
53.68
50.86
50.08
50.94
52.64
54.3
55.29
55.3
54.38
52.72
50.48
47.68
44.24
40.02
34.94
29.12
22.79
16.34
10.13
4.43
-0.68
-5.35
-9.95
-14.89
-20.48
-26.72
-33.27
-39.51
-44.82
-48.86
-51.83
-54.47
-57.88
-63.14
-70.94
-81.22
-92.89
-103.93
-111.64
-113.35
-107.17
-92.66
-71.06
-44.96
-17.58
8.19
30.38
48.12
61.32
70.27
75.31
76.72
75.0
70.94
65.71
60.56
56.54
54.18
53.43
53.75
54.45
54.93
54.89
54.21
52.95
51.16
48.86
45.95
42.28
37.72
32.18
25.75
18.72
11.6
4.97
-0.71
-5.34
-9.27
-13.15
-17.67
-23.22
-29.69
-36.55
-43.07
-48.71
-53.31
-57.09
-60.62
-64.6
-69.68
-76.36
-84.71
-94.16
-103.33
-110.1
-112.03
-107.15
-94.56
-74.91
-50.23
-23.39
2.72
25.84
44.66
58.67
67.87
72.51
73.03
70.14
64.89
58.6
52.67
48.19
45.71
45.16
45.96
47.33
48.58
49.28
49.36
48.91
47.97
46.41
43.88
40.06
34.85
28.53
21.76
15.28
9.6
4.8
0.45
-4.03
-9.12
-14.92
-21.16
-27.34
-32.95
-37.75
-41.83
-45.64
-49.85
-55.26
-62.5
-71.7
-82.1
-92.0
-98.89
-100.2
-94.04
-79.92
-59.0
-33.71
-7.11
18.01
39.58
56.56
68.7
76.29
79.81
79.82
76.98
72.09
66.11
60.14
55.2
52.02
50.84
51.36
52.86
54.44
55.4
55.34
54.29
52.49
50.19
47.43
44.04
39.72
34.29
27.85
20.82
13.79
7.32
1.75
-2.96
-7.09
-11.1
-15.41
-20.31
-25.87
-31.92
-38.04
-43.73
-48.61
-52.56
-55.83
-59.03
-62.96
-68.42
-75.91
-85.39
-95.93
-105.7
-112.14
-112.59
-105.13
-89.32
-66.48
-39.37
-11.4
14.39
36.0
52.63
64.42
71.92
75.7
76.26
74.16
70.08
64.95
59.79
55.53
52.74
51.56
51.64
52.37
53.08
53.22
52.53
51.03
48.91
46.38
43.48
40.06
35.85
30.66
24.53
17.78
10.97
4.66
-0.79
-5.33
-9.28
-13.13
-17.4
-22.41
-28.2
-34.53
-40.96
-46.99
-52.27
-56.64
-60.28
-63.64
-67.41
-72.34
-78.98
-87.3
-96.4
-104.48
-109.09
-107.83
-99.14
-82.9
-60.6
-34.89
-8.8
15.01
34.84
49.94
60.23
66.03
67.81
66.18
62.07
56.62
51.06
46.49
43.52
42.21
42.15
42.68
43.15
43.21
42.74
41.85
40.62
39.05
36.95
34.06
30.19
25.33
19.75
13.87
8.14
2.82
-2.11
-6.94
-12.07
-17.75
-23.97
-30.36
-36.38
-41.5
-45.53
-48.77
-51.98
-56.19
-62.31
-70.67
-80.64
-90.55
-97.95
-100.21
-95.32
-82.58
-62.83
-38.3
-12.0
13.15
34.88
51.97
64.13
71.68
75.25
75.49
73.06
68.68
63.24
57.79
53.33
50.58
49.76
50.49
52.03
53.54
54.38
54.27
53.28
51.56
49.29
46.55
43.32
39.57
35.27
30.39
24.96
19.07
12.94
6.88
1.27
-3.64
-7.81
-11.49
-15.14
-19.19
-23.91
-29.25
-34.92
-40.5
-45.62
-50.12
-54.09
-57.91
-62.13
-67.43
-74.38
-83.11
-92.98
-102.38
-108.88
-109.81
-103.12
-88.15
-66.06
-39.49
-11.85
13.7
35.03
51.24
62.44
69.28
72.51
72.83
70.84
67.27
62.9
58.56
54.99
52.63
51.61
51.65
52.22
52.71
52.59
51.62
49.87
47.57
44.98
42.15
38.93
35.04
30.28
24.64
18.4
11.93
5.61
-0.33
-5.76
-10.73
-15.35
-19.87
-24.54
-29.64
-35.3
-41.45
-47.76
-53.79
-59.13
-63.64
-67.47
-71.04
-75.01
-79.98
-86.35
-93.92
-101.75
-108.06
-110.61
-107.32
-96.96
-79.72
-57.22
-32.03
-6.96
15.66
34.37
48.55
58.16
63.45
64.85
62.98
58.7
53.15
47.57
43.04
40.28
39.44
40.17
41.8
43.59
44.99
45.69
45.62
44.79
43.14
40.51
36.73
31.81
26.02
19.9
14.02
8.76
4.09
-0.4
-5.29
-11.01
-17.55
-24.45
-30.98
-36.51
-40.81
-44.16
-47.35
-51.32
-56.93
-64.58
-73.88
-83.51
-91.29
-94.67
-91.43
-80.49
-62.38
-39.13
-13.74
10.77
32.08
48.98
61.2
69.05
73.04
73.66
71.5
67.25
61.84
56.3
51.62
48.47
47.07
47.17
48.14
49.26
49.88
49.65
48.56
46.82
44.66
42.17
39.23
35.54
30.88
25.23
18.9
12.44
6.46
1.37
-2.75
-6.22
-9.62
-13.55
-18.39
-24.2
-30.66
-37.2
-43.23
-48.32
-52.39
-55.77
-59.07
-63.07
-68.57
-76.05
-85.47
-95.99
-105.84
-112.59
-113.66
-107.13
-92.36
-70.4
-43.74
-15.64
10.75
33.14
50.44
62.65
70.43
74.58
75.81
74.68
71.77
67.77
63.57
60.04
57.78
56.92
57.12
57.75
58.23
58.2
57.55
56.36
54.65
52.4
49.48
45.84
41.49
36.64
31.48
26.18
20.84
15.42
9.93
4.4
-0.98
-5.95
-10.3
-14.06
-17.52
-21.21
-25.64
-31.12
-37.56
-44.52
-51.42
-57.74
-63.26
-68.11
-72.66
-77.51
-83.27
-90.34
-98.54
-106.9
-113.58
-116.24
-112.71
-101.73
-83.51
-59.74
-33.15
-6.79
16.81
36.05
50.35
59.89
65.26
67.09
66.04
62.82
58.31
53.6
49.74
47.51
47.09
48.07
49.61
50.89
51.43
51.22
50.52
49.6
48.42
46.65
43.81
39.56
33.92
27.3
20.39
13.87
8.19
3.41
-0.77
-4.9
-9.52
-14.92
-20.99
-27.24
-33.09
-38.05
-41.99
-45.22
-48.44
-52.48
-58.12
-65.72
-74.93
-84.55
-92.54
-96.4
-93.91
-83.89
-66.67
-44.07
-18.91
5.89
28.01
46.11
59.73
68.96
74.15
75.7
74.11
70.1
64.66
58.92
53.98
50.63
49.16
49.38
50.65
52.16
53.17
53.16
51.98
49.81
46.96
43.77
40.38
36.73
32.66
28.0
22.75
17.11
11.43
6.06
1.22
-3.06
-6.93
-10.61
-14.37
-18.46
-23.06
-28.23
-33.89
-39.75
-45.42
-50.52
-54.85
-58.53
-61.98
-65.93
-71.16
-78.26
-87.19
-96.94
-105.58
-110.44
-109.0
-99.68
-82.55
-59.37
-33.11
-6.98
16.43
35.68
50.43
61.01
67.92
71.55
72.2
70.26
66.46
61.78
57.28
53.83
51.76
50.94
50.9
51.06
51.02
50.57
49.7
48.39
46.63
44.32
41.33
37.58
33.07
27.87
22.12
16.09
10.04
4.29
-0.94
-5.56
-9.64
-13.41
-17.18
-21.27
-25.89
-31.12
-36.8
-42.65
-48.29
-53.45
-58.04
-62.22
-66.36
-70.97
-76.57
-83.44
-91.38
-99.48
-106.12
-109.2
-106.78
-97.69
-82.04
-61.27
-37.73
-13.99
7.8
26.31
40.95
51.61
58.43
61.64
61.6
58.92
54.55
49.68
45.5
42.91
42.21
43.02
44.52
45.74
46.07
45.46
44.24
42.91
41.67
40.33
38.35
35.22
30.75
25.22
19.22
13.43
8.33
4.05
0.36
-3.2
-7.13
-11.76
-17.12
-22.96
-28.79
-34.18
-38.84
-42.81
-46.44
-50.33
-55.14
-61.45
-69.46
-78.82
-88.42
-96.38
-100.44
-98.49
-89.3
-72.98
-51.11
-26.28
-1.33
21.32
40.2
54.83
65.4
72.29
75.9
76.52
74.52
70.54
65.51
60.55
56.63
54.32
53.64
54.16
55.16
55.95
56.06
55.24
53.51
50.99
47.86
44.25
40.26
35.92
31.25
26.28
21.1
