0
23.27
21.08
18.85
17.02
15.97
15.9
16.76
18.28
20.01
21.51
22.45
22.69
22.2
21.04
19.29
17.07
14.58
12.05
9.62
7.36
5.13
2.72
-0.04
-3.15
-6.45
-9.71
-12.8
-15.79
-18.93
-22.51
-26.67
-31.3
-35.94
-39.93
-42.52
-43.09
-41.25
-36.97
-30.5
-22.35
-13.19
-3.79
5.15
13.03
19.46
24.25
27.39
28.99
29.21
28.28
26.51
24.3
22.1
20.34
19.3
19.05
19.41
20.05
20.67
21.07
21.21
21.15
20.92
20.54
19.88
18.83
17.32
15.38
13.17
10.85
8.49
6.04
3.39
0.46
-2.68
-5.87
-8.93
-11.83
-14.7
-17.83
-21.49
-25.75
-30.46
-35.22
-39.47
-42.59
-43.97
-43.12
-39.72
-33.78
-25.71
-16.32
-6.61
2.4
9.99
15.81
19.85
22.37
23.71
24.17
24.01
23.42
22.55
21.52
20.5
19.61
19.02
18.83
19.04
19.6
20.34
21.1
21.75
22.17
22.24
21.86
20.87
19.16
16.76
13.84
10.71
7.74
5.14
2.93
0.9
-1.22
-3.62
-6.32
-9.17
-11.99
-14.75
-17.58
-20.75
-24.49
-28.82
-33.39
-37.53
-40.48
-41.56
-40.35
-36.78
-31.09
-23.84
-15.76
-7.63
-0.16
6.19
11.25
15.07
17.82
19.59
20.38
20.2
19.13
17.48
15.67
14.12
13.14
12.8
13.05
13.75
14.8
16.04
17.3
18.32
18.85
18.68
17.76
16.24
14.32
12.31
10.4
8.67
7.04
5.31
3.29
0.84
-2.03
-5.16
-8.34
-11.43
-14.45
-17.6
-21.15
-25.28
-29.87
-34.55
-38.68
-41.55
-42.53
-41.24
-37.58
-31.81
-24.43
-16.18
-7.77
0.12
7.01
12.57
16.67
19.26
20.36
20.09
18.67
16.49
14.1
12.01
10.64
10.13
10.4
11.15
12.12
13.11
14.06
14.93
15.7
16.25
16.44
16.21
15.54
14.53
13.25
11.68
9.78
7.48
4.85
2.11
-0.5
-2.79
-4.79
-6.77
-9.09
-12.13
-16.11
-20.99
-26.41
-31.71
-35.99
-38.34
-38.09
-35.02
-29.47
-22.21
-14.19
-6.29
0.9
7.04
11.93
15.46
17.51
18.02
17.05
14.82
11.73
8.29
5.06
2.5
0.95
0.46
0.86
1.86
3.12
4.4
5.55
6.46
6.95
6.86
6.05
4.56
2.57
0.36
-1.84
-3.97
-6.07
-8.27
-10.58
-12.99
-15.41
-17.91
-20.74
-24.17
-28.34
-33.02
-37.59
-41.11
-42.65
-41.63
-37.92
-31.94
-24.35
-15.94
-7.39
0.75
8.03
14.05
18.48
21.15
22.13
21.74
20.44
18.71
16.98
15.55
14.6
14.25
14.49
15.19
16.16
17.2
18.15
18.93
19.5
19.77
19.63
18.88
17.43
15.28
12.58
9.52
6.34
3.15
0.03
-2.98
-5.87
-8.68
-11.5
-14.51
-17.76
-21.27
-24.85
-28.11
-30.56
-31.66
-30.92
-27.99
-22.73
-15.33
-6.23
3.88
14.26
24.25
33.32
41.12
47.48
52.36
55.96
58.62
60.88
63.33
66.53
70.81
76.17
82.12
87.81
92.1
93.88
92.4
87.43
79.39
69.14
57.67
45.8
34.0
22.5
11.41
0.91
-8.79
-17.48
-25.1
-31.77
-37.73
-43.21
-48.38
-53.42
-58.5
-63.81
-69.51
-75.56
-81.61
-87.02
-90.94
-92.55
-91.25
-86.84
-79.52
-69.86
-58.71
-47.07
-35.91
-26.08
-18.09
-12.05
-7.81
-5.0
-3.29
-2.49
-2.49
-3.23
-4.49
-5.9
-6.94
-7.2
-6.53
-5.06
-3.2
-1.37
0.04
0.85
1.0
0.58
-0.29
-1.41
-2.6
-3.81
-5.08
-6.63
-8.62
-11.16
-14.1
-17.19
-20.1
-22.65
-24.84
-26.86
-28.94
-31.26
-33.84
-36.5
-38.86
-40.34
-40.27
-38.08
-33.45
-26.56
-17.98
-8.62
0.65
9.17
16.58
22.79
27.85
31.77
34.57
36.25
36.83
36.47
35.36
33.84
32.25
30.94
30.18
30.09
30.56
31.28
31.87
31.98
31.44
30.23
28.44
26.18
23.54
20.58
17.4
14.13
10.95
7.98
5.24
2.64
0.02
-2.77
-5.83
-9.13
-12.63
-16.26
-20.07
-24.1
-28.41
-32.91
-37.28
-40.95
-43.18
-43.22
-40.59
-35.24
-27.64
-18.65
-9.3
-0.46
7.27
13.67
18.68
22.32
24.57
25.42
24.92
23.3
20.97
18.39
15.99
14.04
12.64
11.82
11.55
11.83
12.6
13.74
15.06
16.29
17.12
17.31
16.74
15.4
13.37
10.84
8.04
5.18
2.44
-0.08
-2.37
-4.49
-6.57
-8.83
-11.47
-14.71
-18.66
-23.3
-28.38
-33.45
-37.85
-40.86
-41.83
-40.32
-36.27
-29.98
-22.09
-13.42
-4.78
3.18
10.03
15.59
19.78
22.61
24.1
24.33
23.47
21.83
19.81
17.84
16.24
15.2
14.74
14.74
15.08
15.67
16.41
17.13
17.56
17.4
16.39
14.48
11.83
8.79
5.77
3.05
0.7
-1.37
-3.34
-5.42
-7.69
-10.2
-13.01
-16.16
-19.75
-23.78
-28.07
-32.2
-35.46
-37.04
-36.21
-32.62
-26.44
-18.33
-9.27
-0.22
8.09
15.28
21.16
25.69
28.75
30.32
30.51
29.61
28.11
26.48
25.08
24.0
23.15
22.46
21.89
21.5
21.34
21.37
21.41
21.23
20.67
19.68
18.3
16.65
14.77
12.72
10.47
8.02
5.37
2.57
-0.33
-3.22
-6.0
-8.63
-11.19
-13.95
-17.24
-21.37
-26.42
-32.14
-37.95
-43.11
-46.76
-48.19
-46.93
-42.81
-36.12
-27.48
-17.86
-8.27
0.35
7.44
12.79
16.52
18.97
20.48
21.33
21.64
21.48
20.88
19.95
18.84
17.74
16.81
16.13
15.72
15.58
15.76
16.29
17.16
18.18
19.02
19.35
18.89
17.64
15.78
13.62
11.38
9.15
6.83
4.3
1.49
-1.55
-4.65
-7.64
-10.35
-12.79
-15.15
-17.73
-20.87
-24.78
-29.4
-34.34
-38.91
-42.28
-43.64
-42.43
-38.48
-32.02
-23.68
-14.33
-4.88
3.89
11.49
17.74
22.63
26.28
28.75
30.07
30.26
29.48
27.99
26.15
24.29
22.66
21.4
20.56
20.16
20.17
20.48
20.91
21.18
21.04
20.28
18.86
16.92
14.65
12.29
10.0
7.82
5.72
3.56
1.21
-1.44
-4.42
-7.58
-10.74
-13.66
-16.31
-18.82
-21.54
-24.82
-28.86
-33.51
-38.28
-42.39
-44.96
-45.27
-42.97
-38.11
-31.16
-22.86
-14.02
-5.42
2.33
8.84
13.87
17.39
19.51
20.42
20.37
19.59
18.3
16.71
15.07
13.63
12.64
12.28
12.61
13.49
14.68
15.88
16.8
17.29
17.28
16.84
16.0
14.79
13.15
11.01
8.39
5.41
2.27
-0.86
-3.9
-6.94
-10.11
-13.5
-17.02
-20.51
-23.91
-27.29
-30.87
-34.8
-38.89
-42.56
-44.95
-45.2
-42.81
-37.74
-30.45
-21.69
-12.29
-3.04
5.42
12.55
18.01
21.69
23.68
24.25
23.72
22.41
20.61
18.61
16.7
15.15
14.17
13.81
14.02
14.7
15.69
16.83
17.95
18.77
19.05
18.54
17.19
15.09
12.5
9.68
6.8
3.87
0.83
-2.36
-5.63
-8.85
-11.83
-14.55
-17.11
-19.77
-22.86
-26.67
-31.3
-36.65
-42.32
-47.67
-51.86
-54.09
-53.72
-50.51
-44.6
-36.53
-27.11
-17.18
-7.58
1.03
8.17
13.63
17.52
20.15
21.92
23.12
23.86
24.1
23.81
23.12
22.33
21.81
21.84
22.48
23.58
24.9
26.18
27.23
27.88
27.95
27.25
25.73
23.51
20.81
17.91
14.94
11.88
8.58
4.97
1.12
-2.73
-6.29
-9.38
-12.0
-14.27
-16.32
-18.26
-20.2
-22.28
-24.77
-27.88
-31.64
-35.67
-39.2
-41.25
-40.98
-37.92
-32.18
-24.32
-15.15
-5.51
3.87
12.43
19.76
25.63
29.97
32.82
34.4
34.93
34.72
34.04
33.19
32.47
32.13
32.27
32.74
33.24
33.34
32.74
31.33
29.24
26.68
23.85
20.81
17.48
13.77
9.62
5.11
0.45
-4.12
-8.39
-12.27
-15.77
-19.0
-22.08
-25.05
-27.85
-30.29
-32.22
-33.6
-34.61
-35.59
-36.91
-38.85
-41.47
-44.63
-47.98
-51.0
-53.06
-53.43
-51.48
-46.87
-39.69
-30.54
-20.37
-10.18
-0.73
7.52
14.43
19.92
23.92
26.36
27.28
26.95
25.85
24.53
23.41
22.66
22.27
22.1
22.09
22.3
22.84
23.81
25.16
26.71
28.16
29.16
29.44
28.79
27.19
24.74
21.67
18.26
14.79
11.42
8.23
5.2
2.28
-0.56
-3.31
-5.93
-8.4
-10.66
-12.68
-14.5
-16.23
-18.09
-20.43
-23.5
-27.4
-31.87
-36.27
-39.76
-41.46
-40.76
-37.42
-31.62
-23.87
-14.92
-5.56
3.36
11.16
17.39
21.85
24.64
26.01
26.27
25.69
24.51
23.01
21.5
20.3
19.67
19.65
20.09
20.77
21.44
22.05
22.66
23.32
23.98
24.37
24.06
22.65
19.94
16.01
11.23
6.09
1.05
-3.62
-7.82
-11.55
-14.82
-17.6
-19.81
-21.41
-22.52
-23.38
-24.29
-25.58
-27.46
-29.99
-33.13
-36.67
-40.26
-43.38
-45.38
-45.56
-43.37
-38.61
-31.57
-22.89
-13.45
-4.11
4.48
11.9
17.95
22.53
25.55
27.01
27.04
25.93
24.16
22.27
20.7
19.67
19.24
19.31
19.74
20.46
21.44
22.63
23.96
25.33
26.65
27.8
28.66
29.0
28.5
26.85
23.83
19.49
14.04
7.86
1.39
-4.93
-10.77
-15.81
-19.83
-22.81
-24.95
-26.65
-28.43
-30.79
-33.99
-37.98
-42.39
-46.52
-49.53
-50.56
-48.97
-44.44
-37.2
-27.94
-17.68
-7.51
1.65
9.25
15.17
19.5
22.57
24.65
25.97
26.68
26.89
26.7
26.22
25.57
24.89
24.37
24.21
24.64
25.84
27.81
30.41
33.25
35.76
37.33
37.43
35.77
32.39
27.67
22.19
16.58
11.32
6.68
2.69
-0.68
-3.47
-5.62
-7.01
-7.5
-7.13
-6.21
-5.4
-5.67
-8.04
-13.33
-21.78
-32.88
-45.39
-57.58
-67.7
-74.4
-77.06
-75.77
-71.17
-64.14
-55.65
-46.54
-37.58
-29.44
-22.59
-17.26
-13.35
-10.51
-8.3
-6.38
-4.59
-2.88
-1.26
0.33
2.0
3.86
5.99
8.42
11.1
14.0
17.0
19.86
22.27
23.86
24.36
23.75
22.27
20.33
18.33
16.5
14.81
13.06
10.99
8.44
5.46
2.24
-0.94
-3.85
-6.38
-8.64
-10.84
-13.29
-16.27
-19.97
-24.44
-29.44
-34.49
-38.81
-41.5
-41.77
-39.2
-33.89
-26.43
-17.74
-8.74
-0.19
7.43
13.84
18.88
22.46
24.52
25.14
24.58
23.27
21.66
20.15
18.97
18.24
18.0
18.27
19.04
20.26
21.77
23.3
24.53
25.19
25.14
24.38
23.02
21.26
19.25
17.09
14.85
12.58
10.28
7.98
5.63
3.17
0.53
-2.29
-5.26
-8.24
-11.08
-13.74
-16.26
-18.86
-21.86
-25.52
-29.91
-34.79
-39.47
-43.0
-44.43
-43.06
-38.81
-32.2
-24.15
-15.63
-7.38
0.27
7.15
13.1
17.83
20.98
22.36
22.06
20.53
18.33
15.99
13.85
12.11
10.9
10.35
10.56
11.5
12.98
14.66
16.16
17.17
17.51
17.11
16.03
14.44
12.51
10.4
8.22
5.97
3.54
0.89
-1.95
-4.92
-7.93
-10.95
-14.04
-17.3
-20.79
-24.47
-28.28
-32.15
-35.96
-39.5
-42.36
-43.99
-43.75
-41.19
-36.25
-29.31
-21.09
-12.4
-4.03
3.52
9.93
15.07
18.84
21.22
22.27
22.17
21.22
19.8
18.31
17.07
16.33
16.25
16.87
18.09
19.67
21.29
22.58
23.3
23.37
22.88
21.97
20.77
19.29
17.47
15.22
12.51
9.37
5.83
1.98
-2.04
-6.04
-9.77
-13.06
-15.9
-18.51
-21.3
-24.65
-28.81
-33.72
-38.98
-43.87
-47.52
-49.05
-47.85
-43.64
-36.73
-27.86
-18.06
-8.37
0.42
7.86
13.78
18.17
21.1
22.69
23.1
22.63
21.63
20.45
19.34
18.45
17.87
17.67
17.93
18.68
19.85
21.24
22.56
23.52
23.93
23.74
23.0
21.83
20.3
18.43
16.17
13.49
10.41
7.01
3.43
-0.16
-3.61
-6.83
-9.74
-12.43
-15.05
-17.89
-21.3
-25.51
-30.56
-36.07
-41.38
-45.56
-47.77
-47.35
-44.08
-38.12
-30.02
-20.56
-10.7
-1.36
6.75
13.18
17.91
21.17
23.3
24.62
25.28
25.37
24.92
24.09
23.1
22.23
21.76
21.84
22.55
23.82
25.46
27.18
28.69
29.75
30.26
30.23
29.69
28.63
26.97
24.68
21.78
18.46
14.99
11.64
8.62
6.04
3.98
2.47
1.42
0.5
-0.81
-3.19
-7.23
-13.19
-20.81
-29.37
-37.76
-44.74
-49.21
-50.38
-48.03
-42.5
-34.6
-25.44
-16.07
-7.28
0.54
7.24
12.84
17.28
20.46
22.24
22.61
21.77
20.12
18.25
16.71
15.96
16.24
17.49
19.46
21.71
23.78
25.28
25.93
25.59
24.28
22.16
19.51
16.69
14.04
11.77
9.93
8.39
6.9
5.23
3.19
0.72
-2.17
-5.37
-8.73
-12.12
-15.49
-18.91
-22.53
-26.57
-31.06
-35.76
-40.0
-42.9
-43.55
-41.36
-36.26
-28.74
-19.72
-10.26
-1.25
6.71
13.29
18.33
21.66
23.2
23.03
21.54
19.36
17.21
15.6
14.74
14.5
14.65
15.0
15.57
16.39
17.44
18.56
19.43
19.76
19.38
18.35
16.8
14.92
12.8
10.47
7.91
5.12
2.15
-0.91
-3.91
-6.73
-9.29
-11.63
-13.9
-16.31
-19.11
-22.48
-26.46
-30.93
-35.57
-39.88
-43.22
-44.92
-44.35
-41.11
-35.15
-26.82
-16.92
-6.56
3.12
11.12
16.88
20.35
21.86
21.99
21.29
20.21
19.04
17.92
17.01
16.41
16.22
16.51
17.24
18.32
19.59
20.88
22.0
22.77
23.04
22.76
21.96
20.77
19.33
17.7
15.87
13.78
11.35
8.58
5.55
2.31
-1.04
-4.49
-8.0
-11.49
-14.89
-18.14
-21.32
-24.67
-28.52
-33.03
-38.09
-43.14
-47.29
-49.55
-49.18
-45.9
-39.95
-32.0
-22.93
-13.64
-4.89
2.85
9.29
14.38
18.12
20.59
21.92
22.33
22.09
21.49
20.76
20.06
19.48
19.11
19.05
19.41
20.3
21.69
23.39
25.08
26.44
27.16
27.08
26.19
24.59
22.45
19.99
17.38
14.76
12.21
9.7
7.18
4.6
1.9
-0.92
-3.84
-6.82
-9.86
-12.95
-16.14
-19.5
-23.16
-27.17
-31.45
-35.72
-39.4
-41.81
-42.3
-40.45
-36.25
-30.06
-22.47
-14.16
-5.74
2.31
9.57
15.68
20.31
23.27
24.62
24.67
23.98
23.12
22.58
22.61
23.19
24.17
25.35
26.6
27.87
29.21
30.68
32.32
34.1
35.88
37.37
38.15
37.79
35.94
32.5
27.61
21.61
14.88
7.68
0.21
-7.31
-14.59
-21.2
-26.75
-31.05
-34.19
-36.5
-38.45
-40.43
-42.69
-45.31
-48.26
-51.37
-54.27
-56.37
-56.89
-55.07
-50.43
-42.98
-33.29
-22.37
-11.37
-1.26
7.3
14.07
19.16
22.85
25.49
27.35
28.62
29.4
29.69
29.43
28.51
26.86
24.49
21.52
18.28
15.13
12.44
10.44
9.23
8.74
8.82
9.32
10.09
10.92
11.52
11.65
11.15
10.07
8.63
7.11
5.67
4.28
2.74
0.76
-1.82
-5.03
-8.71
-12.73
-16.92
-21.17
-25.3
-29.01
-31.86
-33.4
-33.34
-31.66
-28.64
-24.72
-20.31
-15.72
-11.04
-6.3
-1.58
2.88
6.74
9.6
11.25
11.67
11.09
9.92
8.55
7.35
6.51
6.15
6.28
6.9
7.98
9.43
11.05
12.57
13.64
13.99
13.51
12.3
10.64
8.82
7.05
5.38
3.74
1.94
-0.13
-2.56
-5.29
-8.19
-11.1
-13.87
-16.46
-18.95
-21.52
-24.4
-27.68
-31.2
-34.53
-36.99
-37.92
-36.79
-33.41
-27.95
-20.88
-12.92
-4.83
2.67
9.01
13.79
16.89
18.38
18.49
17.56
15.97
14.09
12.26
10.74
9.69
9.14
9.01
9.17
9.48
9.87
10.33
10.88
11.47
11.94
12.11
11.79
10.91
9.51
7.77
5.8
3.64
1.26
-1.43
-4.42
-7.58
-10.73
-13.75
-16.64
-19.59
-22.8
-26.41
-30.33
-34.13
-37.2
-38.8
-38.33
-35.49
-30.37
-23.43
-15.38
-7.02
0.97
8.04
13.87
18.25
21.16
22.63
22.87
22.22
21.01
19.6
18.2
16.93
15.86
15.07
14.66
14.73
15.26
16.11
17.02
17.69
17.98
17.82
17.3
16.51
15.47
14.12
12.39
10.26
7.78
5.09
2.29
-0.56
-3.49
-6.52
-9.68
-12.94
-16.28
-19.81
-23.69
-28.1
-33.03
-38.12
-42.72
-45.97
-47.11
-45.66
-41.55
-35.13
-27.04
-18.04
-8.96
-0.5
6.77
12.53
16.71
19.45
21.05
21.8
21.96
21.71
21.17
20.43
19.59
18.76
18.04
17.53
17.32
17.52
18.14
19.13
20.31
21.37
21.96
21.78
20.67
18.67
15.99
12.94
9.83
6.85
4.05
1.37
-1.32
-4.13
-7.07
-10.1
-13.12
-16.08
-19.04
-22.13
-25.53
-29.4
-33.72
-38.27
-42.54
-45.79
-47.18
-45.97
-41.79
-34.79
-25.64
-15.39
-5.13
4.26
12.23
18.6
23.38
26.7
28.64
29.33
28.96
27.9
26.5
25.13
23.94
22.97
22.15
21.47
20.99
20.82
21.0
21.43
21.8
21.73
20.95
19.38
17.17
14.59
11.86
9.06
6.16
3.06
-0.22
-3.55
-6.65
-9.21
-11.02
-12.08
-12.57
-12.84
-13.32
-14.39
-16.31
-19.15
-22.89
-27.27
-31.89
-36.11
-39.18
-40.33
-38.93
-34.75
-28.02
-19.45
-10.01
-0.7
7.77
14.99
20.84
25.33
28.43
30.1
30.27
29.07
26.81
23.97
21.11
18.68
16.95
15.99
15.74
15.98
16.44
16.79
16.8
16.36
15.55
14.53
13.41
12.13
10.5
8.29
5.41
2.02
-1.55
-4.93
-7.94
-10.61
-13.14
-15.79
-18.71
-21.94
-25.51
-29.41
-33.6
-37.83
-41.64
-44.31
-45.01
-43.11
-38.39
-31.15
-22.2
-12.63
-3.55
4.2
10.24
14.58
17.52
19.37
20.26
20.14
18.9
16.61
13.66
10.72
8.48
7.34
7.23
7.71
8.24
8.49
8.54
8.66
9.13
9.91
10.68
10.89
10.14
8.29
5.58
2.44
-0.7
-3.57
-6.1
-8.4
-10.63
-12.99
-15.69
-18.94
-22.83
-27.29
-31.97
-36.21
-39.2
-40.16
-38.54
-34.25
-27.64
-19.46
-10.61
-2.01
5.61
11.87
16.69
20.19
22.57
24.0
24.53
24.21
23.15
21.65
20.08
18.81
18.08
17.86
17.98
18.22
18.43
18.6
18.75
18.89
18.98
18.86
18.38
17.43
15.93
13.86
11.27
8.25
5.01
1.76
-1.26
-3.95
-6.35
-8.63
-11.06
-13.93
-17.48
-21.79
-26.72
-31.81
-36.36
-39.56
-40.66
-39.2
-35.19
-29.05
-21.56
-13.6
-5.92
0.93
6.7
11.35
14.93
17.53
19.2
19.96
19.89
19.18
18.13
17.15
16.63
16.88
17.99
19.84
22.1
24.34
26.15
27.25
27.56
27.19
26.38
25.38
24.37
23.39
22.3
20.94
19.13
16.86
14.25
11.53
8.95
6.77
5.14
4.12
3.5
2.75
0.98
-2.84
-9.45
-18.82
-29.88
-40.72
-49.14
-53.39
-52.81
-47.9
-40.06
-30.88
-21.66
-13.12
-5.49
1.14
6.68
10.84
13.36
14.18
13.59
12.21
10.79
9.95
9.97
10.74
11.82
12.78
13.37
13.59
13.64
13.76
14.01
14.19
13.92
12.83
10.71
7.64
3.96
0.12
-3.55
-6.91
-10.01
-12.97
-15.76
-18.21
-20.1
-21.26
-21.79
-22.01
-22.4
-23.38
-25.14
-27.54
-30.09
-32.09
-32.77
-31.55
-28.17
-22.78
-15.91
-8.33
-0.86
5.84
11.38
15.65
18.72
20.76
21.88
22.19
21.72
20.59
18.96
17.15
15.5
14.33
13.86
14.12
14.97
16.15
17.32
18.2
18.62
18.55
18.06
17.23
16.13
14.69
12.87
10.63
8.03
5.19
2.22
-0.84
-4.01
-7.33
-10.77
-14.22
-17.63
-21.06
-24.69
-28.71
-33.06
-37.29
-40.59
-42.06
-41.05
-37.38
-31.47
-24.1
-16.15
-8.35
-1.19
5.07
10.27
14.27
16.99
18.41
18.63
17.86
16.35
14.38
12.25
10.28
8.78
8.02
8.18
9.23
10.97
12.98
14.8
16.02
16.39
15.88
14.64
12.9
10.84
8.56
6.07
3.37
0.54
-2.26
-4.91
-7.34
-9.69
-12.2
-15.16
-18.72
-22.83
-27.23
-31.52
-35.16
-37.58
-38.26
-36.81
-33.14
-27.5
-20.44
-12.7
-5.04
2.0
8.08
13.04
16.91
19.71
21.53
22.48
22.71
22.37
21.61
20.48
19.08
17.59
16.26
15.42
15.33
16.02
17.28
18.69
19.77
20.19
19.86
18.85
17.33
15.45
13.26
10.77
7.96
4.9
1.74
-1.33
-4.13
-6.61
-8.82
-10.96
-13.31
-16.14
-19.6
-23.61
-27.85
-31.75
-34.63
-35.79
-34.68
-31.04
-24.95
-16.93
-7.94
0.77
7.92
12.58
14.38
13.67
11.27
8.2
5.31
3.05
1.54
0.7
0.39
0.59
1.35
2.72
4.71
7.25
10.15
13.12
15.88
18.16
19.79
20.71
20.94
20.51
19.45
17.76
15.51
12.85
10.02
7.23
4.63
2.21
-0.14
-2.54
-5.1
-7.9
-11.01
-14.48
-18.42
-22.81
-27.46
-31.96
-35.63
-37.72
-37.55
-34.79
-29.58
-22.52
-14.49
-6.42
0.97
7.29
12.44
16.47
19.45
21.35
22.14
21.84
20.65
18.93
17.1
15.52
14.41
13.83
13.76
14.14
14.91
15.94
17.06
18.04
18.62
18.67
18.15
17.12
15.66
13.82
11.62
9.04
6.22
3.28
0.36
-2.43
-5.09
-7.66
-10.19
-12.7
-15.21
-17.81
-20.7
-24.1
-28.1
-32.56
-36.99
-40.64
-42.7
-42.55
-39.91
-34.93
-28.08
-20.06
-11.61
-3.43
3.9
9.99
14.67
17.91
19.79
20.38
19.76
18.09
15.76
13.33
11.4
10.38
10.35
10.99
11.89
12.75
13.48
14.14
14.78
15.25
15.32
14.75
13.5
11.78
9.82
7.8
5.69
3.37
0.72
-2.24
-5.3
-8.2
-10.74
-12.86
-14.69
-16.54
-18.77
-21.65
-25.16
-28.95
-32.34
-34.51
-34.82
-32.98
-29.14
-23.76
-17.44
-10.72
-4.09
2.07
7.4
11.61
14.53
16.18
16.7
16.35
15.4
14.07
12.6
11.21
10.18
9.71
9.91
10.7
11.9
13.23
14.45
15.35
15.79
15.63
14.77
13.1
10.67
7.59
4.14
0.62
-2.68
-5.57
-7.97
-9.91
-11.48
-12.88
-14.39
-16.34
-19.02
-22.51
-26.6
-30.74
-34.14
-36.04
-35.86
-33.4
-28.83
-22.62
-15.38
-7.76
-0.35
6.38
12.06
16.44
19.38
20.86
20.98
19.99
18.28
16.34
14.62
13.46
12.98
13.09
13.57
14.18
14.75
15.24
15.62
15.92
16.12
16.16
15.98
15.5
14.66
13.39
11.6
9.29
6.52
3.43
0.23
-2.85
-5.66
-8.14
-10.34
-12.49
-14.89
-17.82
-21.47
-25.88
-30.84
-35.9
-40.36
-43.47
-44.52
-43.02
-38.85
-32.31
-24.03
-14.89
-5.79
2.48
9.38
14.69
18.47
20.97
22.44
23.07
22.88
21.86
20.13
17.98
15.9
14.43
13.89
14.28
15.24
16.27
16.99
17.21
16.95
16.35
15.46
14.25
12.62
10.53
8.04
5.35
2.62
-0.0
-2.57
-5.22
-8.06
-11.1
-14.16
-17.01
-19.43
-21.45
-23.31
-25.41
-28.1
-31.54
-35.49
-39.4
-42.5
-44.02
-43.39
-40.37
-35.05
-27.83
-19.36
-10.45
-1.85
5.86
12.36
17.58
21.56
24.33
25.92
26.37
25.83
24.56
23.0
21.55
20.52
20.08
20.32
21.19
22.64
24.51
26.55
28.4
29.7
30.18
29.74
28.46
26.55
24.21
21.66
19.04
16.4
13.74
10.95
7.93
4.61
1.05
-2.55
-5.93
-8.92
-11.51
-13.9
-16.42
-19.35
-22.78
-26.49
-29.97
-32.59
-33.67
-32.72
-29.46
-24.01
-16.8
-8.58
-0.21
7.46
13.83
18.58
21.69
23.35
23.83
23.4
22.28
20.63
18.61
16.39
14.22
12.35
11.06
10.57
10.94
11.99
13.37
14.61
15.32
15.31
14.59
13.32
11.66
9.71
7.51
5.11
2.6
0.07
-2.42
-4.89
-7.41
-10.03
-12.75
-15.49
-18.19
-20.89
-23.68
-26.7
-30.0
-33.45
-36.8
-39.67
-41.63
-42.23
-41.06
-37.83
-32.45
-25.25
-16.9
-8.33
-0.49
5.95
10.65
13.66
15.2
15.63
15.25
14.36
13.26
12.21
11.4
10.96
10.87
11.1
11.56
12.23
13.13
14.23
15.46
16.64
17.57
17.99
17.77
16.85
15.3
13.26
10.89
8.31
5.63
2.93
0.33
-2.07
-4.13
-5.82
-7.18
-8.43
-9.94
-12.06
-14.97
-18.46
-21.88
-24.25
-24.55
-22.11
-16.82
-9.27
-0.43
8.63
17.12
24.64
31.19
36.95
42.11
46.77
50.83
53.98
55.64
55.05
51.45
44.44
34.33
22.17
9.52
-1.99
-11.21
-17.69
-21.62
-23.58
-24.17
-23.95
-23.32
-22.76
-22.73
-23.64
-25.69
-28.69
-32.16
-35.46
-37.97
-39.33
-39.56
-39.02
-38.29
-38.0
-38.6
-40.25
-42.82
-45.86
-48.75
-50.73
-51.04
-49.1
-44.62
-37.75
-29.03
-19.29
-9.38
-0.04
8.28
15.24
20.7
24.57
26.85
27.71
27.48
26.57
25.43
24.4
23.68
23.36
23.41
23.74
24.19
24.61
24.88
24.94
24.86
24.67
24.34
23.76
22.71
21.03
18.71
15.87
12.77
9.65
6.66
3.84
1.18
-1.33
-3.68
-5.92
-8.15
-10.56
-13.34
-16.62
-20.36
-24.33
-28.06
-30.96
-32.39
-31.83
-29.04
-24.14
-17.6
-10.1
-2.43
4.77
11.06
16.17
19.99
22.49
23.72
23.77
22.82
21.13
19.03
16.91
15.09
13.81
13.17
13.1
13.46
14.09
14.84
15.61
16.29
16.77
16.89
16.49
15.45
13.74
11.47
8.83
6.06
3.36
0.85
-1.43
-3.49
-5.39
-7.2
-9.03
-11.03
-13.38
-16.21
-19.57
-23.36
-27.31
-31.01
-33.98
-35.74
-35.87
-34.08
-30.31
-24.8
-18.04
-10.71
-3.46
3.19
8.96
13.76
17.58
20.36
22.02
22.54
22.02
20.74
19.09
17.48
16.21
15.42
15.18
15.46
16.16
17.07
17.92
18.39
18.27
17.5
16.22
14.63
12.9
11.04
9.04
6.86
4.55
2.2
-0.15
-2.49
-4.83
-7.15
-9.36
-11.31
-12.99
-14.56
-16.38
-18.86
-22.21
-26.32
-30.73
-34.72
-37.53
-38.49
-37.23
-33.67
-28.1
-21.11
-13.49
-6.01
0.69
6.21
10.39
13.28
15.01
15.77
15.71
14.99
13.76
12.23
10.61
9.16
8.11
7.66
7.84
8.6
9.78
11.12
12.4
13.4
13.98
14.02
13.44
12.24
10.47
8.26
5.8
3.25
0.75
-1.63
-3.91
-6.16
-8.46
-10.91
-13.58
-16.5
-19.7
-23.08
-26.41
-29.27
-31.15
-31.52
-30.01
-26.57
-21.43
-15.09
-8.23
-1.47
4.65
9.71
13.52
16.03
17.36
17.71
17.35
16.5
15.32
13.91
12.39
10.92
9.75
9.14
9.22
9.98
11.22
12.62
13.87
14.7
15.01
14.75
13.88
12.35
10.19
7.49
4.47
1.43
-1.39
-3.82
-5.91
-7.8
-9.69
-11.72
-14.05
-16.74
-19.82
-23.24
-26.87
-30.43
-33.52
-35.67
-36.44
-35.48
-32.68
-28.13
-22.16
-15.21
-7.83
-0.57
6.07
11.66
15.93
18.74
20.2
20.54
20.1
19.2
18.08
16.87
15.68
14.65
13.91
13.63
13.81
14.38
15.11
15.79
16.27
16.5
16.44
16.07
15.31
14.07
12.35
10.22
7.85
5.44
3.11
0.88
-1.32
-3.56
-5.91
-8.38
-10.94
-13.56
-16.24
-19.06
-22.08
-25.35
-28.81
-32.19
-35.04
-36.75
-36.74
-34.6
-30.29
-24.14
-16.79
-8.98
-1.39
5.43
11.12
15.5
18.51
20.25
20.87
20.62
19.71
18.34
16.73
15.09
13.71
12.84
12.63
13.02
13.8
14.69
15.47
16.13
16.7
17.22
17.59
17.62
17.07
15.83
13.97
11.67
9.19
6.69
4.23
1.8
-0.61
-2.96
-5.19
-7.27
-9.23
-11.2
-13.37
-15.97
-19.14
-22.9
-27.08
-31.28
-34.9
-37.23
-37.66
-35.76
-31.48
-25.19
-17.56
-9.43
-1.63
5.23
10.75
14.8
17.5
19.05
19.69
19.67
19.13
18.2
16.97
15.61
14.32
13.34
12.89
13.08
13.87
15.05
16.33
17.39
17.97
17.93
17.29
16.17
14.69
12.95
10.94
8.61
5.94
3.01
0.0
-2.88
-5.56
-8.06
-10.52
-13.09
-15.83
-18.78
-22.0
-25.54
-29.47
-33.63
-37.58
-40.55
-41.69
-40.32
-36.27
-29.93
-22.12
-13.78
-5.73
1.5
7.7
12.78
16.74
19.54
21.17
21.62
20.97
19.41
17.21
14.75
12.42
10.66
9.77
9.89
10.89
12.43
14.04
15.3
15.93
15.84
15.1
13.8
12.03
9.9
7.53
5.01
2.44
-0.09
-2.52
-4.82
-7.01
-9.12
-11.27
-13.58
-16.21
-19.26
-22.73
-26.52
-30.36
-33.86
-36.49
-37.7
-37.03
-34.21
-29.3
-22.69
-15.07
-7.2
0.18
6.53
11.57
15.22
17.57
18.83
19.21
18.91
18.08
16.85
15.37
13.82
12.47
11.62
11.46
12.03
13.15
14.58
16.02
17.25
18.11
18.45
18.09
16.89
14.8
11.95
8.62
5.2
1.98
-0.86
-3.33
-5.51
-7.56
-9.63
-11.86
-14.43
-17.5
-21.11
-25.23
-29.63
-33.97
-37.79
-40.56
-41.66
-40.55
-36.94
-30.94
-23.18
-14.62
-6.29
1.0
6.9
11.44
14.88
17.44
19.2
20.1
20.05
19.11
17.51
15.68
14.1
13.14
12.98
13.62
14.87
16.43
18.05
19.47
20.56
21.18
21.19
20.49
19.0
16.73
13.82
10.5
7.0
3.55
0.27
-2.78
-5.54
-8.06
-10.42
-12.79
-15.45
-18.64
-22.51
-26.98
-31.67
-35.96
-39.12
-40.51
-39.73
-36.72
-31.7
-25.09
-17.47
-9.43
-1.57
5.59
11.61
16.18
19.21
20.74
20.99
20.26
18.84
17.02
14.98
12.96
11.21
10.03
9.67
10.24
11.61
13.4
15.13
16.34
16.79
16.52
15.72
14.66
13.49
12.23
10.81
9.18
7.38
5.5
3.64
1.81
-0.07
-2.13
-4.48
-7.24
-10.42
-14.03
-18.04
-22.34
-26.63
-30.44
-33.1
-33.93
-32.44
-28.51
-22.43
-14.86
-6.64
1.42
8.67
14.73
19.44
22.79
24.82
25.55
25.05
23.46
21.18
18.76
16.84
15.91
16.1
17.16
18.6
19.88
20.66
20.86
20.55
19.85
18.84
17.47
15.77
13.75
11.55
9.24
6.89
4.49
2.01
-0.6
-3.37
-6.28
-9.28
-12.27
-15.16
-17.91
-20.59
-23.37
-26.44
-29.81
-33.14
-35.79
-36.99
-36.05
-32.69
-27.11
-19.96
-12.02
-4.12
3.11
9.24
14.0
17.29
19.16
19.76
19.32
18.13
16.48
14.69
13.08
11.9
11.25
11.08
11.21
11.46
11.7
11.9
12.08
12.2
12.13
11.69
10.73
9.26
7.42
5.39
3.29
1.16
-1.02
-3.25
-5.49
-7.66
-9.73
-11.77
-13.94
-16.45
-19.48
-23.06
-27.05
-31.02
-34.35
-36.22
-35.94
-33.17
-28.02
-21.11
-13.38
-5.73
1.13
6.86
11.4
14.81
17.19
18.59
19.03
18.57
17.37
15.72
14.0
12.58
11.75
11.62
12.14
13.09
14.21
15.23
15.97
16.34
16.33
15.92
15.1
13.85
12.11
9.93
7.37
4.54
1.58
-1.43
-4.42
-7.39
-10.32
-13.15
-15.84
-18.43
-21.05
-23.85
-26.99
-30.42
-33.8
-36.6
-38.09
-37.66
-34.93
-29.93
-23.11
-15.19
-7.03
0.63
7.29
12.72
16.88
19.78
21.42
21.84
21.18
19.81
18.23
16.97
16.39
16.56
17.29
18.29
19.26
19.95
20.28
20.2
19.71
18.83
17.63
16.19
14.61
12.95
11.17
9.22
7.02
4.53
1.79
-1.03
-3.77
-6.29
-8.57
-10.73
-12.98
-15.62
-18.83
-22.68
-26.97
-31.25
-34.82
-36.91
-36.89
-34.44
-29.69
-23.19
-15.68
-7.95
-0.59
6.01
11.65
16.18
19.51
21.6
22.5
22.42
21.69
20.64
19.56
18.6
17.84
17.29
16.97
16.9
17.06
17.39
17.75
17.98
17.93
17.51
16.69
15.46
13.83
11.79
9.32
6.44
3.25
-0.09
-3.37
-6.4
-9.08
-11.48
-13.77
-16.24
-19.04
-22.22
-25.62
-28.96
-31.91
-34.12
-35.25
-34.88
-32.64
-28.32
-22.08
-14.51
-6.51
0.99
7.37
12.41
16.3
19.32
21.61
23.06
23.52
22.92
21.43
19.47
17.54
16.05
15.18
14.93
15.12
15.53
15.93
16.13
16.06
15.71
15.15
14.46
13.63
12.51
10.94
8.82
6.22
3.32
0.36
-2.49
-5.21
-7.88
-10.64
-13.6
-16.81
-20.31
-24.09
-28.08
-32.0
-35.34
-37.45
-37.68
-35.58
-31.14
-24.75
-17.12
-9.07
-1.3
5.61
11.3
15.54
18.23
19.38
19.16
17.87
15.92
13.75
11.74
10.2
9.31
9.11
9.5
10.28
11.21
