0
64.77
62.94
61.32
59.83
58.56
57.68
57.28
57.15
56.72
55.17
51.84
46.5
39.54
31.77
24.1
17.13
10.94
5.07
-1.17
-8.31
-16.4
-24.96
-33.19
-40.34
-46.13
-50.84
-55.32
-60.7
-68.09
-78.17
-90.79
-104.6
-117.11
-125.02
-125.13
-115.54
-96.48
-70.44
-41.38
-13.37
10.7
29.79
44.36
55.53
64.17
70.53
74.39
75.62
74.53
72.01
69.18
66.98
65.88
65.77
66.13
66.41
66.25
65.64
64.82
64.02
63.2
61.89
59.36
54.96
48.5
40.47
31.88
23.89
17.26
12.03
7.48
2.55
-3.7
-11.56
-20.56
-29.64
-37.57
-43.56
-47.58
-50.47
-53.59
-58.44
-66.21
-77.4
-91.56
-107.09
-121.29
-130.79
-132.29
-123.71
-105.05
-78.61
-48.4
-18.82
6.69
26.46
40.53
50.03
56.19
59.84
61.34
60.87
58.84
55.93
53.01
50.83
49.74
49.62
50.01
50.36
50.28
49.65
48.54
47.05
45.07
42.34
38.5
33.35
27.07
20.18
13.33
6.97
1.15
-4.44
-10.23
-16.42
-22.81
-28.91
-34.2
-38.43
-41.81
-44.99
-48.89
-54.48
-62.52
-73.13
-85.52
-97.67
-106.62
-109.18
-103.02
-87.62
-64.66
-37.56
-10.35
13.64
32.58
46.25
55.51
61.42
64.67
65.47
63.88
60.19
55.22
50.12
46.04
43.68
43.11
43.86
45.29
46.84
48.11
48.82
48.67
47.25
44.19
39.37
33.0
25.64
17.97
10.53
3.53
-3.26
-10.27
-17.93
-26.38
-35.31
-44.01
-51.7
-57.85
-62.54
-66.5
-71.02
-77.45
-86.73
-98.83
-112.42
-124.86
-132.68
-132.55
-122.45
-102.51
-75.23
-44.67
-15.19
9.98
29.47
43.67
53.89
61.43
66.97
70.55
72.05
71.56
69.65
67.21
65.03
63.54
62.66
62.0
61.16
60.0
58.71
57.62
56.87
56.24
55.04
52.39
47.66
40.8
32.46
23.77
15.83
9.22
3.81
-1.19
-6.76
-13.66
-21.99
-31.15
-40.11
-47.81
-53.68
-57.91
-61.49
-65.86
-72.55
-82.49
-95.59
-110.4
-124.17
-133.38
-134.69
-126.0
-107.25
-80.65
-50.02
-19.59
7.22
28.67
44.7
56.27
64.55
70.28
73.63
74.6
73.33
70.46
66.94
63.76
61.54
60.31
59.59
58.74
57.36
55.54
53.8
52.73
52.57
52.93
52.84
51.18
47.19
40.87
33.0
24.74
17.14
10.73
5.3
0.22
-5.32
-11.8
-19.28
-27.34
-35.28
-42.37
-48.16
-52.71
-56.54
-60.61
-66.08
-73.97
-84.87
-98.5
-113.38
-126.82
-135.3
-135.43
-125.15
-104.65
-76.51
-44.92
-14.31
12.06
32.78
48.06
58.95
66.42
70.96
72.69
71.81
68.92
64.99
61.08
57.94
55.83
54.57
53.73
52.93
52.0
51.01
50.11
49.34
48.46
46.98
44.27
39.91
33.97
27.09
20.24
14.25
9.43
5.37
1.17
-4.07
-10.81
-18.79
-27.17
-34.91
-41.21
-45.88
-49.36
-52.66
-57.05
-63.75
-73.45
-85.92
-99.62
-111.76
-118.8
-117.5
-106.11
-85.18
-57.57
-27.49
0.82
24.41
42.22
54.74
63.15
68.46
71.14
71.28
69.1
65.23
60.74
56.76
54.04
52.77
52.65
53.15
53.82
54.41
54.85
55.09
54.99
54.17
52.15
48.43
42.81
35.55
27.38
19.34
12.31
6.63
1.88
-2.89
-8.77
-16.34
-25.4
-34.99
-43.82
-50.96
-56.16
-60.1
-64.09
-69.66
-78.02
-89.7
-104.11
-119.43
-132.66
-140.22
-138.87
-126.89
-104.79
-75.43
-43.17
-12.45
13.53
33.55
48.11
58.64
66.42
72.03
75.43
76.45
75.3
72.8
70.05
67.97
66.9
66.5
66.11
65.22
63.73
62.06
60.75
60.08
59.78
59.0
56.69
52.1
45.09
36.35
27.11
18.66
11.79
6.44
1.77
-3.4
-10.01
-18.25
-27.5
-36.56
-44.32
-50.18
-54.39
-57.85
-61.89
-67.86
-76.75
-88.91
-103.6
-118.84
-131.48
-137.82
-134.76
-120.96
-97.5
-67.68
-35.92
-6.36
18.39
37.52
51.64
61.82
68.84
72.99
74.35
73.24
70.5
67.33
64.83
63.56
63.34
63.47
63.26
62.38
61.07
59.96
59.6
60.09
60.89
60.98
59.32
55.31
49.08
41.53
33.91
27.29
22.05
17.75
13.39
7.93
0.88
-7.53
-16.43
-24.79
-31.86
-37.53
-42.32
-47.22
-53.43
-62.04
-73.75
-88.36
-104.39
-119.04
-128.57
-129.43
-119.49
-99.02
-70.77
-39.19
-8.96
16.43
35.44
48.31
56.36
60.93
62.88
62.5
59.95
55.6
50.28
45.06
40.91
38.31
37.23
37.2
37.65
38.14
38.43
38.35
37.74
36.3
33.72
29.82
24.61
18.37
11.48
4.25
-3.13
-10.73
-18.67
-27.03
-35.59
-43.87
-51.22
-57.16
-61.66
-65.29
-69.13
-74.45
-82.38
-93.36
-106.74
-120.6
-131.8
-136.68
-132.13
-116.76
-91.64
-60.15
-26.99
3.41
28.16
46.51
59.33
68.24
74.45
78.44
80.12
79.39
76.63
72.84
69.32
67.1
66.55
67.23
68.26
68.72
68.16
66.76
65.05
63.57
62.42
61.09
58.67
54.29
47.59
38.99
29.53
20.48
12.79
6.68
1.51
-3.85
-10.5
-18.96
-28.93
-39.37
-48.97
-56.7
-62.26
-66.23
-69.84
-74.6
-81.85
-92.37
-106.14
-121.95
-137.27
-148.48
-151.66
-143.86
-124.29
-94.98
-60.23
-25.27
5.51
29.77
47.4
59.78
68.62
75.03
79.4
81.68
81.9
80.51
78.31
76.13
74.54
73.75
73.52
73.46
73.17
72.44
71.29
69.92
68.55
67.17
65.51
63.02
59.13
53.48
46.13
37.54
28.52
19.94
12.46
6.35
1.37
-3.17
-8.1
-14.14
-21.51
-29.87
-38.45
-46.35
-52.96
-58.15
-62.39
-66.55
-71.74
-79.03
-89.19
-102.3
-117.41
-132.16
-143.09
-146.32
-138.91
-119.94
-91.17
-56.65
-21.38
10.18
35.4
53.75
66.24
74.37
79.3
81.52
81.12
78.38
74.03
69.23
65.16
62.51
61.31
60.96
60.66
59.86
58.46
56.83
55.46
54.62
54.06
53.05
50.64
46.08
39.29
30.92
22.16
14.27
8.0
3.24
-0.92
-5.68
-11.95
-19.84
-28.68
-37.35
-44.78
-50.41
-54.38
-57.43
-60.68
-65.28
-72.23
-82.07
-94.53
-108.29
-120.75
-128.48
-128.01
-117.06
-95.53
-65.83
-32.24
0.44
28.36
49.58
64.13
73.24
78.3
80.15
79.1
75.3
69.35
62.46
56.17
51.72
49.57
49.31
50.0
50.77
51.2
51.36
51.56
51.86
51.84
50.66
47.41
41.56
33.27
23.44
13.38
4.31
-3.09
-8.97
-14.13
-19.74
-26.71
-35.29
-44.95
-54.56
-62.86
-69.0
-72.88
-75.29
-77.68
-81.8
-89.1
-100.2
-114.31
-129.08
-140.84
-145.5
-139.72
-122.22
-94.43
-60.15
-24.45
7.96
34.1
53.15
66.12
74.68
80.23
83.4
84.24
82.75
79.41
75.23
71.37
68.66
67.27
66.74
66.3
65.35
63.79
61.94
60.39
59.49
59.06
58.31
56.16
51.72
44.73
35.79
26.17
17.23
9.86
4.11
-0.78
-6.0
-12.55
-20.81
-30.35
-40.13
-48.93
-55.89
-60.85
-64.42
-67.92
-72.92
-80.79
-92.15
-106.48
-121.85
-135.12
-142.49
-140.56
-127.46
-103.69
-72.18
-37.43
-4.15
24.17
46.0
61.66
72.43
79.59
83.83
85.31
84.11
80.75
76.3
72.08
69.07
67.53
66.98
66.55
65.47
63.53
61.05
58.7
56.96
55.82
54.7
52.67
48.86
42.9
35.13
26.48
18.08
10.83
5.01
0.23
-4.44
-9.98
-17.02
-25.51
-34.74
-43.63
-51.2
-57.0
-61.34
-65.19
-69.91
-76.78
-86.58
-99.16
-113.19
-126.12
-134.43
-134.64
-124.27
-102.97
-72.92
-38.34
-4.21
25.25
47.68
62.85
71.99
76.79
78.53
77.84
74.97
70.3
64.62
59.09
54.74
52.15
51.22
51.39
51.92
52.27
52.21
51.73
50.77
49.09
46.32
42.13
36.47
29.68
22.34
15.02
7.99
1.16
-5.78
-13.12
-20.86
-28.64
-35.92
-42.26
-47.52
-52.03
-56.44
-61.62
-68.37
-77.17
-87.77
-98.9
-108.2
-112.52
-108.88
-95.56
-72.94
-43.7
-12.05
17.64
42.1
59.92
71.37
77.66
79.99
79.15
75.52
69.59
62.21
54.66
48.2
43.7
41.33
40.66
40.97
41.6
42.11
42.25
41.88
40.76
38.56
34.95
29.8
23.24
15.73
7.79
-0.13
-7.87
-15.57
-23.48
-31.75
-40.17
-48.24
-55.42
-61.43
-66.5
-71.37
-77.05
-84.5
-94.29
-106.24
-119.16
-130.75
-137.85
-137.23
-126.6
-105.6
-76.27
-42.53
-9.01
20.36
43.45
60.02
71.18
78.43
82.86
84.95
84.77
82.49
78.67
74.23
70.18
67.19
65.37
64.35
63.6
62.71
61.56
60.23
58.76
56.94
54.29
50.27
44.62
37.52
29.57
21.52
13.93
6.96
0.29
-6.6
-14.19
-22.58
-31.45
-40.11
-47.81
-54.12
-59.19
-63.88
-69.5
-77.35
-88.15
-101.47
-115.51
-127.25
-133.12
-130.01
-116.36
-92.76
-62.0
-28.27
4.06
31.68
52.97
67.98
77.72
83.4
85.95
85.94
83.89
80.48
76.61
73.07
70.37
68.5
67.1
65.69
64.0
62.05
60.06
58.25
56.59
54.73
52.05
47.94
42.11
34.74
26.55
18.47
11.3
5.28
0.08
-5.1
-11.0
-18.02
-25.93
-34.05
-41.58
-47.97
-53.19
-57.79
-62.79
-69.32
-78.27
-89.83
-103.07
-115.9
-125.27
-127.92
-121.39
-104.88
-79.71
-49.12
-17.31
11.72
35.17
52.01
62.68
68.5
70.9
70.88
69.0
65.59
61.1
56.26
51.96
48.94
47.5
47.37
47.9
48.36
48.21
47.16
45.23
42.54
39.2
35.24
30.59
25.17
18.89
11.76
3.89
-4.49
-13.01
-21.35
-29.15
-36.19
-42.39
-47.84
-52.84
-57.88
-63.64
-70.82
-79.94
-90.91
-102.8
-113.66
-120.78
-121.3
-113.14
-95.79
-70.73
-41.11
-10.91
16.29
38.15
53.95
64.3
70.37
73.29
73.83
72.42
69.5
65.64
61.63
58.2
55.77
54.36
53.6
53.06
52.38
51.48
50.44
49.31
47.94
45.89
42.54
37.39
30.33
21.89
13.03
4.89
-1.79
-6.93
-11.23
-15.78
-21.56
-28.94
-37.5
-46.2
-53.86
-59.73
-63.87
-67.12
-70.92
-76.68
-85.36
-97.02
-110.56
-123.77
-133.54
-136.54
-130.12
-113.21
-86.96
-54.54
-20.44
11.03
36.84
55.92
68.96
77.53
83.07
86.34
87.49
86.49
83.71
80.01
76.49
74.0
72.76
72.33
71.93
70.91
69.06
66.66
64.19
62.0
59.98
57.58
54.0
48.66
41.48
33.01
24.22
16.1
9.23
3.52
-1.69
-7.34
-14.12
-22.17
-30.91
-39.34
-46.41
-51.58
-55.08
-57.88
-61.39
-67.05
-75.78
-87.61
-101.44
-115.01
-125.22
-128.75
-122.94
-106.78
-81.39
-49.93
-16.74
14.0
39.41
58.4
71.43
79.67
84.23
85.8
84.75
81.5
76.79
71.67
67.14
63.83
61.79
60.59
59.64
58.46
56.89
55.07
53.25
51.55
49.82
47.53
44.06
38.94
32.14
24.16
15.88
8.14
1.4
-4.51
-10.21
-16.42
-23.52
-31.37
-39.32
-46.54
-52.4
-56.83
-60.37
-64.08
-69.18
-76.64
-86.7
-98.6
-110.45
-119.5
-122.75
-117.81
-103.67
-81.22
-53.04
-22.85
5.63
29.62
47.81
60.25
67.87
71.69
72.42
70.39
65.93
59.72
52.91
46.84
42.63
40.74
40.77
41.83
42.91
43.19
42.34
40.34
37.39
33.68
29.36
24.49
19.06
13.03
6.36
-0.95
-8.8
-16.95
-25.04
-32.69
-39.61
-45.64
-50.91
-55.78
-60.86
-66.94
-74.74
-84.68
-96.39
-108.52
-118.63
-123.64
-120.65
-107.97
-85.94
-57.03
-25.22
5.19
30.9
50.39
63.85
72.51
77.74
80.43
80.92
79.42
76.31
72.36
68.5
65.38
63.14
61.51
60.04
58.44
56.75
55.15
53.73
52.27
50.24
46.98
42.06
35.48
27.64
19.25
10.89
2.86
-4.94
-12.81
-21.04
-29.58
-38.08
-45.97
-52.74
-58.25
-62.85
-67.33
-72.73
-80.0
-89.71
-101.66
-114.66
-126.36
-133.71
-133.61
-123.96
-104.53
-77.24
-45.67
-14.0
14.23
36.95
53.69
65.2
72.7
77.27
79.6
80.06
78.96
76.73
73.92
71.08
68.6
66.6
64.96
63.51
62.07
60.59
59.02
57.19
54.75
51.3
46.45
40.12
32.59
24.38
16.11
8.2
0.76
-6.38
-13.52
-20.91
-28.57
-36.27
-43.6
-50.19
-55.86
-60.86
-65.86
-71.86
-79.81
-90.2
-102.62
-115.44
-125.89
-130.61
-126.62
-112.38
-88.55
-57.97
-24.94
6.23
32.36
52.13
65.92
75.01
80.71
83.81
84.58
83.16
79.9
75.51
70.97
67.11
64.39
62.81
61.98
61.3
60.23
58.4
55.69
52.18
47.99
43.21
37.89
31.99
25.51
18.52
11.08
3.22
-5.15
-14.05
-23.31
-32.49
-40.92
-47.99
-53.51
-57.87
-62.04
-67.24
-74.54
-84.31
-95.91
-107.45
-116.03
-118.35
-111.79
-95.37
-70.35
-40.03
-8.68
19.77
42.81
59.71
71.08
77.99
81.29
81.41
78.52
73.12
66.17
59.09
53.24
49.51
48.0
48.1
48.71
48.71
47.36
44.47
40.31
35.43
30.32
25.23
20.1
14.65
8.54
1.56
-6.34
-15.01
-24.14
-33.28
-41.93
-49.64
-56.13
-61.48
-66.13
-70.92
-76.9
-85.09
-96.04
-109.29
-123.06
-134.21
-138.97
-134.0
-117.7
-91.07
-57.55
-22.02
10.76
37.61
57.49
71.13
80.08
85.72
88.73
89.24
87.39
83.75
79.34
75.3
72.37
70.66
69.67
68.79
67.66
66.34
65.12
64.14
63.19
61.64
58.75
54.06
47.62
39.97
31.92
24.13
16.85
9.88
2.66
-5.33
-14.26
-23.77
-33.09
-41.39
-48.16
-53.57
-58.46
-64.13
-71.91
-82.71
-96.48
-111.87
-126.17
-135.63
-136.48
-126.15
-104.37
-73.59
-38.31
-3.64
26.33
49.53
66.04
77.2
84.57
89.17
91.32
91.02
88.53
84.58
80.25
76.56
74.04
72.63
71.73
70.67
69.03
66.89
64.68
62.87
61.52
60.15
57.84
53.65
47.1
38.45
28.63
18.91
10.31
3.28
-2.52
-8.02
-14.24
-21.84
-30.77
-40.28
-49.17
-56.42
-61.63
-65.26
-68.54
-72.95
-79.8
-89.68
-102.24
-115.94
-128.22
-135.8
-135.47
-124.98
-104.05
-74.67
-40.73
-6.88
22.92
46.43
63.39
74.84
82.19
86.36
87.61
85.99
81.89
76.32
70.73
66.43
64.0
63.15
62.95
62.43
61.08
59.02
56.76
54.76
53.02
50.99
47.84
42.91
36.02
27.68
18.83
10.46
3.21
-2.88
-8.32
-13.87
-20.18
-27.43
-35.25
-42.85
-49.42
-54.48
-58.12
-61.05
-64.34
-69.18
-76.43
-86.27
-97.93
-109.55
-118.34
-121.21
-115.61
-100.54
-76.99
-47.84
-17.07
11.43
34.86
52.02
63.12
69.12
71.2
70.25
66.98
62.0
56.07
50.07
44.87
41.09
38.96
38.33
38.7
39.54
40.3
40.58
40.1
38.71
36.31
32.85
28.37
22.95
16.73
9.92
2.73
-4.69
-12.25
-19.92
-27.63
-35.16
-42.21
-48.41
-53.67
-58.21
-62.65
-67.92
-74.88
-84.02
-95.02
-106.67
-116.79
-122.68
-121.68
-111.95
-93.29
-67.33
-37.29
-7.07
19.85
41.31
56.72
66.76
72.66
75.53
76.02
74.46
71.12
66.49
61.36
56.62
52.87
50.4
49.06
48.48
48.3
48.25
48.14
47.78
46.81
44.73
41.11
35.77
28.98
21.4
13.84
6.9
0.67
-5.19
-11.34
-18.29
-26.22
-34.8
-43.41
-51.37
-58.23
-63.91
-68.8
-73.71
-79.66
-87.55
-97.64
-109.05
-119.68
-126.5
-126.36
-117.12
-98.44
-72.09
-41.4
-10.33
17.71
40.54
57.45
68.88
75.72
78.87
79.04
76.84
72.93
68.19
63.55
59.72
56.98
55.08
53.49
51.72
49.66
47.58
45.87
44.76
44.04
43.1
41.11
37.42
31.89
24.93
17.36
10.12
3.83
-1.39
-6.02
-10.86
-16.62
-23.56
-31.33
-39.11
-46.06
-51.73
-56.34
-60.65
-65.78
-72.68
-81.88
-93.16
-105.39
-116.54
-123.92
-124.75
-116.93
-99.91
-75.08
-45.49
-15.08
12.55
35.01
51.53
62.58
69.29
72.71
73.53
72.18
69.0
64.57
59.67
55.12
51.49
48.93
47.31
46.33
45.77
45.55
45.58
45.68
45.47
44.42
42.08
38.21
32.94
26.7
19.99
13.25
6.72
0.35
-6.04
-12.61
-19.39
-26.21
-32.76
-38.76
-44.15
-49.18
-54.42
-60.63
-68.43
-77.95
-88.52
-98.5
-105.5
-106.92
-100.78
-86.53
-65.33
-39.79
-13.19
11.5
32.33
48.56
60.35
68.17
72.42
73.35
71.25
66.72
60.74
54.56
49.35
45.89
44.4
44.58
45.77
47.18
48.12
48.1
46.88
44.43
40.9
36.51
31.46
25.95
20.12
14.03
7.71
1.1
-5.9
-13.29
-20.92
-28.42
-35.35
-41.41
-46.61
-51.44
-56.67
-63.27
-71.9
-82.64
-94.67
-106.14
-114.42
-116.72
-110.92
-96.39
-74.33
-47.59
-19.72
6.03
27.53
44.04
55.87
63.76
68.42
70.31
69.79
67.3
63.55
59.37
55.49
52.36
50.0
48.22
46.76
45.54
44.62
44.14
44.03
43.93
43.22
41.21
37.49
32.12
25.66
18.9
12.52
6.79
1.51
-3.87
-9.82
-16.55
-23.84
-31.18
-38.0
-43.91
-48.93
-53.46
-58.24
-64.22
-72.19
-82.5
-94.55
-106.66
-116.17
-120.06
-115.88
-102.6
-81.16
-54.15
-25.13
2.49
26.25
45.03
58.8
68.17
73.84
76.33
76.05
73.47
69.27
64.33
59.59
55.79
53.26
52.0
51.68
51.9
52.32
52.74
52.99
52.85
51.94
49.84
46.17
40.78
33.96
26.25
18.32
10.63
3.25
-4.08
-11.75
-19.93
-28.42
-36.63
-43.89
-49.73
-54.17
-57.73
-61.29
-65.96
-72.65
-81.81
-93.05
-104.9
-114.86
-119.95
-117.54
-106.29
-86.73
-61.2
-33.19
-6.28
16.82
34.77
47.51
55.82
60.67
62.8
62.71
60.72
57.33
53.18
49.07
45.7
43.43
42.26
41.89
41.93
42.02
41.88
41.26
39.9
37.57
34.21
29.94
25.04
19.82
14.47
8.99
3.29
-2.73
-9.06
-15.56
-22.01
-28.18
-33.92
-39.17
-44.07
-48.96
-54.4
-61.0
-69.15
-78.58
-88.18
-95.92
-99.32
-96.13
-85.13
-66.61
-42.43
-15.57
10.75
33.89
52.25
65.38
73.69
77.91
78.8
77.01
73.23
68.23
62.93
58.2
54.63
52.45
51.41
51.06
50.86
50.4
49.41
47.75
45.35
42.15
38.08
33.16
27.39
20.9
13.79
6.16
-1.94
-10.42
-19.11
-27.73
-35.88
-43.16
-49.32
-54.45
-58.99
-63.72
-69.59
-77.42
-87.51
-99.22
-110.86
-119.76
-122.96
-118.08
-104.19
-82.24
-54.82
-25.45
2.45
26.4
45.21
58.84
67.96
73.42
75.97
76.15
74.46
71.39
67.58
63.7
60.27
57.55
55.5
53.88
52.47
51.2
50.09
49.17
48.27
46.92
44.54
40.64
35.15
28.45
21.24
14.21
7.71
1.65
-4.47
-11.17
-18.72
-26.92
-35.14
-42.56
-48.56
-53.06
-56.63
-60.37
-65.58
-73.32
-83.87
-96.45
-109.14
-119.15
-123.48
-119.72
-106.83
-85.58
-58.38
-28.71
-0.04
24.93
44.82
59.48
69.52
75.83
79.08
79.81
78.47
75.67
72.15
68.68
65.86
63.91
62.67
61.77
60.8
59.59
58.17
56.79
55.56
54.37
52.73
50.01
45.7
39.7
32.49
24.92
17.84
11.71
6.38
1.21
-4.56
-11.4
-19.26
-27.52
-35.35
-42.0
-47.24
-51.43
-55.54
-60.71
-68.01
-77.87
-89.79
-102.2
-112.58
-118.01
-115.89
-104.8
-85.09
-58.92
-29.68
-1.04
24.02
43.87
58.24
67.71
73.17
75.37
74.83
72.08
67.8
62.85
58.14
54.38
51.91
50.66
50.33
50.44
50.55
50.33
49.51
47.94
45.47
42.04
37.62
32.34
26.45
20.32
14.26
8.37
2.51
-3.63
-10.27
-17.32
-24.39
-30.92
-36.49
-41.07
-45.03
-49.08
-54.05
-60.69
-69.34
-79.64
-90.34
-99.22
-103.61
-101.14
-90.52
-72.2
-48.28
-21.94
3.51
25.49
42.63
54.74
62.37
66.28
67.14
65.47
61.74
56.62
51.04
46.02
42.37
40.47
40.12
40.75
41.71
42.48
42.76
42.36
41.07
38.62
34.75
29.4
22.83
15.59
8.35
1.6
-4.51
-10.19
-15.92
-22.12
-28.92
-36.07
-43.04
-49.28
-54.49
-58.81
-62.87
-67.64
-74.13
-83.03
-94.25
-106.58
-117.68
-124.53
-124.22
-114.93
-96.69
-71.44
-42.51
-13.53
12.52
33.97
50.41
62.31
70.38
75.26
77.41
77.2
75.16
72.02
68.6
65.59
63.31
61.69
60.37
58.94
57.25
55.43
53.76
52.38
51.12
49.4
46.51
41.95
35.68
28.2
20.32
12.84
6.2
0.32
-5.32
-11.38
-18.32
-26.18
-34.44
-42.25
-48.85
-53.9
-57.77
-61.47
-66.31
-73.41
-83.26
-95.3
-107.91
-118.59
-124.39
-122.73
-112.11
-92.74
-66.65
-37.2
-8.09
17.72
38.62
54.45
65.86
73.74
78.63
80.75
80.25
77.58
73.58
69.27
65.57
62.97
61.43
60.57
59.93
59.18
58.26
57.23
56.11
54.72
52.58
49.1
43.87
36.91
28.8
20.42
12.68
6.04
0.36
-5.03
-11.0
-18.16
-26.63
-35.92
-45.2
-53.6
-60.56
-66.04
-70.53
-74.89
-80.14
-87.09
-96.08
-106.55
-116.98
-124.94
-127.67
-122.82
-109.31
-87.86
-60.93
-32.02
-4.66
18.57
36.51
49.25
57.6
62.45
64.46
64.02
61.57
57.76
53.5
49.69
47.02
45.75
45.72
46.55
47.77
48.98
49.82
49.94
48.97
46.67
43.0
38.2
32.69
26.9
21.09
15.17
8.8
1.64
-6.4
-15.01
-23.59
-31.46
-38.23
-44.0
-49.29
-54.89
-61.59
-69.9
-79.92
-91.1
-102.11
-110.9
-114.98
-112.1
-100.96
-81.86
-56.76
-28.81
-1.43
22.58
41.57
55.2
63.98
68.86
70.74
70.36
68.3
65.13
61.48
57.98
55.16
53.25
52.16
51.6
51.26
50.98
50.76
50.59
50.29
49.46
47.53
44.1
39.08
32.82
25.92
18.98
12.35
6.03
-0.27
-6.97
-14.35
-22.42
-30.83
-38.98
-46.26
-52.31
-57.26
-61.79
-66.96
-73.87
-83.16
-94.63
-106.94
-117.77
-124.19
-123.5
-114.01
-95.73
-70.52
-41.6
-12.67
13.16
34.02
49.41
59.9
66.43
69.84
70.69
69.38
66.38
62.34
58.07
54.33
51.6
49.98
49.2
48.93
48.85
48.9
49.15
49.64
50.14
50.06
48.58
45.04
39.28
31.86
23.91
16.67
10.92
6.66
3.12
-0.88
-6.35
-13.65
-22.4
-31.63
-40.2
-47.27
-52.61
-56.7
-60.65
-65.86
-73.57
-84.39
-97.85
-112.18
-124.46
-131.13
-129.08
-116.57
-94.03
-64.03
-30.66
1.72
29.65
51.32
66.57
76.32
81.81
84.05
83.71
81.26
77.34
72.77
68.45
65.02
62.67
61.14
60.0
58.87
57.7
56.67
55.97
55.55
55.01
53.66
50.82
46.12
39.7
32.19
24.48
17.33
11.17
5.88
0.96
-4.26
-10.31
-17.35
-25.06
-32.79
-39.8
-45.65
-50.43
-54.86
-60.12
-67.35
-77.14
-89.06
-101.47
-111.75
-116.94
-114.56
-103.39
-83.94
-58.44
-30.18
-2.66
21.35
40.4
54.22
63.34
68.44
70.04
68.53
64.46
58.75
52.68
47.57
44.26
42.96
43.28
44.44
45.66
46.36
46.15
44.84
42.38
38.79
34.26
28.98
23.13
16.77
9.89
2.44
-5.51
-13.71
-21.81
-29.34
-35.92
-41.37
-45.81
-49.68
-53.72
-58.79
-65.61
-74.57
-85.37
-96.86
-107.02
-113.16
-112.59
-103.44
-85.45
-60.21
-30.98
-1.6
24.61
45.71
61.33
72.23
79.48
83.83
85.54
84.59
81.16
75.89
69.78
63.94
59.18
55.85
53.8
52.61
51.72
50.68
49.09
46.71
43.33
38.87
33.42
27.16
20.4
13.46
6.53
-0.41
-7.56
-15.12
-23.22
-31.71
-40.2
-48.26
-55.58
-62.18
-68.41
-74.94
-82.52
-91.76
-102.8
-115.01
-126.72
-135.26
-137.57
-131.07
-114.78
-89.79
-59.2
-27.13
2.61
27.53
46.82
60.97
71.02
77.82
81.79
83.08
81.94
78.95
75.02
71.16
68.07
65.98
64.7
63.87
63.15
62.38
61.59
60.75
59.66
57.87
54.84
50.22
44.02
36.76
29.2
22.04
15.62
9.77
3.94
-2.51
-9.92
-18.18
-26.71
-34.72
-41.56
-47.07
-51.72
-56.51
-62.7
-71.31
-82.72
-96.23
-109.95
-120.99
-126.08
-122.52
-109.09
-86.6
-57.83
-26.7
2.89
28.08
47.6
61.57
70.88
76.5
79.09
79.06
76.8
72.92
68.31
63.9
60.42
58.18
56.99
56.43
56.07
55.62
55.06
54.49
53.87
52.94
51.14
47.84
42.69
35.88
28.1
20.33
13.37
7.48
2.31
-2.88
-8.75
-15.52
-22.85
-30.06
-36.43
-41.63
-45.85
-49.78
-54.36
-60.59
-69.13
-80.12
-92.82
-105.56
-115.84
-120.8
-118.05
-106.37
-86.32
-60.15
-31.3
-3.39
20.7
39.42
52.64
61.09
65.82
67.61
66.92
64.06
59.51
54.12
49.03
45.31
43.59
43.81
45.3
47.1
48.31
48.4
47.32
45.26
42.57
39.4
35.72
31.27
25.75
19.06
11.38
3.17
-4.98
-12.6
-19.41
-25.41
-30.79
-35.92
-41.22
-47.18
-54.34
-63.1
-73.55
-85.13
-96.4
-105.12
-108.67
-104.76
-92.29
-71.96
-46.12
-18.21
8.32
30.91
48.43
60.95
69.21
74.01
75.87
75.16
72.26
67.89
62.98
58.47
54.99
52.74
51.56
51.04
50.79
50.44
49.77
48.53
46.48
43.38
39.05
33.5
26.94
19.84
12.65
5.68
-1.1
-7.98
-15.33
-23.31
-31.7
-39.98
-47.51
-53.93
-59.33
-64.31
-69.81
-76.85
-86.17
-97.8
-110.8
-123.05
-131.63
-133.6
-126.85
-111.03
-87.72
-59.98
-31.37
-4.91
17.59
35.54
49.27
59.36
66.27
70.25
71.48
70.33
67.51
63.94
60.52
57.83
55.98
54.7
53.59
52.37
51.04
49.74
48.6
47.45
45.82
43.11
38.89
33.16
26.42
19.46
13.03
7.51
2.79
-1.76
-6.9
-13.21
-20.73
-28.9
-36.8
-43.53
-48.7
-52.6
-56.18
-60.67
-67.23
-76.46
-88.11
-100.91
-112.59
-120.25
-121.01
-112.97
-95.89
-71.49
-42.96
-14.04
12.14
33.77
50.42
62.59
71.04
76.34
78.77
78.57
76.25
72.67
68.85
65.67
63.56
62.37
61.56
60.56
59.06
57.18
55.32
53.85
52.74
51.45
49.11
44.93
38.68
30.78
22.24
14.2
7.42
1.98
-2.71
-7.55
-13.36
-20.38
-28.24
-36.07
-42.99
-48.46
-52.63
-56.23
-60.35
-66.06
-74.04
-84.34
-96.18
-107.87
-116.95
-120.69
-116.74
-104.06
-83.34
-57.06
-28.73
-1.9
20.81
38.24
50.54
58.61
63.39
65.56
65.41
63.15
59.2
54.29
49.45
45.64
43.47
42.99
43.69
44.74
45.37
45.09
43.78
41.57
38.6
34.94
30.54
25.34
19.4
12.92
6.1
-0.83
-7.77
-14.64
-21.37
-27.85
-33.99
-39.82
-45.54
-51.56
-58.45
-66.75
-76.75
-88.14
-99.72
-109.39
-114.55
-112.73
-102.55
-84.27
-59.85
-32.45
-5.46
18.48
37.87
52.45
62.71
69.32
72.73
73.16
70.71
65.73
58.96
51.51
44.63
39.26
35.78
34.0
33.26
32.87
32.27
31.21
29.6
27.43
24.62
21.13
17.01
12.42
7.63
2.83
-2.01
-7.09
-12.7
-18.93
-25.59
-32.19
-38.19
-43.22
-47.25
-50.71
-54.38
-59.25
-66.15
-75.34
-86.12
-96.65
-104.18
-105.73
-99.01
-83.3
-59.86
-31.67
-2.49
24.24
46.28
62.96
74.87
83.08
88.54
91.72
92.67
91.43
88.3
83.98
79.34
75.1
71.62
68.89
66.66
64.65
62.71
60.71
58.48
55.72
52.09
47.24
41.05
33.6
25.26
16.53
7.89
-0.38
-8.31
-16.14
-24.17
-32.49
-40.91
-48.98
-56.26
-62.59
-68.3
-74.13
-81.09
-90.01
-101.17
-113.86
-126.31
-135.82
-139.4
-134.64
-120.55
-98.08
-69.92
-39.72
-11.03
13.58
32.98
47.26
57.18
63.62
67.29
68.65
68.08
66.08
63.26
60.32
57.81
55.99
54.8
53.9
52.93
51.68
50.18
48.62
47.08
45.43
43.23
39.98
35.39
29.51
22.9
16.34
10.54
5.84
2.06
-1.42
-5.37
-10.38
-16.51
-23.31
-29.97
-35.79
-40.5
-44.53
-48.89
-54.77
-63.01
-73.68
-85.81
-97.5
-106.16
-109.12
-104.28
-90.83
-69.6
-43.0
-14.39
12.85
36.25
54.62
67.94
76.84
81.97
83.81
82.66
78.95
73.47
67.32
61.66
57.42
54.95
54.08
54.16
54.44
54.26
53.24
51.32
48.61
45.28
41.43
37.06
32.09
26.47
20.25
13.5
6.39
-0.96
-8.38
-15.65
-22.55
-28.84
-34.46
-39.57
-44.59
-50.2
-57.1
-65.84
-76.38
-87.82
-98.29
-105.2
-105.96
-98.76
-83.31
-61.02
-34.67
-7.55
17.42
38.3
54.35
65.71
73.02
76.97
78.16
77.15
74.57
71.17
67.79
65.15
63.67
63.34
63.87
64.84
65.91
66.92
67.79
68.4
68.46
67.48
65.06
60.99
55.45
48.97
42.14
35.35
28.55
21.37
13.25
3.91
-6.48
-17.21
-27.31
-35.95
-42.85
-48.52
-54.11
-61.06
-70.55
-82.91
-97.26
-111.41
-122.25
-126.5
-121.68
-107.05
-84.03
-55.9
-26.87
-0.9
19.35
32.88
40.07
41.94
39.54
33.67
25.02
14.46
3.18
-7.41
-16.15
-22.39
-26.14
-27.9
-28.29
-27.81
-26.71
-25.12
-23.21
-21.36
-20.18
-20.35
-22.38
-26.41
-32.09
-38.66
-45.22
-50.97
-55.54
-59.02
-61.9
-64.74
-67.91
-71.37
-74.78
-77.64
-79.66
-81.06
-82.64
-85.66
-91.38
-100.58
-112.95
-126.88
-139.53
-147.56
-147.95
-138.87
-120.29
-93.98
-62.97
-30.66
-0.04
26.93
49.42
67.44
81.42
91.78
98.87
102.98
104.55
104.26
102.95
101.43
100.15
99.2
98.31
97.25
95.95
94.55
93.27
92.14
90.83
88.77
85.35
80.25
73.59
65.88
57.85
50.06
42.73
35.67
28.42
20.53
11.82
2.54
-6.74
-15.37
-22.9
-29.3
-35.03
-40.96
-48.15
-57.45
-69.16
-82.56
-95.73
-105.77
-109.53
-104.49
-89.81
-66.75
-38.4
-8.66
18.88
41.93
59.71
72.61
81.44
86.85
89.11
88.29
84.62
78.86
72.25
66.21
61.84
59.56
58.99
59.16
58.94
57.5
54.57
50.4
45.53
40.52
35.57
30.55
25.02
18.54
10.85
2.05
-7.35
-16.68
-25.28
-32.73
-38.97
-44.29
-49.2
-54.34
-60.36
-67.88
-77.27
-88.44
-100.5
-111.53
-118.83
-119.48
-111.37
-94.03
-69.03
-39.68
-9.93
16.76
38.44
54.76
66.51
74.8
80.35
83.34
83.65
81.42
77.31
72.41
67.81
64.21
61.6
59.51
57.39
54.97
52.43
50.15
48.35
46.78
44.73
41.34
36.0
28.69
19.99
10.86
2.23
-5.34
-11.87
-17.81
-23.82
-30.43
-37.81
-45.61
-53.18
-59.83
-65.25
-69.67
-73.99
-79.43
-87.21
-97.84
-110.74
-123.98
-134.49
-138.79
-133.98
-118.85
-94.33
-63.39
-30.09
1.67
29.15
51.27
68.27
80.96
90.08
95.92
98.53
98.09
95.25
91.11
86.93
83.65
81.65
80.63
79.95
78.96
77.39
75.36
73.26
71.39
69.62
67.37
63.81
58.29
50.71
41.68
32.26
23.57
16.25
10.2
4.66
-1.42
-8.83
-17.72
-27.44
-36.88
-44.96
-51.13
-55.64
-59.46
-63.94
-70.33
-79.4
-91.18
-104.72
-118.05
-128.29
-132.23
-127.15
-111.81
-87.15
-56.14
-23.01
8.11
34.36
54.65
69.37
79.63
86.43
90.3
91.39
89.97
86.58
82.11
77.44
73.15
69.36
65.88
62.46
59.04
55.79
53.0
50.76
48.88
46.76
43.72
39.18
32.95
25.29
16.83
8.36
0.43
-6.74
-13.39
-19.98
-26.94
-34.38
-42.03
-49.27
-55.52
-60.46
-64.28
-67.71
-71.83
-77.73
-86.07
-96.62
-107.97
-117.57
-122.26
-119.2
-106.95
-86.1
-59.27
-30.25
-2.82
20.34
38.14
50.79
59.16
64.06
66.02
65.3
62.3
57.7
52.49
47.71
44.1
42.05
41.45
41.87
42.69
43.31
43.2
42.0
39.56
35.92
31.26
25.85
19.95
13.76
7.38
0.71
-6.47
-14.37
-23.07
-32.3
-41.49
-49.99
-57.28
-63.3
-68.51
-73.73
-79.97
-88.08
-98.46
-110.75
-123.51
-134.22
-139.7
-136.94
-124.23
-101.97
-72.78
-40.75
-10.1
16.05
36.32
50.86
60.69
66.88
70.12
70.79
69.21
65.94
61.8
57.69
54.36
52.19
51.18
51.02
51.27
51.5
51.35
50.59
49.02
46.51
42.97
38.43
33.03
26.97
20.47
13.61
6.34
-1.47
-9.85
-18.67
-27.53
-35.94
-43.44
-49.81
-55.2
-60.2
-65.72
-72.75
-82.04
-93.63
-106.42
-118.04
-125.24
-124.7
-114.31
-94.0
-66.12
-34.63
-3.89
22.7
43.5
58.59
68.94
75.65
79.34
