0
-42.53
-48.25
-53.15
-57.58
-62.06
-67.26
-73.93
-82.65
-93.46
-105.44
-116.65
-124.37
-125.97
-119.77
-105.72
-85.47
-61.8
-37.69
-15.43
3.8
19.89
33.28
44.37
53.26
59.71
63.53
64.84
64.28
62.82
61.45
60.78
60.9
61.46
61.97
62.11
61.86
61.43
61.02
60.62
59.97
58.64
56.3
52.82
48.31
43.07
37.43
31.65
25.89
20.25
14.83
9.69
4.85
0.18
-4.58
-9.72
-15.55
-22.1
-29.13
-36.15
-42.66
-48.31
-53.2
-57.83
-62.94
-69.24
-77.19
-86.78
-97.45
-107.96
-116.43
-120.58
-118.39
-108.76
-92.12
-70.44
-46.73
-23.96
-4.19
11.86
24.48
34.34
41.89
47.15
49.98
50.55
49.57
48.11
47.21
47.46
48.85
50.91
52.99
54.57
55.46
55.73
55.57
55.18
54.6
53.64
51.97
49.19
45.04
39.59
33.23
26.66
20.64
15.65
11.69
8.27
4.63
0.1
-5.57
-12.06
-18.69
-24.73
-29.85
-34.15
-38.21
-42.71
-48.23
-55.13
-63.46
-72.89
-82.5
-90.69
-95.39
-94.5
-86.75
-72.33
-52.95
-31.36
-10.37
7.96
22.79
34.24
42.82
48.96
52.82
54.44
53.98
51.98
49.27
46.73
45.04
44.44
44.71
45.36
45.81
45.6
44.61
43.02
41.22
39.55
38.05
36.39
33.98
30.25
25.02
18.65
11.96
5.92
1.11
-2.47
-5.51
-9.01
-13.77
-20.0
-27.22
-34.45
-40.74
-45.55
-49.0
-51.73
-54.65
-58.68
-64.54
-72.6
-82.78
-94.31
-105.63
-114.43
-118.22
-115.0
-104.07
-86.38
-64.29
-40.78
-18.59
0.53
16.03
28.26
37.92
45.61
51.62
55.94
58.54
59.52
59.25
58.29
57.2
56.35
55.91
55.79
55.77
55.64
55.31
54.75
54.04
53.19
52.09
50.5
48.12
44.72
40.3
35.08
29.5
23.97
18.77
13.98
9.55
5.36
1.26
-2.89
-7.33
-12.33
-18.08
-24.47
-31.08
-37.32
-42.7
-47.13
-51.05
-55.32
-60.89
-68.48
-78.37
-90.16
-102.67
-113.96
-121.56
-123.1
-117.02
-103.23
-83.33
-60.17
-36.93
-16.14
0.91
14.17
24.34
32.13
37.87
41.52
42.99
42.56
40.98
39.3
38.45
38.9
40.55
42.84
45.08
46.79
47.81
48.21
48.14
47.67
46.77
45.38
43.49
41.18
38.5
35.49
32.08
28.2
23.89
19.37
14.94
10.87
7.23
3.8
0.2
-3.93
-8.75
-14.1
-19.59
-24.76
-29.31
-33.18
-36.67
-40.28
-44.75
-50.77
-58.8
-68.7
-79.5
-89.29
-95.49
-95.64
-88.17
-73.16
-52.36
-28.73
-5.43
15.14
31.78
44.44
53.69
60.12
64.14
65.97
65.91
64.52
62.54
60.75
59.66
59.44
59.88
60.66
61.44
62.07
62.54
62.94
63.27
63.34
62.72
60.92
57.56
52.72
46.92
41.06
35.99
32.17
29.5
27.36
25.01
21.87
17.75
12.78
7.2
1.15
-5.42
-12.79
-21.29
-31.27
-42.9
-56.05
-70.09
-83.79
-95.33
-102.69
-104.2
-99.15
-88.2
-73.21
-56.7
-41.02
-27.72
-17.21
-9.1
-2.7
2.42
6.21
8.36
8.66
7.35
5.11
2.87
1.31
0.68
0.75
1.05
1.28
1.36
1.53
2.07
3.11
4.48
5.7
6.22
5.6
3.7
0.79
-2.5
-5.4
-7.32
-8.16
-8.37
-8.92
-10.82
-14.71
-20.56
-27.64
-34.88
-41.34
-46.63
-50.95
-55.01
-59.72
-65.93
-74.18
-84.47
-96.01
-107.1
-115.25
-117.82
-112.85
-99.84
-80.13
-56.48
-32.17
-9.91
8.82
23.83
35.69
45.06
52.29
57.4
60.39
61.47
61.23
60.37
59.54
59.04
58.9
58.96
59.05
59.1
59.21
59.48
60.02
60.79
61.6
62.1
61.84
60.39
57.49
53.14
47.66
41.65
35.74
30.47
26.01
22.19
18.54
14.53
9.78
4.3
-1.6
-7.37
-12.53
-16.9
-20.65
-24.28
-28.45
-33.86
-41.08
-50.5
-62.07
-75.06
-87.94
-98.35
-103.63
-101.58
-91.22
-73.36
-50.37
-25.6
-2.22
17.55
32.92
44.28
52.58
58.67
62.89
65.13
65.27
63.51
60.55
57.39
54.93
53.53
53.04
52.9
52.58
51.87
50.96
50.19
49.81
49.66
49.19
47.66
44.49
39.54
33.24
26.44
20.09
14.81
10.73
7.38
3.95
-0.38
-6.04
-12.9
-20.3
-27.29
-33.05
-37.17
-39.85
-41.83
-44.22
-48.15
-54.43
-63.25
-74.01
-85.23
-94.72
-99.98
-98.87
-90.3
-74.63
-53.74
-30.46
-7.77
12.03
27.78
39.38
47.44
52.67
55.65
56.67
55.98
53.95
51.18
48.4
46.26
45.15
45.06
45.66
46.49
47.17
47.54
47.63
47.47
46.93
45.62
43.07
38.96
33.4
26.92
20.31
14.23
8.94
4.18
-0.64
-6.07
-12.39
-19.35
-26.42
-32.96
-38.57
-43.25
-47.44
-51.92
-57.61
-65.27
-75.19
-86.89
-98.85
-108.69
-113.72
-111.72
-101.76
-84.63
-62.62
-38.8
-16.02
3.83
19.98
32.52
41.85
48.23
51.76
52.58
51.08
48.11
44.76
42.0
40.41
40.0
40.31
40.72
40.76
40.36
39.8
39.48
39.65
40.11
40.21
39.07
36.0
30.84
24.12
16.92
10.36
5.14
1.24
-2.06
-5.82
-10.81
-17.21
-24.51
-31.7
-37.87
-42.51
-45.76
-48.27
-50.99
-54.89
-60.77
-69.09
-79.75
-91.77
-103.16
-111.17
-112.87
-106.23
-90.91
-68.64
-42.7
-16.82
6.02
24.34
38.16
48.39
56.08
61.77
65.55
67.31
67.15
65.59
63.47
61.6
60.43
59.94
59.7
59.19
58.06
56.36
54.44
52.74
51.58
50.84
50.05
48.46
45.43
40.64
34.34
27.29
20.43
14.57
10.02
6.49
3.18
-0.8
-6.06
-12.66
-20.1
-27.59
-34.4
-40.13
-44.79
-48.82
-52.83
-57.59
-63.79
-71.9
-81.87
-92.88
-103.19
-110.36
-111.85
-105.9
-92.15
-71.95
-47.99
-23.49
-1.22
17.08
30.88
40.54
46.76
50.19
51.29
50.46
48.22
45.28
42.42
40.29
39.18
38.99
39.31
39.7
39.86
39.79
39.64
39.57
39.51
39.09
37.77
35.09
30.97
25.8
20.31
15.25
11.03
7.52
4.12
0.1
-5.04
-11.31
-18.23
-25.06
-31.13
-36.12
-40.2
-43.99
-48.4
-54.28
-62.15
-71.87
-82.43
-91.9
-97.82
-97.81
-90.41
-75.6
-55.01
-31.41
-7.89
13.01
29.92
42.63
51.65
57.71
61.35
62.87
62.5
60.65
57.89
54.93
52.32
50.28
48.75
47.53
46.47
45.56
44.93
44.61
44.46
44.04
42.79
40.23
36.12
30.57
24.04
17.18
10.61
4.74
-0.43
-5.24
-10.32
-16.2
-23.1
-30.74
-38.43
-45.35
-51.0
-55.48
-59.45
-63.93
-69.91
-77.97
-88.04
-99.18
-109.68
-117.13
-119.07
-113.65
-100.35
-80.34
-56.23
-31.19
-8.02
11.67
27.59
40.31
50.59
58.81
64.85
68.45
69.63
68.92
67.25
65.59
64.5
63.99
63.64
62.97
61.84
60.49
59.42
58.94
58.93
58.79
57.71
55.07
50.77
45.23
39.2
33.44
28.4
24.1
20.16
15.93
10.8
4.42
-3.12
-11.27
-19.21
-26.11
-31.57
-35.74
-39.36
-43.48
-49.16
-57.14
-67.54
-79.72
-92.15
-102.6
-108.48
-107.59
-98.82
-82.61
-60.99
-36.93
-13.51
7.06
23.76
36.71
46.56
53.93
59.07
61.94
62.56
61.3
59.02
56.7
55.1
54.37
54.13
53.74
52.77
51.26
49.7
48.63
48.2
48.03
47.26
45.05
40.93
35.09
28.27
21.48
15.52
10.72
6.82
3.18
-0.95
-6.04
-12.1
-18.69
-25.16
-30.91
-35.73
-39.81
-43.71
-48.2
-53.92
-61.26
-70.06
-79.42
-87.69
-92.69
-92.34
-85.29
-71.59
-52.73
-31.22
-9.76
9.59
25.75
38.55
48.3
55.3
59.64
61.33
60.56
57.86
54.08
50.21
47.02
44.93
43.92
43.64
43.65
43.54
43.1
42.23
40.93
39.16
36.77
33.59
29.52
24.66
19.34
13.96
8.83
3.96
-0.94
-6.31
-12.43
-19.27
-26.34
-32.96
-38.49
-42.75
-46.04
-49.17
-53.09
-58.64
-66.15
-75.18
-84.52
-92.25
-96.23
-94.6
-86.46
-72.19
-53.47
-32.74
-12.43
5.7
20.9
33.25
43.17
50.95
56.55
59.79
60.67
59.6
57.43
55.1
53.26
52.05
51.19
50.22
48.86
47.15
45.38
43.85
42.65
41.57
40.2
38.11
35.09
31.12
26.43
21.38
16.36
11.71
7.64
4.14
0.97
-2.27
-5.99
-10.39
-15.38
-20.58
-25.48
-29.77
-33.38
-36.68
-40.18
-44.47
-49.98
-56.87
-64.91
-73.33
-80.84
-85.64
-85.94
-80.5
-69.16
-53.06
-34.4
-15.68
1.12
15.02
26.08
34.94
42.14
47.84
51.79
53.72
53.71
52.32
50.37
48.6
47.31
46.36
45.39
44.14
42.63
41.14
39.95
39.12
38.49
37.69
36.38
34.49
32.07
29.33
26.39
23.18
19.57
15.43
10.79
5.89
1.07
-3.34
-7.23
-10.66
-13.86
-17.14
-20.73
-24.82
-29.42
-34.4
-39.47
-44.31
-48.68
-52.62
-56.53
-61.08
-66.86
-74.07
-82.12
-89.64
-94.73
-95.57
-90.98
-80.86
-66.21
-48.85
-30.84
-14.0
0.49
12.14
21.04
27.53
31.99
34.7
35.79
35.44
33.95
31.82
29.62
27.87
26.82
26.42
26.36
26.3
26.06
25.72
25.39
25.12
24.74
23.86
22.13
19.32
15.53
11.07
6.38
1.86
-2.24
-5.78
-8.76
-11.3
-13.63
-16.12
-19.1
-22.74
-26.9
-31.15
-34.97
-38.0
-40.3
-42.3
-44.69
-48.16
-53.13
-59.67
-67.32
-75.12
-81.62
-85.09
-83.9
-77.08
-64.75
-48.2
-29.6
-11.28
4.97
18.23
28.5
36.22
41.89
45.73
47.71
47.77
46.08
43.15
39.79
36.86
34.93
34.16
34.26
34.7
34.97
34.84
34.36
33.7
32.98
32.08
30.73
28.63
25.59
21.7
17.21
12.44
7.73
3.34
-0.57
-4.02
-7.21
-10.58
-14.53
-19.27
-24.66
-30.16
-35.13
-39.17
-42.29
-44.95
-47.89
-51.81
-57.23
-64.36
-73.0
-82.46
-91.43
-98.11
-100.56
-97.31
-87.91
-73.18
-55.04
-35.81
-17.55
-1.5
11.99
23.16
32.33
39.66
45.07
48.45
49.96
50.09
49.52
48.91
48.64
48.74
49.0
49.19
49.21
49.12
49.11
49.25
49.56
49.91
50.1
49.89
49.04
47.3
44.51
40.63
35.84
30.5
25.04
19.88
15.26
11.21
7.54
3.96
0.18
-3.98
-8.54
-13.41
-18.44
-23.48
-28.46
-33.39
-38.39
-43.68
-49.62
-56.6
-64.79
-73.94
-83.02
-90.32
-93.8
-91.65
-83.02
-68.39
-49.47
-28.67
-8.38
9.65
24.61
36.48
45.67
52.65
57.7
60.88
62.26
61.99
60.52
58.47
56.53
55.17
54.57
54.54
54.65
54.5
53.86
52.82
51.61
50.39
49.08
47.34
44.7
40.87
35.9
30.17
24.25
18.61
13.48
8.81
4.42
0.08
-4.41
-9.21
-14.4
-19.97
-25.75
-31.35
-36.36
-40.47
-43.66
-46.36
-49.29
-53.25
-58.85
-66.25
-74.94
-83.71
-90.8
-94.15
-92.01
-83.42
-68.63
-49.19
-27.52
-6.29
12.37
27.26
38.25
45.87
50.83
53.62
54.43
53.36
50.76
47.3
43.91
41.36
40.01
39.6
39.57
39.37
38.76
37.92
37.17
36.71
36.33
35.46
33.5
30.04
25.23
19.64
14.06
9.14
5.06
1.53
-2.08
-6.38
-11.68
-17.85
-24.37
-30.56
-35.81
-39.89
-42.94
-45.58
-48.64
-53.04
-59.44
-68.0
-78.01
-87.89
-95.36
-97.95
-93.74
-82.1
-63.92
-41.51
-17.83
4.31
23.04
37.69
48.53
56.33
61.77
65.21
66.71
66.31
64.24
61.03
57.45
54.19
51.68
49.96
48.76
47.69
46.55
45.39
44.46
43.99
43.89
43.67
42.62
40.08
35.87
30.33
24.27
18.55
13.72
9.85
6.5
3.0
-1.25
-6.52
-12.64
-19.17
-25.42
-30.87
-35.25
-38.68
-41.72
-45.17
-49.91
-56.63
-65.49
-75.91
-86.42
-94.79
-98.57
-95.75
-85.52
-68.63
-47.23
-24.21
-2.3
16.6
31.8
43.45
52.16
58.41
62.38
64.06
63.55
61.25
57.96
54.61
52.0
50.48
49.93
49.82
49.62
48.97
47.86
46.55
45.31
44.26
43.22
41.82
39.67
36.55
32.48
27.73
22.63
17.49
12.45
7.48
2.4
-3.01
-8.9
-15.3
-21.96
-28.47
-34.36
-39.23
-43.02
-46.03
-48.89
-52.39
-57.27
-63.96
-72.41
-81.91
-91.02
-97.76
-99.97
-95.93
-84.95
-67.77
-46.44
-23.83
-2.74
14.87
28.2
37.55
43.74
47.58
49.52
49.69
48.17
45.24
41.51
37.73
34.46
31.92
29.97
28.31
26.79
25.5
24.65
24.43
24.64
24.76
24.11
22.19
18.83
14.32
9.24
4.11
-0.73
-5.31
-9.83
-14.59
-19.73
-25.19
-30.68
-35.85
-40.39
-44.14
-47.24
-50.07
-53.19
-57.25
-62.7
-69.55
-77.12
-83.94
-88.07
-87.55
-81.12
-68.71
-51.5
-31.61
-11.42
7.06
22.58
34.67
43.44
49.28
52.62
53.87
53.45
51.78
49.38
46.73
44.22
42.12
40.54
39.48
38.86
38.63
38.77
39.19
39.68
39.84
39.11
37.01
33.29
28.14
22.12
15.92
10.08
4.71
-0.52
-6.22
-12.87
-20.62
-29.18
-38.01
-46.53
-54.42
-61.64
-68.47
-75.35
-82.82
-91.39
-101.32
-112.39
-123.66
-133.4
-139.45
-139.85
-133.59
-121.05
-103.93
-84.7
-65.72
-48.54
-33.66
-20.73
-9.08
1.82
12.18
22.01
31.32
40.4
49.63
59.37
69.62
80.0
89.76
98.21
104.87
109.65
112.7
114.27
114.56
113.56
111.17
107.31
101.96
95.23
87.41
78.94
70.35
62.09
54.42
47.27
40.24
32.83
24.69
15.88
6.86
-1.71
-9.31
-15.78
-21.43
-26.9
-32.94
-40.2
-49.04
-59.37
-70.47
-80.95
-88.83
-92.0
-88.81
-78.74
-62.67
-42.71
-21.5
-1.45
15.95
30.21
41.51
50.26
56.67
60.75
62.55
62.39
60.95
59.11
57.56
56.62
56.15
55.79
55.18
54.2
52.91
51.55
50.26
49.08
47.87
46.37
44.29
41.3
37.23
32.1
26.24
20.16
14.41
9.29
4.75
0.39
-4.33
-9.8
-16.08
-22.85
-29.59
-35.85
-41.47
-46.56
-51.55
-56.94
-63.21
-70.69
-79.43
-89.03
-98.48
-106.16
-110.12
-108.62
-100.77
-86.93
-68.75
-48.6
-28.88
-11.37
3.05
14.23
22.39
27.79
30.68
31.38
30.4
28.51
26.48
24.94
24.16
24.1
24.52
25.24
26.13
27.18
28.39
29.63
30.67
31.24
31.09
30.06
28.11
25.28
21.65
17.35
12.5
7.2
1.53
-4.45
-10.65
-16.92
-22.99
-28.59
-33.6
-38.19
-42.85
-48.25
-54.94
-62.94
-71.48
-79.08
-83.82
-83.85
-78.01
-66.16
-49.35
-29.5
-8.93
10.26
26.69
39.9
50.18
58.1
64.14
68.46
70.96
71.5
70.13
67.18
63.16
58.63
54.04
49.76
46.08
43.28
41.52
40.83
40.9
41.13
40.74
39.04
35.59
30.46
24.14
17.37
10.88
5.01
-0.35
-5.67
-11.47
-17.99
-25.05
-32.12
-38.63
-44.25
-49.06
-53.49
-58.14
-63.63
-70.38
-78.45
-87.3
-95.75
-101.96
-103.93
-100.02
-89.67
-73.68
-53.99
-33.1
-13.26
4.06
18.33
29.65
38.37
44.71
48.77
50.62
50.5
48.92
46.5
43.82
41.22
38.83
36.61
34.6
32.96
31.94
31.78
32.48
33.73
34.94
35.42
34.59
32.19
28.31
23.4
18.07
12.86
8.06
3.62
-0.8
-5.59
-10.96
-16.77
-22.64
-28.04
-32.61
-36.34
-39.51
-42.74
-46.72
-52.04
-58.99
-67.4
-76.42
-84.6
-90.01
-90.7
-85.35
-73.71
-56.83
-36.73
-15.8
3.91
21.16
35.56
47.29
56.66
63.82
68.72
71.36
71.99
71.2
69.79
68.44
67.53
67.05
66.69
66.13
65.15
63.78
62.2
60.61
59.1
57.57
55.77
53.4
50.21
46.14
41.33
36.06
30.74
25.65
20.88
16.3
11.6
6.45
0.73
-5.4
-11.59
-17.37
-22.42
-26.69
-30.49
-34.33
-38.83
-44.48
-51.57
-59.99
-69.16
-77.93
-84.69
-87.63
-85.2
-76.68
-62.41
-43.87
-23.25
-2.91
15.12
29.5
39.61
45.39
47.18
45.57
41.35
35.49
29.02
22.87
17.73
13.95
11.56
10.46
10.52
11.71
13.94
17.0
20.43
23.57
25.73
26.44
25.57
23.4
20.47
17.31
14.32
11.6
9.0
6.23
2.92
-1.16
-6.08
-11.64
-17.46
-23.02
-27.98
-32.29
-36.27
-40.65
-46.25
-53.71
-63.03
-73.28
-82.68
-88.92
-89.86
-84.24
-72.12
-54.91
-34.85
-14.37
4.62
21.03
34.52
45.18
53.23
58.79
61.93
62.83
61.84
59.62
56.95
54.56
52.9
52.1
51.96
52.12
52.26
52.18
51.88
51.42
50.74
49.67
47.81
44.8
40.5
35.11
29.13
23.19
17.71
12.69
7.82
2.58
-3.43
-10.24
-17.57
-24.92
-31.79
-37.89
-43.16
-47.82
-52.35
-57.39
-63.64
-71.59
-81.24
-91.77
-101.51
-108.24
-109.75
-104.56
-92.42
-74.5
-53.04
-30.66
-9.67
8.51
23.46
35.53
45.32
53.26
59.48
63.91
66.55
67.65
67.66
67.05
66.09
64.77
62.91
60.41
57.39
54.25
51.44
49.26
47.66
46.3
44.65
42.21
38.73
34.2
28.84
23.0
17.06
11.34
6.06
1.26
-3.19
-7.56
-12.26
-17.64
-23.81
-30.53
-37.29
-43.4
-48.37
-52.15
-55.28
-58.73
-63.52
-70.37
-79.34
-89.69
-99.94
-108.12
-112.06
-109.98
-100.94
-85.28
-64.6
-41.49
-18.72
1.5
18.07
30.97
40.89
48.6
54.49
58.58
60.72
60.97
59.79
57.99
56.38
55.46
55.23
55.33
55.31
54.92
54.17
53.24
52.32
51.35
50.01
47.94
44.82
40.6
35.49
29.88
24.15
18.61
13.44
8.67
4.16
-0.36
-5.24
-10.78
-17.1
-24.0
-31.05
-37.71
-43.55
-48.43
-52.58
-56.5
-60.9
-66.49
-73.78
-82.87
-93.18
-103.32
-111.21
-114.46
-111.16
-100.53
-83.34
-61.72
-38.44
-16.08
3.65
20.11
33.24
43.17
49.84
53.12
53.16
50.68
46.94
43.31
40.78
39.61
39.39
39.51
39.54
39.41
39.31
39.36
39.43
39.06
37.75
35.23
31.59
27.2
22.55
17.94
13.49
9.11
4.63
-0.14
-5.29
-10.85
-16.68
-22.54
-28.15
-33.25
-37.82
-42.13
-46.73
-52.32
-59.47
-68.22
-77.9
-87.0
-93.44
-95.05
-90.26
-78.7
-61.43
-40.67
-19.1
0.87
17.68
30.8
40.45
47.16
51.46
53.69
54.1
53.0
50.89
48.37
46.02
44.22
43.07
42.4
41.95
41.47
40.87
40.2
39.57
38.92
37.96
36.25
33.37
29.21
24.06
18.59
13.47
9.12
5.43
1.82
-2.42
-7.78
-14.27
-21.41
-28.45
-34.72
-39.91
-44.16
-48.03
-52.33
-57.93
-65.43
-74.87
-85.44
-95.4
-102.41
-104.11
-98.97
-86.81
-68.98
-47.84
-25.94
-5.34
12.81
28.19
40.89
51.03
58.67
63.81
66.63
67.49
66.97
65.64
63.98
62.32
60.87
59.72
58.82
58.03
57.21
56.28
55.29
54.33
53.32
51.9
49.5
45.54
39.84
32.75
25.14
18.01
11.99
7.04
2.45
-2.76
-9.42
-17.67
-26.87
-35.98
-43.87
-49.94
-54.25
-57.49
-60.68
-64.79
-70.49
-78.01
-86.95
-96.25
-104.1
-108.26
-106.58
-97.82
-82.22
-61.6
-38.78
-16.62
2.89
19.03
32.09
42.77
51.51
58.29
62.79
64.83
64.66
62.99
60.73
58.62
57.07
56.07
55.32
54.51
53.44
52.05
50.48
48.89
47.38
45.87
44.09
41.61
38.03
33.13
27.06
20.39
13.87
8.09
3.26
-1.01
-5.48
-10.86
-17.4
-24.77
-32.12
-38.63
-43.87
-47.95
-51.54
-55.44
-60.41
-66.98
-75.35
-85.31
-96.06
-106.07
-113.15
-115.05
-110.07
-97.81
-79.42
-57.31
-34.32
-12.92
5.41
20.24
31.8
40.54
46.73
50.44
51.75
51.07
49.12
46.85
45.13
44.41
44.67
45.55
46.6
47.53
48.24
48.65
48.63
47.95
46.29
43.44
39.45
34.6
29.36
24.25
19.61
15.51
11.63
7.31
1.84
-5.15
-13.44
-22.19
-30.16
-36.32
-40.29
-42.57
-44.39
-47.25
-52.36
-60.33
-70.86
-82.7
-93.65
-101.05
-102.32
-95.79
-81.42
-60.91
-37.22
-13.58
7.54
24.99
38.79
49.64
58.16
64.59
68.82
70.8
70.78
69.45
67.67
66.15
65.2
64.65
64.09
63.13
61.65
59.89
58.22
56.97
56.16
55.46
54.3
52.09
48.44
43.24
36.71
29.37
21.9
15.0
9.15
4.43
0.46
-3.44
-8.0
-13.65
-20.32
-27.54
-34.65
-41.08
-46.62
-51.4
-55.81
-60.37
-65.63
-72.12
-80.23
-89.87
-100.21
-109.46
-115.1
-114.55
-106.06
-89.51
-66.57
-40.19
-13.67
10.39
30.65
46.96
59.81
69.78
77.18
82.16
84.91
85.92
85.88
85.5
85.16
84.85
84.25
83.04
81.09
78.63
76.01
73.55
71.35
69.19
66.63
63.21
58.65
52.91
46.21
38.99
31.71
24.73
18.17
11.88
5.59
-0.98
-7.85
-14.79
-21.44
-27.61
-33.45
-39.48
-46.28
-54.2
-63.04
-72.16
-80.76
-88.27
-94.68
-100.47
-106.42
-113.25
-121.33
-130.46
-139.74
-147.55
-151.69
-149.8
-140.1
-122.17
-97.32
-68.4
-38.96
-12.09
10.43
28.39
42.67
54.36
64.12
71.86
77.09
79.41
79.0
76.65
73.49
70.53
68.4
67.2
66.76
66.75
66.94
67.19
67.43
67.55
67.35
66.57
64.97
62.34
58.67
54.08
48.82
43.17
37.41
31.69
26.17
20.95
16.14
11.79
7.77
3.76
-0.71
-6.13
-12.68
-20.21
-28.18
-35.84
-42.6
-48.22
-52.89
-57.29
-62.33
-68.92
-77.57
-88.1
-99.42
-109.5
-115.74
-115.7
-107.83
-92.17
-70.47
-45.75
-21.33
0.09
17.13
29.71
38.62
44.84
48.94
51.06
51.07
49.07
45.58
41.63
38.31
36.41
36.1
36.91
38.03
38.74
38.69
37.99
36.97
35.9
34.77
33.29
31.07
27.87
23.71
18.84
13.64
8.4
3.32
-1.46
-5.85
-9.8
-13.41
-16.92
-20.8
-25.41
-30.91
-37.1
-43.4
-49.23
-54.16
-58.24
-61.86
-65.71
-70.42
-76.45
-83.84
-92.13
-100.2
-106.26
-108.24
-104.3
-93.51
-76.34
-54.7
-31.26
-8.64
11.33
27.96
41.38
52.03
60.18
65.83
68.86
69.38
67.93
65.37
62.58
60.2
58.44
57.2
56.3
55.72
55.54
55.88
56.6
57.27
57.24
55.98
53.28
49.41
44.92
40.33
35.92
31.6
27.05
21.97
16.24
10.01
3.6
-2.61
-8.33
-13.45
-17.98
-22.08
-26.02
-30.07
-34.39
-39.03
-43.84
-48.65
-53.4
-58.26
-63.62
-70.0
-77.76
-86.74
-96.11
-104.26
-109.18
-108.94
-102.34
-89.33
-71.11
-49.82
-27.85
-7.24
10.76
25.73
37.84
47.43
54.75
59.87
62.76
63.56
62.59
60.47
57.86
55.34
53.28
51.77
50.74
50.09
49.75
49.74
50.08
50.67
51.19
51.22
50.34
48.36
45.34
41.6
37.52
33.4
29.34
25.27
21.03
16.58
11.95
7.31
2.78
-1.6
-5.91
-10.4
-15.24
-20.52
-26.16
-31.86
-37.31
-42.24
-46.62
-50.7
-54.97
-60.09
-66.6
-74.73
-84.13
-93.72
-101.76
-106.2
-105.2
-97.8
-84.22
-65.89
-45.06
-24.07
-4.78
11.76
25.25
35.92
44.06
49.92
53.6
55.21
55.05
53.62
51.6
49.65
48.24
47.51
47.31
47.32
47.23
46.9
46.34
45.6
44.67
43.39
41.55
39.01
35.76
31.99
27.89
23.58
19.0
14.13
8.97
3.67
-1.48
-6.32
-10.82
-15.17
-19.62
-24.31
-29.21
-34.1
-38.74
-43.04
-47.12
-51.31
-56.01
-61.58
-68.24
-75.94
-84.24
-92.2
-98.39
-101.1
-98.71
-90.29
-75.97
-57.07
-35.72
-14.24
5.57
22.69
36.85
48.14
56.66
62.35
65.19
65.44
63.77
61.16
58.62
56.83
55.98
55.84
55.97
55.98
55.65
54.99
54.16
53.3
52.43
51.35
49.75
47.25
43.63
39.0
33.69
28.22
23.02
18.31
13.91
9.42
4.37
-1.57
-8.39
-15.78
-23.17
-30.0
-35.88
-40.73
-44.86
-48.85
-53.39
-59.15
-66.54
-75.55
-85.62
-95.58
-103.82
-108.52
-108.13
-101.77
-89.52
-72.42
-52.26
-31.07
-10.7
7.51
22.83
35.06
44.33
50.94
55.25
57.61
58.39
57.95
56.72
55.13
53.59
52.42
51.74
51.55
51.63
51.72
51.58
51.11
50.31
49.29
48.1
46.63
44.67
41.99
38.45
34.1
29.21
24.11
19.05
14.08
9.02
3.56
-2.52
-9.25
-16.37
-23.48
-30.14
-36.05
-41.18
-45.72
-50.01
-54.48
-59.59
-65.76
-73.31
-82.15
-91.63
-100.32
-106.3
-107.53
-102.59
-91.17
-74.18
-53.6
-31.79
-10.9
7.67
23.3
36.02
46.1
53.73
58.99
61.86
62.53
61.47
59.48
57.43
56.02
55.57
55.97
56.82
57.69
58.23
58.37
58.12
57.59
56.81
55.72
54.12
51.78
48.51
44.23
39.03
33.14
26.94
20.86
15.22
10.17
5.6
1.16
-3.6
-9.01
-15.16
-21.8
-28.45
-34.68
-40.26
-45.29
-50.1
-55.13
-60.81
-67.49
-75.39
-84.42
-93.93
-102.58
-108.4
-109.36
-104.06
-92.41
-75.66
-56.07
-36.02
-17.36
-1.06
12.63
23.71
32.14
37.72
40.39
40.42
38.54
35.79
33.15
31.3
30.4
30.22
30.33
30.34
30.08
29.58
29.02
28.56
28.22
27.8
27.04
25.64
23.47
20.66
17.5
14.35
11.45
8.8
6.07
2.81
-1.36
-6.5
-12.24
-17.9
-22.82
-26.69
-29.67
-32.39
-35.65
-40.22
-46.54
-54.65
-64.1
-73.79
-82.0
-86.63
-85.65
-77.85
-63.43
-44.12
-22.73
-2.22
15.29
28.99
39.32
47.34
53.99
59.56
63.78
66.16
66.41
64.8
62.02
58.98
56.36
54.55
53.53
53.07
52.93
52.95
53.07
53.27
53.45
53.34
52.5
50.4
46.71
41.47
35.19
28.76
23.06
18.57
15.06
11.72
7.52
1.74
-5.66
-13.97
-22.16
-29.29
-35.0
-39.63
-44.0
-49.13
-55.89
-64.76
-75.71
-88.01
-100.25
-110.39
-116.14
-115.52
-107.58
-92.8
-72.97
-50.71
-28.63
-8.65
8.26
21.98
32.82
41.14
47.14
50.99
52.88
53.24
52.67
51.8
51.1
50.84
50.99
51.34
51.6
51.54
51.11
50.47
49.92
49.68
49.77
49.85
49.24
47.26
43.53
38.17
31.83
25.39
19.61
14.75
10.55
6.38
1.63
-4.04
-10.52
-17.37
-24.08
-30.26
-35.85
-41.04
-46.25
-51.98
-58.76
-67.03
-76.95
-88.22
-99.82
-109.96
-116.34
-116.77
-109.93
-95.94
-76.36
-53.7
-30.56
-8.94
10.17
26.61
40.53
51.96
60.67
66.3
68.77
68.47
66.31
63.38
60.67
58.73
57.66
57.23
57.08
56.95
56.81
56.72
56.75
56.79
56.47
55.24
52.54
48.08
42.02
34.91
27.51
20.49
14.14
8.35
2.74
-3.13
-9.53
-16.43
-23.57
-30.53
-36.92
-42.52
-47.37
-51.84
-56.55
-62.31
-69.79
-79.25
-90.26
-101.53
-111.02
-116.39
-115.62
-107.59
-92.52
-71.96
-48.34
-24.28
-1.97
17.14
32.35
43.44
50.42
53.49
53.19
50.5
46.81
43.61
42.07
42.62
44.82
47.58
49.69
50.29
49.27
47.21
44.94
43.07
41.62
40.06
37.58
33.61
28.14
21.76
15.32
9.51
4.52
-0.02
-4.78
-10.3
-16.78
-23.96
-31.32
-38.32
-44.63
-50.23
-55.37
-60.56
-66.44
-73.66
-82.66
-93.32
-104.69
-114.86
-121.32
-121.66
-114.43
-99.69
-79.11
-55.39
-31.38
-9.28
9.84
25.8
38.95
49.59
57.78
63.38
66.37
67.08
66.21
64.72
63.47
63.01
63.47
64.61
65.96
67.04
67.52
67.27
66.4
65.08
63.47
61.59
59.3
56.34
52.51
47.83
42.46
36.69
30.77
24.85
18.94
12.99
6.85
0.39
-6.56
-14.05
-21.96
-29.92
-37.42
-44.04
-49.64
-54.52
-59.39
-65.15
-72.71
-82.57
-94.54
-107.48
-119.2
-126.8
-127.41
-119.17
-102.0
-77.83
-50.0
-22.18
2.77
23.41
39.67
52.22
61.82
68.9
73.59
76.01
76.56
75.87
74.76
73.78
73.17
72.75
72.25
71.47
70.48
69.5
68.76
68.26
67.71
66.63
64.54
61.18
56.5
50.64
43.83
36.33
28.5
20.76
13.55
7.18
1.62
-3.49
-8.73
-14.61
-21.33
-28.71
-36.31
-43.59
-50.12
-55.76
-60.61
-65.01
-69.51
-74.81
-81.6
-90.43
-101.32
-113.39
-124.68
-132.45
-133.74
-126.48
-110.23
-86.63
-58.82
-30.54
-4.89
16.42
33.08
45.73
55.25
62.21
66.88
69.37
69.95
69.15
67.68
66.16
64.91
63.92
62.98
61.89
60.65
59.51
58.87
59.03
59.91
60.93
61.19
59.81
56.32
50.95
44.58
38.32
33.03
28.92
25.57
22.15
17.94
12.68
6.64
0.49
-5.14
-9.94
-14.04
-17.97
-22.48
-28.39
-36.34
-46.63
-58.8
-71.46
-82.24
-88.37
-87.59
-79.05
-63.79
-44.45
-24.27
-6.01
8.84
20.11
28.35
34.15
37.71
38.91
37.73
34.52
30.17
25.73
22.0
19.33
17.59
16.47
15.66
15.02
14.55
14.23
14.0
13.66
13.0
11.78
9.77
6.93
3.41
-0.39
-3.93
-6.87
-9.18
-11.3
-14.02
-18.0
-23.53
-30.26
-37.38
-43.96
-49.3
-53.23
-56.15
-58.93
-62.69
-68.51
-77.13
-88.5
-101.38
-113.28
-120.85
-120.81
-111.16
-92.05
-65.91
-36.71
-8.5
15.82
35.23
50.28
62.14
71.64
78.8
83.06
84.04
82.06
78.28
74.15
70.74
68.36
66.53
64.54
61.85
58.45
54.71
51.1
47.89
45.02
42.11
38.69
34.35
28.9
22.43
15.41
8.52
2.47
-2.35
-6.11
-9.53
-13.56
-19.0
-26.0
-33.99
-41.95
-48.86
-54.18
-58.14
-61.57
-65.63
-71.47
-79.87
-91.1
-104.68
-119.22
-132.34
-140.97
-142.04
-133.49
-115.12
-88.86
-58.18
-26.99
1.67
26.28
46.76
63.75
77.85
89.13
97.3
102.13
103.85
103.33
101.7
100.02
98.84
98.2
97.76
97.08
95.84
93.97
91.54
88.69
85.55
82.13
78.33
73.94
68.73
62.53
55.32
47.28
38.81
30.43
22.57
15.44
8.93
2.64
-3.96
-11.28
-19.41
-28.06
-36.65
-44.59
-51.41
-57.05
-61.74
-66.04
-70.64
-76.31
-83.74
-93.29
-104.62
-116.31
-125.78
-129.87
-125.7
-111.92
-89.28
-60.62
-29.92
-0.98
23.65
43.07
57.58
67.97
74.77
78.12
78.02
74.82
69.44
63.23
57.54
53.26
50.61
49.19
48.36
47.61
46.76
46.0
45.63
45.76
46.14
46.11
44.89
41.87
36.99
30.74
24.0
17.65
12.06
6.98
1.71
-4.51
-11.97
-20.34
-28.79
-36.36
-42.51
-47.34
-51.55
-56.16
-62.23
-70.53
-81.36
-94.32
-108.07
-120.24
-127.84
-127.94
-118.8
-100.66
-75.84
-48.14
-21.39
1.69
20.13
34.39
45.47
54.02
59.99
62.95
62.73
59.85
55.62
51.55
48.75
47.49
47.23
47.07
46.28
44.72
42.76
41.03
39.97
39.55
39.25
38.3
35.96
31.86
26.12
19.32
12.26
5.74
0.2
-4.49
-8.99
-14.26
-21.06
-29.5
-38.95
-48.24
-56.22
-62.3
-66.72
-70.46
-74.82
-80.95
-89.58
-100.96
-114.64
-129.28
-142.47
-150.98
-151.48
-141.71
-121.52
-93.21
-60.8
-28.66
-0.14
23.29
41.84
56.5
68.22
77.33
83.71
87.2
88.0
86.76
84.34
81.51
78.77
76.35
74.28
72.55
71.17
70.17
69.47
68.88
68.08
66.69
64.38
60.97
56.47
51.1
45.21
39.13
33.1
27.2
21.36
15.46
9.42
3.27
-2.91
-9.03
-15.17
-21.5
-28.26
-35.56
-43.28
-51.01
-58.27
-64.73
-70.4
-75.73
-81.45
-88.39
-97.2
-108.06
-120.36
-132.43
-141.59
-144.64
-138.86
-123.06
-98.24
-67.52
-35.11
-4.93
20.5
40.47
55.62
66.97
75.2
80.38
82.37
81.31
77.93
73.48
69.24
66.06
64.15
63.18
62.67
62.22
61.68
61.06
60.36
59.44
58.07
56.01
53.1
49.25
44.47
38.77
32.28
25.26
18.19
11.5
5.52
0.21
-4.77
-9.88
-15.53
-21.87
-28.73
-35.81
-42.66
-48.89
-54.24
-58.68
-62.49
-66.31
-71.03
-77.61
-86.7
-98.24
-111.17
-123.3
-131.64
-133.14
-125.67
-108.76
-84.01
-54.63
-24.45
3.24
26.48
44.79
58.68
68.92
75.98
80.01
81.0
79.25
75.54
71.0
66.79
63.72
62.03
61.43
61.31
61.11
60.56
59.69
58.73
57.86
57.0
55.73
53.48
49.75
44.33
37.44
29.62
21.61
14.13
7.64
2.25
-2.39
-6.98
-12.28
-18.86
-26.7
-35.28
-43.65
-50.93
-56.75
-61.36
-65.67
-70.81
-77.81
-87.28
-99.16
-112.63
