0
35.36
35.62
36.49
37.62
38.62
39.18
39.13
38.37
36.88
34.7
31.88
28.59
25.09
21.64
18.52
15.87
13.66
11.72
9.77
7.54
4.89
1.84
-1.46
-4.76
-7.92
-10.88
-13.76
-16.77
-20.17
-24.19
-28.99
-34.6
-40.8
-47.04
-52.46
-55.97
-56.58
-53.86
-48.05
-40.19
-31.64
-23.64
-16.87
-11.37
-6.69
-2.23
2.4
7.29
12.24
16.96
21.16
24.65
27.34
29.24
30.42
30.99
31.16
31.13
31.08
31.14
31.37
31.76
32.23
32.62
32.71
32.33
31.4
30.02
28.43
26.85
25.43
24.09
22.64
20.87
18.73
16.28
13.77
11.42
9.39
7.66
6.06
4.32
2.18
-0.59
-4.05
-8.05
-12.29
-16.4
-20.03
-23.08
-25.67
-28.19
-31.18
-35.12
-40.24
-46.23
-52.21
-56.9
-58.95
-57.55
-52.68
-45.22
-36.59
-28.23
-21.08
-15.42
-10.9
-6.95
-3.05
1.07
5.41
9.87
14.26
18.37
21.94
24.72
26.46
27.12
26.83
25.96
24.96
24.25
24.08
24.49
25.39
26.53
27.6
28.3
28.35
27.56
25.95
23.71
21.17
18.73
16.67
15.09
13.82
12.59
11.11
9.26
7.1
4.89
2.89
1.18
-0.34
-1.96
-4.0
-6.6
-9.69
-12.99
-16.1
-18.78
-20.91
-22.65
-24.3
-26.26
-28.91
-32.54
-37.11
-42.2
-46.97
-50.3
-51.16
-48.98
-43.93
-36.84
-28.95
-21.48
-15.24
-10.52
-7.1
-4.52
-2.23
0.2
3.02
6.2
9.53
12.61
15.06
16.62
17.3
17.33
17.11
16.98
17.2
17.81
18.75
19.85
20.93
21.78
22.25
22.17
21.44
20.05
18.08
15.73
13.29
11.05
9.22
7.83
6.75
5.73
4.49
2.82
0.73
-1.64
-4.05
-6.25
-8.1
-9.61
-10.9
-12.18
-13.68
-15.58
-18.05
-21.2
-25.13
-29.81
-34.94
-39.87
-43.63
-45.15
-43.75
-39.43
-32.96
-25.66
-18.91
-13.58
-9.86
-7.3
-5.15
-2.76
0.15
3.45
6.79
9.73
11.93
13.24
13.72
13.57
13.07
12.53
12.16
12.11
12.43
13.08
13.92
14.69
15.08
14.78
13.63
11.69
9.27
6.82
4.76
3.3
2.41
1.8
1.05
-0.19
-2.14
-4.75
-7.8
-10.96
-13.97
-16.75
-19.45
-22.4
-25.91
-30.14
-34.84
-39.42
-42.96
-44.55
-43.53
-39.82
-33.94
-26.88
-19.82
-13.67
-8.85
-5.25
-2.39
0.26
3.07
6.06
9.05
11.78
14.01
15.67
16.75
17.27
17.34
17.05
16.6
16.14
15.85
15.81
16.03
16.45
16.91
17.2
17.08
16.32
14.84
12.74
10.32
7.91
5.74
3.8
1.9
-0.2
-2.64
-5.41
-8.35
-11.3
-14.11
-16.72
-19.13
-21.45
-23.87
-26.73
-30.4
-35.11
-40.75
-46.67
-51.81
-54.96
-55.19
-52.27
-46.73
-39.78
-32.74
-26.64
-21.89
-18.22
-14.98
-11.55
-7.52
-2.83
2.35
7.75
13.05
17.86
21.75
24.37
25.62
25.73
25.23
24.72
24.65
25.15
26.08
27.23
28.39
29.39
30.03
30.03
29.16
27.32
24.68
21.66
18.73
16.24
14.31
12.77
11.36
9.78
7.79
5.22
2.02
-1.76
-5.91
-10.19
-14.34
-18.16
-21.64
-24.92
-28.23
-31.94
-36.4
-41.81
-48.07
-54.6
-60.34
-64.04
-64.69
-61.88
-56.04
-48.27
-39.9
-32.06
-25.31
-19.68
-14.8
-10.19
-5.48
-0.44
4.95
10.56
16.14
21.33
25.71
29.0
31.06
32.04
32.3
32.3
32.48
33.12
34.27
35.73
37.18
38.28
38.79
38.59
37.72
36.29
34.48
32.43
30.27
28.11
26.01
24.04
22.24
20.63
19.16
17.72
16.11
14.05
11.3
7.72
3.36
-1.53
-6.62
-11.55
-16.1
-20.23
-24.09
-27.95
-32.21
-37.29
-43.5
-50.76
-58.45
-65.37
-69.96
-70.91
-67.68
-60.8
-51.68
-42.09
-33.42
-26.27
-20.41
-15.17
-9.81
-3.91
2.59
9.46
16.37
22.92
28.74
33.48
36.96
39.19
40.34
40.79
40.96
41.2
41.76
42.69
43.84
44.9
45.54
45.52
44.79
43.52
41.96
40.31
38.63
36.79
34.6
32.0
29.03
25.92
22.92
20.19
17.68
15.2
12.42
9.06
4.99
0.31
-4.69
-9.55
-13.93
-17.69
-20.98
-24.23
-27.93
-32.55
-38.34
-45.22
-52.72
-59.91
-65.52
-68.31
-67.4
-62.69
-54.91
-45.45
-35.76
-26.93
-19.41
-13.05
-7.4
-2.01
3.39
8.87
14.36
19.72
24.73
29.13
32.59
34.91
36.09
36.36
36.13
35.87
35.89
36.38
37.32
38.56
39.88
40.96
41.5
41.19
39.9
37.64
34.68
31.4
28.23
25.43
23.03
20.81
18.41
15.52
11.99
7.89
3.46
-0.99
-5.24
-9.25
-13.12
-17.08
-21.38
-26.3
-32.08
-38.73
-45.9
-52.73
-57.94
-60.24
-58.83
-53.82
-46.29
-37.85
-29.97
-23.45
-18.22
-13.63
-8.9
-3.51
2.57
9.06
15.51
21.54
26.84
31.21
34.54
36.82
38.16
38.75
38.85
38.72
38.57
38.59
38.91
39.51
40.25
40.85
41.01
40.49
39.16
37.06
34.35
31.24
27.98
24.75
21.66
18.72
15.83
12.83
9.57
5.94
1.96
-2.22
-6.4
-10.36
-13.99
-17.33
-20.56
-23.96
-27.81
-32.35
-37.75
-44.07
-51.09
-58.23
-64.43
-68.39
-68.91
-65.43
-58.32
-48.84
-38.63
-29.13
-21.13
-14.6
-8.99
-3.62
1.98
8.04
14.53
21.28
27.99
34.2
39.42
43.2
45.35
46.05
45.76
45.05
44.45
44.26
44.57
45.25
46.05
46.63
46.61
45.7
43.8
41.03
37.67
34.05
30.42
26.92
23.6
20.52
17.82
15.58
13.81
12.36
10.92
9.15
6.79
3.8
0.3
-3.47
-7.24
-10.83
-14.18
-17.36
-20.57
-24.16
-28.48
-33.8
-40.18
-47.28
-54.32
-60.18
-63.58
-63.52
-59.67
-52.46
-43.1
-33.16
-24.0
-16.39
-10.38
-5.48
-0.98
3.67
8.73
14.17
19.71
24.97
29.53
33.06
35.41
36.71
37.3
37.57
37.81
38.08
38.3
38.33
38.12
37.77
37.33
36.76
35.89
34.49
32.51
30.12
27.72
25.64
24.05
22.76
21.4
19.6
17.2
14.28
11.17
8.24
5.71
3.54
1.46
-0.9
-3.81
-7.29
-11.09
-14.83
-18.14
-20.89
-23.22
-25.51
-28.24
-31.81
-36.4
-41.79
-47.29
-51.91
-54.47
-54.1
-50.5
-44.16
-36.16
-27.87
-20.41
-14.39
-9.85
-6.37
-3.37
-0.32
3.12
7.1
11.49
15.95
19.98
23.1
25.06
25.92
26.01
25.81
25.7
25.86
26.24
26.69
27.04
27.21
27.13
26.72
25.87
24.48
22.55
20.21
17.76
15.47
13.53
11.92
10.49
9.03
7.43
5.71
3.97
2.32
0.7
-1.01
-2.96
-5.19
-7.61
-10.0
-12.2
-14.2
-16.18
-18.41
-21.19
-24.73
-29.12
-34.24
-39.71
-44.81
-48.55
-49.96
-48.41
-43.97
-37.38
-29.85
-22.56
-16.28
-11.23
-7.21
-3.85
-0.81
2.09
4.95
7.77
10.5
12.96
14.94
16.24
16.8
16.8
16.53
16.28
16.23
16.41
16.72
17.09
17.38
17.5
17.29
16.58
15.31
13.55
11.54
9.55
7.76
6.21
4.76
3.15
1.16
-1.26
-3.99
-6.73
-9.16
-11.06
-12.49
-13.72
-15.25
-17.58
-21.0
-25.49
-30.62
-35.62
-39.47
-41.31
-40.59
-37.28
-31.95
-25.54
-19.11
-13.44
-8.87
-5.32
-2.41
0.28
3.04
5.91
8.8
11.45
13.66
15.19
15.96
16.04
15.68
15.24
15.04
15.25
15.8
16.49
17.09
17.45
17.53
17.31
16.74
15.75
14.31
12.52
10.61
8.83
7.29
5.9
4.38
2.43
-0.08
-3.08
-6.32
-9.49
-12.34
-14.78
-16.92
-19.06
-21.69
-25.25
-29.99
-35.65
-41.47
-46.28
-48.92
-48.68
-45.54
-40.21
-33.78
-27.35
-21.65
-16.87
-12.86
-9.27
-5.75
-2.11
1.74
5.76
9.82
13.71
17.15
19.86
21.68
22.56
22.68
22.31
21.77
21.31
21.04
20.94
20.92
20.85
20.62
20.15
19.39
18.29
16.86
15.14
13.23
11.27
9.38
7.64
6.03
4.43
2.66
0.59
-1.85
-4.62
-7.55
-10.47
-13.25
-15.84
-18.35
-20.94
-23.9
-27.47
-31.77
-36.64
-41.55
-45.56
-47.63
-46.92
-43.2
-37.0
-29.48
-21.98
-15.52
-10.53
-6.75
-3.66
-0.7
2.46
5.89
9.53
13.28
16.98
20.37
23.1
24.83
25.37
24.87
23.69
22.33
21.15
20.35
19.91
19.74
19.74
19.82
19.89
19.83
19.54
18.96
18.06
16.81
15.21
13.22
10.94
8.56
6.39
4.63
3.35
2.31
1.18
-0.38
-2.52
-5.14
-8.02
-10.92
-13.7
-16.34
-18.86
-21.37
-23.94
-26.8
-30.17
-34.21
-38.79
-43.42
-47.25
-49.28
-48.76
-45.51
-39.98
-33.11
-26.01
-19.57
-14.22
-9.94
-6.45
-3.33
-0.26
3.01
6.53
10.21
13.86
17.2
19.91
21.81
22.84
23.16
23.01
22.62
22.2
21.84
21.6
21.53
21.65
21.93
22.27
22.53
22.58
22.34
21.79
20.96
19.83
18.41
16.63
14.5
12.11
9.58
7.07
4.65
2.34
0.11
-2.13
-4.47
-6.93
-9.47
-12.0
-14.4
-16.56
-18.45
-20.15
-21.91
-24.09
-27.01
-30.85
-35.35
-39.9
-43.51
-45.19
-44.27
-40.69
-35.01
-28.25
-21.53
-15.7
-11.16
-7.8
-5.21
-2.86
-0.28
2.79
6.37
10.2
13.86
16.9
19.02
20.14
20.43
20.16
19.61
19.03
18.63
18.56
18.93
19.73
20.77
21.71
22.15
21.75
20.38
18.15
15.36
12.44
9.77
7.62
6.03
4.82
3.66
2.18
0.17
-2.34
-5.12
-7.92
-10.55
-13.02
-15.49
-18.21
-21.43
-25.31
-29.81
-34.61
-39.08
-42.34
-43.53
-42.12
-38.15
-32.25
-25.45
-18.82
-13.13
-8.69
-5.33
-2.61
-0.05
2.72
5.86
9.25
12.59
15.56
17.92
19.62
20.81
21.7
22.47
23.18
23.85
24.5
25.21
26.03
26.91
27.59
27.65
26.71
24.58
21.38
17.6
13.84
10.7
8.42
6.87
5.6
4.03
1.71
-1.49
-5.34
-9.43
-13.29
-16.72
-19.79
-22.82
-26.2
-30.24
-35.11
-40.73
-46.7
-52.32
-56.62
-58.6
-57.55
-53.36
-46.65
-38.59
-30.44
-23.21
-17.29
-12.55
-8.48
-4.57
-0.45
4.04
8.86
13.8
18.49
22.51
25.44
27.14
27.7
27.52
27.11
26.91
27.11
27.73
28.6
29.59
30.53
31.32
31.79
31.81
31.23
29.99
28.15
25.86
23.35
20.82
18.42
16.21
14.18
12.22
10.19
7.94
5.32
2.24
-1.34
-5.31
-9.48
-13.57
-17.38
-20.9
-24.27
-27.9
-32.21
-37.56
-44.02
-51.25
-58.5
-64.62
-68.38
-68.8
-65.53
-59.01
-50.4
-41.19
-32.68
-25.57
-19.88
-15.15
-10.74
-6.16
-1.15
4.3
10.09
16.02
21.76
26.88
30.95
33.7
35.14
35.63
35.72
35.97
36.77
38.23
40.2
42.36
44.3
45.63
46.05
45.46
43.94
41.76
39.25
36.7
34.27
31.94
29.57
26.98
24.08
20.9
17.6
14.41
11.52
8.98
6.6
4.04
0.91
-2.99
-7.6
-12.56
-17.42
-21.83
-25.64
-29.02
-32.37
-36.25
-41.16
-47.38
-54.75
-62.51
-69.36
-73.75
-74.38
-70.68
-63.12
-53.04
-42.22
-32.23
-24.0
-17.65
-12.68
-8.31
-3.82
1.26
7.07
13.5
20.17
26.52
31.96
35.99
38.4
39.36
39.34
38.98
38.85
39.33
40.46
42.03
43.64
44.84
45.23
44.65
43.17
41.06
38.71
36.45
34.5
32.86
31.38
29.83
27.98
25.76
23.16
20.33
17.48
14.73
12.05
9.25
6.03
2.25
-2.04
-6.54
-10.9
-14.87
-18.46
-21.9
-25.52
-29.72
-34.83
-40.99
-48.08
-55.5
-62.22
-66.93
-68.38
-65.87
-59.62
-50.69
-40.6
-30.82
-22.32
-15.33
-9.55
-4.41
0.66
5.98
11.63
17.45
23.05
28.02
31.99
34.76
36.38
37.1
37.27
37.19
37.08
37.03
37.12
37.38
37.78
38.13
38.16
37.53
36.02
33.64
30.68
27.54
24.59
22.03
19.82
17.74
15.46
12.73
9.44
5.7
1.74
-2.13
-5.68
-8.86
-11.85
-14.94
-18.54
-23.01
-28.62
-35.37
-42.83
-50.04
-55.7
-58.45
-57.43
-52.59
-44.77
-35.44
-26.08
-17.76
-10.86
-5.2
-0.31
4.32
9.01
13.86
18.75
23.39
27.44
30.57
32.67
33.82
34.3
34.41
34.41
34.43
34.51
34.68
35.01
35.5
36.08
36.55
36.59
35.86
34.12
31.33
27.7
23.69
19.81
16.52
13.98
12.04
10.2
7.94
4.88
0.99
-3.49
-8.16
-12.7
-16.95
-20.95
-24.88
-28.93
-33.44
-38.67
-44.77
-51.51
-58.1
-63.29
-65.71
-64.38
-59.15
-50.82
-40.85
-30.82
-21.91
-14.58
-8.66
-3.58
1.25
6.21
11.41
16.71
21.86
26.57
30.6
33.8
36.09
37.53
38.23
38.42
38.38
38.36
38.55
39.03
39.68
40.26
40.5
40.18
39.18
37.54
35.42
33.04
30.62
28.35
26.27
24.31
22.31
20.1
17.55
14.66
11.47
8.05
4.42
0.56
-3.54
-7.82
-12.12
-16.23
-20.05
-23.59
-27.05
-30.78
-35.13
-40.42
-46.65
-53.45
-59.93
-64.9
-67.12
-65.77
-60.79
-52.91
-43.43
-33.8
-25.08
-17.79
-11.86
-6.9
-2.43
2.02
6.72
11.78
17.11
22.42
27.26
31.19
33.95
35.48
35.96
35.75
35.2
34.68
34.43
34.6
35.15
35.85
36.32
36.23
35.4
33.93
32.09
30.17
28.29
26.37
24.23
21.76
19.01
16.17
13.44
10.94
8.59
6.2
3.57
0.6
-2.71
-6.24
-9.82
-13.3
-16.58
-19.6
-22.45
-25.24
-28.23
-31.71
-35.95
-41.03
-46.74
-52.4
-56.99
-59.33
-58.49
-54.24
-47.12
-38.38
-29.44
-21.46
-14.96
-9.81
-5.52
-1.54
2.48
6.66
10.98
15.3
19.39
22.94
25.6
27.13
27.56
27.19
26.51
26.02
26.0
26.54
27.55
28.84
30.16
31.25
31.82
31.62
30.6
28.87
26.7
24.35
22.0
19.7
17.43
15.17
12.91
10.62
8.22
5.58
2.63
-0.62
-4.05
-7.47
-10.72
-13.74
-16.53
-19.17
-21.8
-24.64
-27.99
-32.09
-36.98
-42.3
-47.25
-50.77
-51.89
-50.09
-45.51
-38.93
-31.43
-24.09
-17.62
-12.32
-8.06
-4.52
-1.28
1.97
5.39
8.93
12.4
15.47
17.89
19.51
20.41
20.78
20.87
20.85
20.81
20.76
20.7
20.67
20.71
20.81
20.79
20.39
19.33
17.5
15.06
12.33
9.67
7.33
5.22
3.14
0.79
-1.9
-4.79
-7.59
-10.01
-11.98
-13.65
-15.35
-17.45
-20.24
-23.93
-28.56
-33.91
-39.42
-44.13
-46.96
-47.0
-43.92
-38.21
-30.97
-23.61
-17.24
-12.37
-8.82
-5.95
-3.05
0.39
4.47
8.97
13.43
17.36
20.39
22.27
23.04
22.87
22.05
20.93
19.85
19.15
19.09
19.78
21.09
22.63
23.84
24.18
23.33
21.34
18.62
15.73
13.25
11.46
10.35
9.63
8.82
7.52
5.47
2.65
-0.76
-4.42
-8.02
-11.32
-14.24
-16.84
-19.31
-21.92
-25.0
-28.91
-33.85
-39.74
-46.06
-51.85
-55.91
-57.18
-55.16
-50.08
-42.9
-34.9
-27.26
-20.7
-15.31
-10.82
-6.72
-2.63
1.7
6.29
11.04
15.73
20.07
23.69
26.28
27.65
27.91
27.4
26.61
26.01
25.9
26.31
27.09
27.96
28.65
28.98
28.82
28.19
27.16
25.86
24.49
23.17
21.96
20.8
19.49
17.83
15.69
13.07
10.06
6.82
3.43
-0.07
-3.67
-7.28
-10.72
-13.79
-16.39
-18.57
-20.61
-22.89
-25.81
-29.63
-34.43
-39.97
-45.74
-50.88
-54.43
-55.48
-53.55
-48.75
-41.84
-34.0
-26.41
-19.88
-14.67
-10.56
-7.02
-3.54
0.23
4.45
9.01
13.69
18.13
21.95
24.84
26.65
27.46
27.6
27.52
27.59
28.07
28.94
29.96
30.82
31.24
31.06
30.26
28.99
27.39
25.54
23.5
21.25
18.86
16.42
14.07
11.93
10.02
8.24
6.46
4.5
2.28
-0.25
-3.01
-5.9
-8.77
-11.47
-13.92
-16.1
-18.15
-20.32
-22.93
-26.26
-30.43
-35.25
-40.21
-44.42
-46.87
-46.75
-43.72
-38.17
-31.05
-23.61
-16.91
-11.51
-7.35
-3.98
-0.83
2.49
6.04
9.64
13.0
15.83
18.02
19.53
20.45
20.92
21.06
20.96
20.68
20.31
20.0
19.9
20.12
20.59
21.04
21.06
20.29
18.63
16.33
13.85
11.66
10.0
8.75
7.54
5.95
3.76
1.02
-1.98
-4.91
-7.5
-9.74
-11.77
-13.85
-16.26
-19.16
-22.69
-26.87
-31.51
-36.21
-40.26
-42.8
-43.09
-40.79
-36.18
-30.1
-23.67
-17.85
-13.14
-9.48
-6.4
-3.37
0.01
3.83
7.95
12.06
15.81
18.89
21.08
22.36
22.93
23.13
23.32
23.74
24.43
25.28
26.09
26.76
27.27
27.63
27.81
27.65
26.97
25.57
23.44
20.69
17.59
14.48
11.68
9.36
7.53
5.96
4.29
2.19
-0.48
-3.6
-6.81
-9.74
-12.21
-14.26
-16.14
-18.17
-20.59
-23.61
-27.39
-32.01
-37.39
-43.1
-48.25
-51.74
-52.62
-50.44
-45.56
-38.94
-31.78
-25.12
-19.5
-14.92
-11.04
-7.39
-3.57
0.7
5.44
10.48
15.42
19.79
23.16
25.31
26.3
26.45
26.17
25.88
25.87
26.26
27.07
28.17
29.37
30.38
30.9
30.68
29.65
27.93
25.82
23.71
21.91
20.54
19.54
18.64
17.54
15.98
13.87
11.33
8.63
6.09
3.93
2.17
0.61
-1.04
-3.03
-5.41
-8.09
-10.82
-13.41
-15.78
-18.03
-20.36
-22.98
-26.09
-29.83
-34.24
-39.2
-44.21
-48.48
-50.96
-50.8
-47.62
-41.81
-34.42
-26.81
-20.12
-14.94
-11.15
-8.12
-5.09
-1.55
2.59
7.09
11.5
15.42
18.57
20.84
22.29
23.03
23.25
23.17
23.09
23.23
23.77
24.72
25.96
27.22
28.19
28.6
28.29
27.23
25.58
23.58
21.55
19.77
18.42
17.49
16.82
16.15
15.22
13.89
12.22
10.39
8.64
7.12
5.77
4.36
2.6
0.26
-2.67
-5.98
-9.33
-12.41
-15.06
-17.32
-19.45
-21.74
-24.5
-27.92
-32.05
-36.64
-41.13
-44.62
-46.11
-44.87
-40.74
-34.33
-26.83
-19.64
-13.8
-9.68
-6.95
-4.9
-2.77
-0.08
3.26
7.06
10.96
14.56
17.58
19.81
21.18
21.74
21.6
20.93
19.97
18.97
18.22
17.94
18.21
18.92
19.77
20.38
20.41
19.71
18.32
16.44
14.34
12.28
10.44
8.94
7.8
6.94
6.17
5.23
3.86
1.93
-0.53
-3.3
-6.06
-8.52
-10.54
-12.17
-13.69
-15.5
-17.99
-21.37
-25.55
-30.04
-34.01
-36.54
-36.92
-34.89
-30.83
-25.59
-20.2
-15.44
-11.61
-8.57
-5.86
-3.09
-0.06
3.18
6.46
9.6
12.52
15.16
17.4
19.13
20.21
20.65
20.62
20.42
20.34
20.49
20.78
20.99
20.88
20.36
19.43
18.18
16.58
14.57
12.08
9.23
6.37
3.98
2.45
1.9
2.06
2.42
2.47
1.89
0.63
-1.12
-3.14
-5.24
-7.35
-9.43
-11.5
-13.62
-15.88
-18.38
-21.3
-24.77
-28.89
-33.47
-38.09
-41.97
-44.21
-44.11
-41.41
-36.52
-30.34
-23.97
-18.24
-13.55
-9.86
-6.83
-4.12
-1.48
1.22
4.01
6.82
9.59
12.15
14.32
15.91
16.85
17.2
17.19
17.09
17.18
17.66
18.46
19.41
20.2
20.57
20.45
19.91
19.15
18.39
17.72
17.09
16.39
15.54
14.49
13.27
11.88
10.33
8.63
6.78
4.81
2.7
0.42
-2.1
-4.83
-7.65
-10.32
-12.62
-14.42
-15.83
-17.14
-18.68
-20.78
-23.59
-27.15
-31.28
-35.56
-39.31
-41.7
-41.93
-39.61
-34.96
-28.8
-22.28
-16.47
-11.98
-8.84
-6.66
-4.84
-2.93
-0.66
2.0
4.88
7.76
10.33
12.34
13.6
14.06
13.83
13.14
12.33
11.74
11.61
12.06
12.99
14.12
15.07
15.51
15.23
14.26
12.77
11.01
9.22
7.6
6.21
5.06
4.05
3.0
1.76
0.23
-1.55
-3.44
-5.2
-6.68
-7.89
-8.99
-10.3
-12.18
-14.93
-18.74
-23.5
-28.75
-33.71
-37.33
-38.69
-37.24
-33.15
-27.21
-20.59
-14.41
-9.41
-5.77
-3.21
-1.23
0.66
2.69
4.89
7.13
9.19
10.9
12.15
12.96
13.41
13.61
13.71
13.83
14.07
14.53
15.24
16.18
17.2
18.09
18.57
18.42
17.51
15.83
13.55
10.95
8.4
6.17
4.38
2.87
1.3
-0.72
-3.44
-6.8
-10.48
-14.02
-17.05
-19.48
-21.46
-23.35
-25.58
-28.51
-32.35
-36.99
-41.99
-46.56
-49.79
-50.88
-49.49
-45.82
-40.54
-34.57
-28.75
-23.62
-19.34
-15.75
-12.45
-9.0
-5.05
-0.47
4.58
9.68
14.33
18.11
20.86
22.63
23.69
24.28
24.6
24.78
24.91
25.08
25.38
25.82
26.36
26.9
27.27
27.28
26.78
25.64
23.88
21.66
19.23
16.94
15.05
13.6
12.42
11.2
9.58
7.3
4.3
0.7
-3.25
-7.26
-11.14
-14.78
-18.27
-21.78
-25.62
-30.04
-35.23
-41.18
-47.59
-53.84
-59.0
-62.05
-62.2
-59.18
-53.42
-45.93
-37.9
-30.34
-23.82
-18.32
-13.54
-9.0
-4.32
0.77
6.35
12.28
18.19
23.52
27.73
30.48
31.87
32.32
32.46
32.77
33.46
34.4
35.32
36.03
36.46
36.66
36.66
36.39
35.68
34.39
32.5
30.19
27.77
25.49
23.49
21.7
19.91
17.88
15.47
12.69
9.62
6.37
3.04
-0.41
-3.97
-7.63
-11.35
-15.15
-19.15
-23.65
-28.96
-35.27
-42.37
-49.57
-55.78
-59.85
-60.95
-58.85
-53.96
-47.18
-39.5
-31.8
-24.55
-17.9
-11.78
-6.01
-0.45
5.0
10.38
15.64
20.68
25.23
29.04
31.85
33.55
34.27
34.35
34.26
34.44
35.12
36.23
37.49
38.45
38.75
38.2
36.85
34.9
32.59
30.1
27.51
24.79
21.87
18.67
15.16
11.35
7.31
3.18
-0.88
-4.74
-8.32
-11.69
-15.09
-18.9
-23.51
-29.12
-35.56
-42.14
-47.73
-51.1
-51.27
-47.94
-41.62
-33.42
-24.64
-16.39
-9.26
-3.34
1.57
5.81
9.63
13.23
16.64
19.85
22.75
25.18
27.02
28.23
28.94
29.32
29.67
30.15
30.81
31.53
32.12
32.41
32.29
31.76
30.82
29.44
27.47
24.81
21.38
17.34
12.97
8.64
4.63
1.02
-2.31
-5.62
-9.17
-13.12
-17.56
-22.55
-28.14
-34.27
-40.62
-46.47
-50.77
-52.42
-50.73
-45.71
-38.14
-29.35
-20.62
-12.83
-6.16
-0.25
5.41
11.21
17.16
22.95
28.13
32.29
35.2
36.87
37.46
37.28
36.65
35.84
35.03
34.38
34.0
33.96
34.25
34.67
34.88
34.49
33.2
30.97
27.95
24.46
20.69
16.71
12.43
7.81
2.96
-1.85
-6.3
-10.19
-13.61
-16.86
-20.41
-24.67
-29.97
-36.39
-43.7
-51.29
-58.17
-63.15
-65.12
-63.49
-58.39
-50.67
-41.59
-32.4
-23.94
-16.48
-9.75
-3.26
3.47
10.64
18.12
25.53
32.32
38.02
42.35
45.3
47.06
47.94
48.23
48.17
47.92
47.6
47.3
47.07
46.91
46.7
46.25
45.25
43.42
40.6
36.9
32.71
28.57
25.01
22.21
20.01
17.86
15.17
11.56
7.09
2.18
-2.61
-6.86
-10.45
-13.58
-16.71
-20.4
-25.21
-31.5
-39.28
-47.99
-56.46
-63.18
-66.66
-65.95
-61.06
-52.88
-42.92
-32.74
-23.44
-15.43
-8.49
-2.04
4.53
11.55
18.98
26.41
33.18
38.62
42.24
43.94
43.99
42.99
41.63
40.5
39.94
40.02
40.63
41.53
42.48
43.28
43.72
43.64
42.83
41.19
38.7
35.58
32.15
28.83
25.93
23.56
21.54
19.52
17.12
14.06
10.32
6.06
1.58
-2.83
-6.93
-10.66
-14.11
-17.47
-20.99
-24.98
-29.73
-35.49
-42.35
-50.07
-57.9
-64.61
-68.76
-69.15
-65.34
-57.83
-47.93
-37.27
-27.27
-18.71
-11.73
-5.97
-0.88
4.06
9.22
14.8
20.71
26.68
32.23
36.84
40.2
42.27
43.32
43.78
44.07
44.46
45.07
45.88
46.8
47.64
48.16
48.02
46.94
44.76
41.57
37.72
33.65
29.78
26.32
23.23
20.33
17.37
14.25
11.0
7.73
4.56
1.5
-1.52
-4.58
-7.74
-10.96
-14.17
-17.3
-20.41
-23.64
-27.2
-31.29
-36.06
-41.49
-47.38
-53.22
-58.22
-61.42
-61.94
-59.3
-53.7
-45.99
-37.4
-29.15
-22.01
-16.15
-11.29
-6.91
-2.54
2.03
6.8
11.57
16.04
19.88
22.8
24.65
25.43
25.36
24.75
23.99
23.33
22.95
22.91
23.22
23.85
24.67
25.49
25.93
25.62
24.33
22.07
19.12
15.96
13.05
10.68
8.85
7.32
5.71
3.7
1.14
-1.93
-5.25
-8.53
-11.54
-14.21
-16.75
-19.54
-23.01
-27.49
-32.92
-38.8
-44.14
-47.79
-48.74
-46.52
-41.42
-34.36
-26.62
-19.41
-13.44
-8.88
-5.38
-2.37
0.65
3.84
7.05
9.9
12.0
13.15
13.39
13.08
12.67
12.56
12.99
13.97
15.29
16.66
17.8
18.51
18.69
18.32
17.44
16.1
14.36
12.27
9.9
7.3
4.55
1.71
-1.15
-3.94
-6.64
-9.22
-11.7
-14.19
-16.84
-19.84
-23.37
-27.52
-32.2
-37.08
-41.59
-44.93
-46.3
-45.14
-41.36
-35.5
-28.54
-21.61
-15.59
-10.85
-7.22
-4.23
-1.33
1.78
5.16
8.6
11.84
14.54
16.49
17.55
17.77
17.32
16.48
15.58
14.85
14.41
14.21
14.13
14.04
13.78
13.25
12.35
11.03
9.34
7.38
5.31
3.21
1.09
-1.05
-3.22
-5.29
-7.13
-8.64
-9.86
-11.04
-12.5
-14.51
-17.22
-20.67
-24.83
-29.65
-34.92
-40.09
-44.3
-46.55
-46.08
-42.75
-37.15
-30.39
-23.66
-17.77
-12.96
-8.93
-5.16
-1.24
3.05
7.62
12.2
16.43
19.89
22.25
23.39
23.41
22.69
21.7
20.86
20.36
20.18
20.15
20.1
19.98
19.79
19.53
19.1
18.3
16.97
15.05
12.72
10.32
8.2
6.52
5.16
3.73
1.75
-1.05
-4.59
-8.44
-12.01
-14.86
-16.89
-18.39
-19.86
-21.77
-24.44
-27.97
-32.27
-37.11
-42.0
-46.19
-48.74
-48.78
-45.9
-40.36
-33.12
-25.49
-18.62
-13.1
-8.87
-5.4
-2.05
1.58
5.57
9.69
13.54
16.81
19.3
20.96
21.9
22.29
22.3
22.03
21.62
21.2
20.92
20.94
21.35
22.1
23.02
23.86
24.36
24.3
23.54
22.04
19.82
17.01
13.84
10.63
7.66
5.12
3.02
1.17
-0.67
-2.73
-5.09
-7.73
-10.48
-13.13
-15.53
-17.62
-19.5
-21.35
-23.49
-26.23
-29.82
-34.32
-39.47
-44.67
-49.02
-51.54
-51.48
-48.62
-43.35
-36.58
-29.42
-22.83
-17.36
-13.08
-9.7
-6.76
-3.8
-0.47
3.36
7.57
11.83
15.67
18.64
20.49
21.25
21.22
20.75
20.14
19.53
19.01
18.66
18.62
19.0
19.71
20.47
20.79
20.22
18.6
16.14
13.33
10.79
8.91
7.76
7.08
6.39
5.27
3.47
1.06
-1.67
-4.36
-6.78
-8.91
-10.93
-13.19
-15.95
-19.45
-23.76
-28.8
-34.22
-39.37
-43.31
-45.06
-43.95
-39.96
-33.78
-26.58
-19.57
-13.55
-8.72
-4.77
-1.2
2.41
6.23
10.14
13.89
17.16
19.69
21.35
22.16
22.31
22.09
21.75
21.46
21.27
21.17
21.09
20.92
20.53
19.75
18.42
16.5
14.1
11.48
8.95
6.74
4.89
3.29
1.73
-0.01
-2.06
-4.49
-7.27
-10.3
-13.48
-16.7
-19.93
-23.27
-26.92
-31.04
-35.57
-40.11
-43.91
-46.03
-45.77
-42.87
-37.78
-31.4
-24.78
-18.74
-13.59
-9.19
-5.11
-1.0
3.31
7.67
11.79
15.37
18.23
20.3
21.61
22.31
22.51
22.4
22.18
22.09
22.26
22.77
23.56
24.45
25.23
25.66
25.51
24.63
23.01
20.77
18.21
15.68
13.49
11.76
10.36
8.98
7.21
4.74
1.47
-2.49
-6.84
-11.2
-15.27
-18.93
-22.23
-25.46
-29.05
-33.44
-38.87
-45.19
-51.74
-57.39
-60.84
-61.02
-57.55
-50.91
-42.32
-33.31
-25.23
-18.78
-13.92
-10.06
-6.39
-2.31
2.48
7.87
13.55
19.09
24.09
28.25
31.32
33.28
34.23
34.51
34.49
34.53
34.83
35.38
36.02
36.52
36.68
36.4
35.64
34.38
32.65
30.49
28.0
25.35
22.72
20.26
18.03
15.93
13.77
11.27
8.2
4.48
0.22
-4.23
-8.49
-12.24
-15.36
-18.01
-20.51
-23.29
-26.72
-31.08
-36.49
-42.82
-49.56
-55.79
-60.3
-61.93
-59.98
-54.56
-46.63
-37.63
-28.92
-21.39
-15.19
-10.0
-5.26
-0.53
4.41
9.63
15.11
20.77
26.38
31.52
35.68
38.42
39.67
39.66
38.98
38.24
37.93
38.24
39.11
40.24
41.24
41.72
41.44
40.37
38.68
36.69
34.73
32.98
31.41
29.81
27.93
25.59
22.77
19.55
16.09
12.57
9.15
5.94
3.01
0.29
-2.34
-5.11
-8.18
-11.61
-15.36
-19.27
-23.21
-27.14
-31.13
-35.43
-40.34
-46.13
-52.79
-59.82
-66.17
-70.41
-71.23
-67.9
-60.68
-50.73
-39.75
-29.33
-20.43
-13.3
-7.58
-2.67
2.02
6.86
12.05
17.52
23.0
28.08
32.3
35.28
36.93
37.43
37.15
36.53
35.96
35.72
35.97
36.7
37.77
38.91
39.67
39.71
38.85
37.16
34.96
32.65
30.54
28.7
27.01
25.26
23.21
20.79
18.05
15.17
12.25
9.34
6.34
3.09
-0.53
-4.49
-8.67
-12.86
-16.83
-20.45
-23.67
-26.51
-29.14
-31.82
-34.96
-39.01
-44.29
-50.65
-57.41
-63.3
-66.86
-66.88
-62.92
-55.47
-45.76
-35.4
-25.75
-17.61
-11.06
-5.73
-1.03
3.51
8.09
12.68
17.08
21.05
24.35
26.85
28.54
29.54
30.09
30.47
30.96
31.7
32.72
33.9
35.04
35.91
36.31
36.1
35.22
33.74
31.74
29.4
26.81
24.06
21.27
18.54
16.02
13.79
11.8
9.84
7.62
4.89
1.57
-2.21
-6.17
-10.01
-13.62
-17.06
-20.57
-24.51
-29.16
-34.75
-41.27
-48.41
-55.43
-61.27
-64.7
-64.71
-60.88
-53.61
-44.09
-33.87
-24.39
-16.5
-10.3
-5.35
-0.95
3.49
8.2
13.19
18.24
23.13
27.62
31.43
34.35
36.22
37.1
37.24
37.08
37.05
37.4
38.16
39.12
40.02
40.56
40.55
39.91
38.6
36.68
34.28
31.61
28.9
26.28
23.78
21.34
18.88
16.37
13.87
11.44
9.03
6.5
3.67
0.5
-2.93
-6.47
-10.01
-13.58
-17.26
-21.12
-25.14
-29.24
-33.54
-38.34
-44.05
-50.85
-58.32
-65.29
-70.19
-71.52
-68.51
-61.42
-51.47
-40.39
-29.83
-20.87
-13.83
-8.4
-3.89
0.4
4.95
9.97
15.36
20.87
26.15
30.83
34.61
37.32
38.95
39.68
39.88
39.91
40.05
40.42
40.93
41.36
41.44
40.98
39.83
38.01
35.67
33.05
30.44
28.06
25.99
24.11
22.2
20.0
17.36
14.32
11.08
7.96
5.23
3.02
1.25
-0.35
-2.16
-4.5
-7.52
-11.08
-14.85
-18.39
-21.38
-23.74
-25.68
-27.71
-30.41
-34.31
-39.63
-46.13
-53.04
-59.11
-62.95
-63.37
-59.82
-52.62
-42.93
-32.39
-22.62
-14.72
-9.01
-5.12
-2.28
0.39
3.53
7.42
12.03
17.01
21.85
26.0
29.0
30.64
31.05
30.64
30.01
29.67
29.95
30.85
32.22
33.74
35.08
35.98
36.17
35.47
33.83
31.41
28.52
25.58
22.96
20.87
19.27
17.89
16.4
14.48
12.0
9.05
5.95
3.05
0.55
-1.63
-3.84
-6.5
-9.85
-13.75
-17.78
-21.43
-24.4
-26.8
-29.03
-31.62
-34.97
-39.25
-44.32
-49.79
-54.92
-58.72
-60.13
-58.32
-53.1
-45.05
-35.42
-25.68
-17.05
-10.14
-4.94
-1.03
2.15
5.08
8.05
11.22
14.53
17.8
20.76
23.09
24.68
25.52
25.82
25.83
25.81
25.98
26.49
27.38
28.51
29.6
30.29
30.28
29.5
28.08
26.28
24.33
22.33
20.22
17.97
15.64
13.37
11.29
9.45
7.75
6.01
4.06
1.79
-0.86
-3.91
-7.34
-11.0
-14.67
-18.11
-21.13
-23.79
-26.32
-29.12
-32.55
-36.8
-41.78
-47.04
-51.73
-54.72
-54.95
-51.77
-45.29
-36.47
-26.87
-18.08
-11.15
-6.3
-3.02
-0.45
2.12
5.08
8.34
11.65
14.69
17.26
19.19
20.46
21.03
20.99
20.52
19.9
19.44
19.42
19.93
20.93
22.2
23.4
24.2
24.3
23.51
21.87
19.62
17.14
14.8
12.78
10.98
9.12
6.85
3.96
0.55
