0
7.81
7.26
6.37
5.21
3.92
2.61
1.36
0.14
-1.15
-2.56
-4.09
-5.58
-6.81
-7.64
-8.05
-8.24
-8.52
-9.16
-10.29
-11.84
-13.51
-14.91
-15.62
-15.34
-13.87
-11.22
-7.55
-3.22
1.34
5.65
9.33
12.14
13.99
14.87
14.87
14.1
12.73
10.95
8.98
7.07
5.42
4.2
3.49
3.3
3.6
4.26
5.13
6.01
6.73
7.11
7.07
6.59
5.72
4.58
3.28
1.91
0.55
-0.75
-1.98
-3.11
-4.12
-4.96
-5.62
-6.18
-6.76
-7.56
-8.68
-10.17
-11.89
-13.65
-15.21
-16.34
-16.88
-16.66
-15.56
-13.45
-10.33
-6.36
-1.87
2.66
6.76
10.08
12.44
13.85
14.38
14.12
13.15
11.55
9.5
7.3
5.35
4.01
3.5
3.77
4.54
5.43
6.13
6.5
6.6
6.53
6.35
6.04
5.49
4.63
3.52
2.3
1.11
-0.02
-1.15
-2.39
-3.79
-5.29
-6.75
-8.05
-9.16
-10.17
-11.18
-12.32
-13.62
-15.02
-16.38
-17.47
-17.99
-17.62
-16.09
-13.29
-9.35
-4.65
0.3
4.93
8.83
11.78
13.76
14.83
15.04
14.42
13.04
11.05
8.7
6.38
4.45
3.17
2.62
2.72
3.29
4.15
5.14
6.08
6.84
7.25
7.23
6.76
5.96
4.99
4.04
3.18
2.39
1.55
0.53
-0.73
-2.23
-3.85
-5.48
-7.0
-8.37
-9.63
-10.83
-12.03
-13.24
-14.43
-15.51
-16.33
-16.68
-16.31
-14.99
-12.55
-9.01
-4.55
0.41
5.39
9.89
13.55
16.13
17.53
17.8
17.04
15.43
13.23
10.78
8.47
6.62
5.46
5.0
5.09
5.49
5.97
6.37
6.65
6.8
6.86
6.75
6.41
5.78
4.82
3.64
2.37
1.15
0.04
-0.97
-1.93
-2.9
-3.9
-4.9
-5.84
-6.7
-7.49
-8.3
-9.21
-10.32
-11.64
-13.14
-14.72
-16.12
-17.05
-17.1
-15.93
-13.4
-9.59
-4.95
-0.05
4.53
8.36
11.22
13.05
13.89
13.81
12.93
11.49
9.79
8.16
6.88
6.03
5.53
5.24
5.03
4.88
4.87
5.09
5.55
6.15
6.67
6.85
6.5
5.57
4.16
2.52
0.88
-0.57
-1.82
-2.91
-3.96
-5.04
-6.15
-7.21
-8.17
-9.02
-9.84
-10.73
-11.75
-12.96
-14.33
-15.82
-17.37
-18.82
-19.9
-20.32
-19.78
-18.12
-15.35
-11.69
-7.46
-3.02
1.29
5.17
8.39
10.83
12.45
13.32
13.56
13.29
12.59
11.55
10.26
8.89
7.68
6.81
6.44
6.53
6.99
7.62
8.29
8.84
9.2
9.3
9.08
8.48
7.52
6.26
4.84
3.46
2.28
1.37
0.72
0.17
-0.44
-1.22
-2.17
-3.2
-4.14
-4.87
-5.36
-5.69
-6.1
-6.79
-7.88
-9.35
-10.93
-12.24
-12.83
-12.35
-10.62
-7.72
-3.93
0.32
4.58
8.44
11.65
14.06
15.64
16.41
16.36
15.54
14.02
12.01
9.82
7.82
6.34
5.55
5.41
5.7
6.17
6.59
6.88
7.05
7.14
7.11
6.83
6.12
4.89
3.19
1.24
-0.66
-2.31
-3.62
-4.68
-5.64
-6.66
-7.79
-8.96
-10.06
-10.96
-11.62
-12.11
-12.56
-13.16
-14.0
-15.04
-16.02
-16.59
-16.35
-15.03
-12.54
-8.98
-4.65
0.08
4.77
8.99
12.37
14.63
15.63
15.41
14.17
12.22
9.94
7.67
5.62
3.91
2.57
1.62
1.1
1.09
1.59
2.48
3.48
4.28
4.66
4.54
3.99
3.12
2.01
0.7
-0.79
-2.32
-3.7
-4.71
-5.27
-5.45
-5.47
-5.6
-6.03
-6.81
-7.87
-9.12
-10.48
-11.93
-13.49
-15.1
-16.58
-17.61
-17.81
-16.85
-14.58
-11.13
-6.86
-2.24
2.29
6.43
10.01
12.91
15.01
16.1
16.06
14.89
12.78
10.12
7.39
5.05
3.41
2.59
2.53
3.03
3.83
4.68
5.36
5.76
5.84
5.62
5.1
4.27
3.14
1.73
0.15
-1.4
-2.73
-3.73
-4.47
-5.11
-5.87
-6.89
-8.15
-9.49
-10.73
-11.74
-12.59
-13.44
-14.46
-15.72
-17.04
-18.11
-18.49
-17.82
-15.91
-12.8
-8.74
-4.14
0.53
4.82
8.34
10.85
12.23
12.54
11.94
10.66
8.95
7.05
5.21
3.61
2.45
1.82
1.76
2.26
3.2
4.44
5.75
6.9
7.67
7.89
7.5
6.58
5.27
3.77
2.23
0.77
-0.54
-1.67
-2.62
-3.4
-4.08
-4.73
-5.43
-6.21
-7.07
-8.02
-9.11
-10.38
-11.85
-13.45
-14.96
-16.12
-16.61
-16.22
-14.83
-12.46
-9.16
-5.12
-0.62
3.96
8.2
11.69
14.19
15.61
16.04
15.63
14.55
12.95
11.01
8.94
7.04
5.64
4.95
5.02
5.67
6.56
7.33
7.79
7.9
7.8
7.67
7.57
7.45
7.14
6.51
5.51
4.2
2.72
1.16
-0.4
-1.94
-3.43
-4.82
-6.04
-7.07
-7.94
-8.73
-9.58
-10.6
-11.8
-13.08
-14.2
-14.85
-14.65
-13.32
-10.71
-6.96
-2.41
2.39
6.88
10.6
13.27
14.89
15.55
15.44
14.68
13.33
11.44
9.19
6.9
5.0
3.85
3.54
3.88
4.51
5.07
5.38
5.52
5.65
5.87
6.12
6.18
5.88
5.14
4.11
2.98
1.89
0.89
-0.13
-1.32
-2.75
-4.38
-6.09
-7.75
-9.25
-10.58
-11.78
-12.89
-13.96
-14.9
-15.53
-15.54
-14.64
-12.63
-9.53
-5.6
-1.2
3.26
7.45
11.1
14.02
16.06
17.1
17.13
16.24
14.62
12.59
10.47
8.56
7.13
6.35
6.29
6.84
7.72
8.58
9.1
9.09
8.61
7.84
6.95
6.07
5.19
4.2
3.04
1.69
0.24
-1.23
-2.67
-4.09
-5.51
-6.93
-8.28
-9.48
-10.48
-11.36
-12.3
-13.47
-14.88
-16.25
-17.1
-16.84
-15.1
-11.83
-7.38
-2.36
2.57
6.86
10.23
12.56
13.88
14.24
13.76
12.58
10.93
9.11
7.36
5.88
4.77
4.04
3.69
3.67
3.94
4.4
4.9
5.3
5.49
5.43
5.12
4.62
3.95
3.17
2.26
1.25
0.16
-1.0
-2.21
-3.5
-4.85
-6.26
-7.72
-9.16
-10.55
-11.9
-13.29
-14.76
-16.37
-18.02
-19.44
-20.28
-20.1
-18.63
-15.76
-11.67
-6.75
-1.52
3.49
7.84
11.21
13.41
14.44
14.4
13.55
12.17
10.55
8.92
7.47
6.33
5.56
5.19
5.21
5.52
6.0
6.54
7.02
7.38
7.6
7.67
7.57
7.23
6.6
5.61
4.28
2.73
1.15
-0.27
-1.41
-2.27
-2.96
-3.58
-4.25
-5.04
-5.98
-7.08
-8.4
-9.97
-11.79
-13.77
-15.72
-17.37
-18.42
-18.61
-17.75
-15.78
-12.78
-8.95
-4.56
0.06
4.52
8.46
11.56
13.61
14.58
14.56
13.78
12.46
10.81
9.01
7.26
5.75
4.68
4.18
4.21
4.6
5.16
5.73
6.27
6.83
7.37
7.77
7.85
7.43
6.48
5.13
3.61
2.16
0.88
-0.24
-1.28
-2.35
-3.5
-4.72
-5.93
-7.04
-7.99
-8.76
-9.45
-10.17
-11.09
-12.26
-13.6
-14.84
-15.62
-15.6
-14.55
-12.45
-9.47
-5.92
-2.16
1.48
4.74
7.46
9.57
11.0
11.69
11.58
10.71
9.18
7.26
5.28
3.59
2.46
1.99
2.11
2.65
3.41
4.24
5.0
5.59
5.9
5.82
5.32
4.45
3.39
2.33
1.42
0.68
0.01
-0.77
-1.79
-3.05
-4.46
-5.9
-7.28
-8.6
-9.84
-10.97
-11.9
-12.55
-12.98
-13.41
-14.08
-15.1
-16.31
-17.27
-17.43
-16.39
-14.07
-10.73
-6.8
-2.73
1.12
4.53
7.33
9.35
10.45
10.61
9.9
8.56
6.88
5.15
3.59
2.37
1.56
1.18
1.23
1.63
2.29
3.09
3.9
4.59
5.05
5.22
5.04
4.54
3.75
2.76
1.68
0.61
-0.41
-1.35
-2.26
-3.2
-4.21
-5.3
-6.41
-7.45
-8.36
-9.11
-9.75
-10.43
-11.27
-12.35
-13.6
-14.78
-15.51
-15.41
-14.19
-11.78
-8.36
-4.33
-0.13
3.82
7.19
9.83
11.64
12.62
12.77
12.13
10.77
8.87
6.71
4.64
3.03
2.12
1.93
2.3
2.94
3.61
4.17
4.59
4.92
5.17
5.21
4.93
4.24
3.22
2.03
0.89
-0.07
-0.87
-1.59
-2.33
-3.15
-4.05
-4.98
-5.94
-6.97
-8.14
-9.5
-11.09
-12.82
-14.5
-15.84
-16.46
-16.01
-14.33
-11.41
-7.5
-3.05
1.5
5.74
9.34
12.15
14.13
15.32
15.79
15.59
14.75
13.26
11.17
8.63
5.91
3.37
1.33
-0.06
-0.81
-1.11
-1.15
-1.08
-0.98
-0.87
-0.77
-0.72
-0.79
-1.04
-1.51
-2.2
-3.08
-4.04
-5.0
-5.89
-6.67
-7.36
-8.06
-8.89
-9.97
-11.33
-12.86
-14.35
-15.45
-15.77
-15.03
-13.1
-10.04
-6.12
-1.73
2.76
6.98
10.65
13.57
15.57
16.61
16.72
16.03
14.73
13.03
11.15
9.29
7.68
6.47
5.76
5.54
5.67
5.91
6.08
6.05
5.87
5.65
5.47
5.28
4.92
4.16
2.86
1.06
-1.02
-3.08
-4.88
-6.34
-7.59
-8.82
-10.25
-12.02
-14.13
-16.47
-18.81
-20.8
-22.06
-22.14
-20.75
-17.81
-13.51
-8.24
-2.51
3.14
8.31
12.62
15.82
17.72
18.27
17.57
15.89
13.64
11.28
9.2
7.67
6.73
6.3
6.24
6.43
6.8
7.33
7.95
8.52
8.85
8.8
8.31
7.44
6.29
4.91
3.29
1.42
-0.65
-2.74
-4.59
-5.98
-6.91
-7.57
-8.32
-9.43
-11.0
-12.93
-14.98
-16.85
-18.26
-18.93
-18.57
-16.93
-13.89
-9.53
-4.2
1.57
7.16
12.03
15.82
18.36
19.64
19.73
18.78
17.04
14.81
12.45
10.31
8.63
7.53
7.02
7.02
7.4
7.99
8.61
9.08
9.25
9.04
8.51
7.75
6.92
6.07
5.16
4.07
2.69
1.05
-0.72
-2.39
-3.79
-4.94
-5.97
-7.07
-8.39
-9.95
-11.67
-13.48
-15.32
-17.15
-18.8
-19.94
-20.11
-18.87
-16.01
-11.65
-6.28
-0.57
4.81
9.41
13.01
15.58
17.18
17.8
17.44
16.17
14.19
11.84
9.57
7.79
6.69
6.27
6.33
6.64
6.99
7.3
7.55
7.7
7.71
7.48
6.96
6.15
5.13
4.01
2.84
1.65
0.41
-0.86
-2.09
-3.22
-4.19
-5.01
-5.79
-6.66
-7.72
-8.98
-10.42
-12.03
-13.79
-15.62
-17.34
-18.59
-18.94
-17.95
-15.43
-11.51
-6.63
-1.39
3.63
8.0
11.49
13.98
15.42
15.78
15.05
13.35
10.94
8.23
5.61
3.43
1.87
0.99
0.75
1.05
1.8
2.87
4.08
5.2
6.01
6.32
6.06
5.29
4.19
2.94
1.72
0.58
-0.47
-1.52
-2.66
-3.97
-5.43
-7.0
-8.55
-9.87
-10.8
-11.3
-11.48
-11.65
-12.15
-13.14
-14.48
-15.71
-16.21
-15.5
-13.37
-9.99
-5.78
-1.22
3.23
7.22
10.43
12.66
13.74
13.72
12.75
11.14
9.18
7.13
5.18
3.52
2.32
1.73
1.79
2.39
3.23
3.96
4.35
4.32
3.98
3.54
3.15
2.8
2.38
1.71
0.73
-0.53
-1.9
-3.21
-4.32
-5.24
-6.03
-6.76
-7.49
-8.26
-9.09
-10.03
-11.14
-12.37
-13.58
-14.46
-14.65
-13.85
-11.92
-8.97
-5.3
-1.3
2.7
6.39
9.56
12.01
13.57
14.1
13.6
12.18
10.15
7.87
5.66
3.77
2.28
1.24
0.65
0.52
0.84
1.54
2.5
3.54
4.5
5.22
5.58
5.51
5.0
4.08
2.88
1.52
0.17
-1.07
-2.16
-3.13
-4.07
-5.04
-6.08
-7.23
-8.49
-9.86
-11.24
-12.45
-13.12
-12.87
-11.39
-8.62
-4.81
-0.48
3.78
7.53
10.54
12.81
14.44
15.45
15.72
15.09
13.48
11.03
8.12
5.25
2.89
1.29
0.49
0.3
0.48
0.81
1.21
1.62
1.99
2.24
2.23
1.88
1.16
0.17
-0.97
-2.18
-3.45
-4.8
-6.24
-7.73
-9.21
-10.66
-12.1
-13.67
-15.43
-17.33
-19.06
-20.16
-20.1
-18.51
-15.27
-10.59
-4.98
0.97
6.62
11.47
15.15
17.45
18.29
17.76
16.11
13.7
10.92
8.16
5.7
3.74
2.37
1.67
1.62
2.16
3.09
4.14
5.05
5.61
5.75
5.51
4.95
4.11
2.97
1.48
-0.37
-2.43
-4.46
-6.23
-7.56
-8.51
-9.31
-10.3
-11.75
-13.74
-16.11
-18.47
-20.31
-21.12
-20.5
-18.25
-14.44
-9.36
-3.58
2.25
7.5
11.72
14.69
16.45
17.16
17.0
16.11
14.65
12.77
10.73
8.82
7.31
6.35
5.91
5.83
5.94
6.08
6.18
6.27
6.35
6.4
6.31
5.96
5.3
4.34
3.16
1.85
0.45
-1.05
-2.66
-4.39
-6.14
-7.81
-9.29
-10.6
-11.82
-13.09
-14.46
-15.88
-17.11
-17.84
-17.69
-16.4
-13.82
-9.98
-5.13
0.24
5.56
10.24
13.84
16.1
17.02
16.78
15.6
13.73
11.44
8.97
6.6
4.59
3.17
2.46
2.46
3.02
3.94
4.97
5.89
6.49
6.64
6.29
5.49
4.34
2.98
1.52
0.03
-1.44
-2.88
-4.22
-5.44
-6.55
-7.59
-8.7
-9.97
-11.47
-13.14
-14.87
-16.48
-17.8
-18.63
-18.8
-18.08
-16.31
-13.39
-9.41
-4.69
0.34
5.15
9.35
12.69
15.07
16.42
16.7
15.91
14.11
11.59
8.79
6.23
4.34
3.3
3.03
3.27
3.76
4.3
4.8
5.23
5.5
5.53
5.19
4.43
3.28
1.85
0.3
-1.22
-2.61
-3.81
-4.83
-5.71
-6.49
-7.21
-7.92
-8.69
-9.61
-10.75
-12.1
-13.5
-14.68
-15.27
-14.99
-13.68
-11.33
-8.1
-4.22
0.01
4.24
8.1
11.2
13.3
14.29
14.27
13.42
11.9
9.88
7.51
5.01
2.74
1.07
0.28
0.39
1.2
2.36
3.53
4.56
5.43
6.15
6.67
6.88
6.58
5.66
4.16
2.29
0.36
-1.33
-2.59
-3.4
-3.93
-4.42
-5.14
-6.25
-7.76
-9.59
-11.53
-13.35
-14.75
-15.45
-15.19
-13.79
-11.24
-7.63
-3.25
1.54
6.31
10.58
13.91
15.95
16.57
15.9
14.27
12.12
9.84
7.68
5.76
4.13
2.89
2.12
1.84
1.97
2.31
2.64
2.8
2.75
2.54
2.23
1.81
1.21
0.38
-0.75
-2.11
-3.58
-5.01
-6.33
-7.53
-8.71
-9.97
-11.39
-12.91
-14.47
-15.94
-17.19
-18.07
-18.39
-17.87
-16.26
-13.38
-9.33
-4.43
0.76
5.67
9.8
12.86
14.75
15.49
15.16
13.93
11.97
9.56
7.04
4.79
3.13
2.3
2.35
3.15
4.36
5.59
6.49
6.87
6.73
6.2
5.46
4.64
3.75
2.71
1.46
-0.07
-1.84
-3.74
-5.6
-7.26
-8.66
-9.83
-10.92
-12.09
-13.5
-15.13
-16.82
-18.29
-19.26
-19.45
-18.62
-16.62
-13.35
-8.85
-3.37
2.57
8.29
13.1
16.47
18.22
18.46
17.51
15.75
13.5
11.03
8.6
6.46
4.87
4.02
3.97
4.56
5.52
6.5
7.18
7.42
7.24
6.79
6.23
5.64
4.99
4.16
3.04
1.62
-0.03
-1.77
-3.46
-5.04
-6.46
-7.71
-8.79
-9.76
-10.74
-11.85
-13.2
-14.73
-16.24
-17.43
-17.96
-17.54
-15.96
-13.14
-9.13
-4.17
1.28
6.62
11.24
14.68
16.77
17.6
17.39
16.38
14.76
12.65
10.27
7.93
6.02
4.84
4.52
4.94
5.78
6.63
7.18
7.3
7.03
6.51
5.9
5.26
4.56
3.7
2.59
1.24
-0.31
-1.96
-3.6
-5.13
-6.48
-7.61
-8.56
-9.39
-10.26
-11.3
-12.63
-14.21
-15.88
-17.38
-18.44
-18.79
-18.21
-16.51
-13.6
-9.55
-4.66
0.55
5.48
9.62
12.64
14.44
15.06
14.58
13.13
10.84
8.01
5.04
2.43
0.6
-0.22
-0.05
0.86
2.16
3.47
4.51
5.12
5.3
5.12
4.73
4.25
3.75
3.23
2.61
1.84
0.84
-0.38
-1.72
-3.04
-4.21
-5.14
-5.82
-6.37
-6.93
-7.64
-8.56
-9.72
-11.08
-12.57
-13.98
-15.01
-15.24
-14.25
-11.86
-8.18
-3.68
1.02
5.35
8.98
11.84
14.0
15.47
16.13
15.79
14.35
12.0
9.21
6.62
4.74
3.82
3.79
4.32
5.08
5.86
6.62
7.38
8.17
8.86
9.26
9.12
8.34
6.92
5.06
3.04
1.11
-0.55
-1.87
-2.89
-3.73
-4.53
-5.41
-6.44
-7.68
-9.18
-10.92
-12.85
-14.77
-16.38
-17.29
-17.14
-15.66
-12.78
-8.71
-3.89
1.12
5.73
9.53
12.3
14.01
14.77
14.67
13.77
12.14
9.93
7.42
5.06
3.32
2.48
2.61
3.45
4.61
5.67
6.41
6.76
6.78
6.55
6.09
5.36
4.33
3.03
1.56
0.06
-1.4
-2.82
-4.25
-5.74
-7.26
-8.75
-10.15
-11.5
-12.94
-14.62
-16.61
-18.79
-20.89
-22.57
-23.43
-23.18
-21.56
-18.5
-14.1
-8.72
-2.86
2.87
7.94
12.01
14.94
16.73
17.4
16.99
15.54
13.2
10.27
7.2
4.51
2.59
1.67
1.73
2.53
3.71
4.96
6.05
6.83
7.28
7.36
7.03
6.29
5.21
3.9
2.51
1.09
-0.37
-1.94
-3.68
-5.53
-7.38
-9.06
-10.5
-11.74
-12.89
-14.06
-15.31
-16.63
-17.93
-19.07
-19.82
-19.89
-18.94
-16.71
-13.09
-8.27
-2.66
3.18
8.65
13.27
16.69
18.75
19.4
18.72
16.92
14.34
11.38
8.48
6.02
4.26
3.28
3.03
3.36
4.06
4.95
5.85
6.66
7.27
7.64
7.72
7.51
7.05
6.37
5.52
4.5
3.27
1.82
0.12
-1.78
-3.74
-5.59
-7.18
-8.47
-9.52
-10.49
-11.59
-12.95
-14.6
-16.47
-18.34
-19.89
-20.69
-20.3
-18.38
-14.8
-9.73
-3.66
2.72
8.66
13.57
17.1
19.13
19.71
18.98
17.16
14.53
11.47
8.4
5.73
3.71
2.41
1.78
1.66
1.93
2.53
3.39
4.36
5.27
5.89
6.07
5.78
5.08
4.06
2.78
1.23
-0.59
-2.62
-4.67
-6.5
-7.95
-8.99
-9.72
-10.34
-11.01
-11.82
-12.79
-13.95
-15.34
-16.96
-18.7
-20.2
-20.94
-20.37
-18.12
-14.2
-9.02
-3.22
2.52
7.68
11.96
15.25
17.51
18.67
18.68
17.52
15.34
12.45
9.33
6.47
4.28
3.01
2.71
3.26
4.4
5.8
7.13
8.1
8.55
8.49
8.05
7.39
6.69
6.01
5.31
4.48
3.4
2.02
0.39
-1.28
-2.8
-4.02
-4.95
-5.77
-6.74
-8.04
-9.74
-11.72
-13.76
-15.57
-16.83
-17.18
-16.29
-13.92
-10.05
-4.98
0.67
6.23
11.1
14.98
17.82
19.64
20.44
20.12
18.62
16.03
12.73
9.3
6.31
4.16
2.97
2.61
2.82
3.37
4.1
4.86
5.55
6.03
6.19
5.97
5.38
4.43
3.16
1.56
-0.3
-2.3
-4.23
-5.86
-7.12
-8.09
-9.04
-10.3
-12.05
-14.24
-16.61
-18.8
-20.46
-21.36
-21.34
-20.26
-17.96
-14.34
-9.44
-3.61
2.59
8.45
13.37
16.99
19.2
20.11
19.88
18.63
16.46
13.56
10.27
7.09
4.52
2.87
2.21
2.31
2.83
3.47
4.09
4.68
5.24
5.71
5.97
5.86
5.28
4.26
2.87
1.25
-0.5
-2.3
-4.11
-5.87
-7.57
-9.2
-10.82
-12.49
-14.29
-16.25
-18.32
-20.37
-22.15
-23.32
-23.46
-22.17
-19.22
-14.63
-8.72
-2.07
4.59
10.59
15.4
18.73
20.54
20.97
20.27
18.66
16.37
13.57
10.5
7.45
4.8
2.89
1.94
1.98
2.84
4.2
5.69
6.97
7.8
8.01
7.57
6.51
5.02
3.31
1.58
0.01
-1.37
-2.56
-3.62
-4.61
-5.54
-6.5
-7.57
-8.86
-10.45
-12.33
-14.4
-16.47
-18.31
-19.69
-20.38
-20.17
-18.84
-16.26
-12.43
-7.56
-2.05
3.58
8.79
13.17
16.43
18.43
19.14
18.62
16.98
14.43
11.27
7.87
4.65
2.0
0.22
-0.52
-0.22
0.93
2.55
4.2
5.45
6.05
5.96
5.35
4.47
3.49
2.51
1.44
0.23
-1.15
-2.57
-3.87
-4.93
-5.77
-6.55
-7.52
-8.83
-10.5
-12.38
-14.29
-16.05
-17.56
-18.7
-19.27
-18.9
-17.21
-14.0
-9.4
-3.93
1.66
6.65
10.64
13.52
15.44
16.52
16.76
16.05
14.29
11.65
8.57
5.67
3.53
2.5
2.58
3.49
4.8
6.11
7.15
7.79
8.01
7.84
7.33
6.47
5.3
3.86
2.22
0.53
-1.09
-2.52
-3.69
-4.63
-5.46
-6.34
-7.45
-8.9
-10.69
-12.67
-14.55
-16.02
-16.78
-16.61
-15.38
-13.06
-9.73
-5.51
-0.68
4.39
9.23
13.34
16.29
17.81
17.83
16.47
14.01
10.85
7.45
4.3
1.83
0.34
-0.1
0.31
1.2
2.15
2.9
3.35
3.61
3.85
4.11
4.28
4.14
3.53
2.43
1.03
-0.4
-1.61
-2.55
-3.32
-4.18
-5.38
-7.08
-9.31
-11.89
-14.46
-16.51
-17.5
-16.98
-14.74
-10.92
-5.93
-0.38
5.16
10.21
14.51
17.91
20.32
21.62
21.69
20.5
18.14
14.96
11.44
8.17
5.61
4.04
3.48
3.73
4.48
5.39
6.18
6.67
6.69
6.15
5.01
3.33
1.28
-0.92
-3.03
-4.92
-6.55
-7.93
-9.14
-10.26
-11.45
-12.88
-14.75
-17.11
-19.78
-22.28
-23.96
-24.16
-22.47
-18.86
-13.63
-7.31
-0.54
6.09
12.05
16.89
20.31
22.15
22.39
21.23
19.01
16.18
13.2
10.46
8.22
6.59
5.53
4.95
4.72
4.7
4.76
4.8
4.73
4.5
4.11
3.53
2.69
1.47
-0.23
-2.4
-4.88
-7.36
-9.59
-11.46
-13.03
-14.54
-16.14
-17.94
-19.92
-22.01
-24.07
-25.91
-27.18
-27.36
-25.93
-22.53
-17.18
-10.33
-2.74
4.75
11.46
16.92
20.89
23.24
23.94
23.05
20.76
17.48
13.75
10.14
7.13
5.04
3.97
3.85
4.46
5.49
6.6
7.46
7.84
7.63
6.89
5.79
4.52
3.19
1.8
0.25
-1.59
-3.74
-6.1
-8.48
-10.67
-12.55
-14.13
-15.54
-16.91
-18.32
-19.77
-21.19
-22.45
-23.31
-23.45
-22.41
-19.79
-15.36
-9.26
-2.04
5.47
12.41
18.15
22.37
25.01
26.14
25.83
24.13
21.17
17.28
13.01
9.07
6.07
4.34
3.85
4.28
5.19
6.18
7.04
7.69
8.09
8.2
7.91
7.18
6.05
4.67
3.19
1.72
0.27
-1.26
-2.94
-4.77
-6.64
-8.4
-9.96
-11.33
-12.62
-13.98
-15.49
-17.08
-18.58
-19.67
-19.98
-19.11
-16.76
-12.81
-7.42
-1.09
5.49
11.58
16.59
20.22
22.46
23.4
23.15
21.74
19.23
15.78
11.8
7.86
4.53
2.24
1.11
0.98
1.51
2.39
3.34
4.17
4.76
4.98
4.76
4.11
3.13
1.99
0.81
-0.38
-1.68
-3.21
-5.03
-7.04
-9.04
-10.78
-12.13
-13.1
-13.84
-14.55
-15.42
-16.59
-18.11
-19.91
-21.79
-23.32
-23.89
-22.92
-19.97
-15.04
-8.56
-1.29
5.84
12.02
16.74
19.76
21.11
21.01
19.73
17.62
15.01
12.22
9.55
7.22
5.36
4.03
3.21
2.86
2.92
3.3
3.9
4.59
5.18
5.52
5.49
5.06
4.29
3.26
2.02
0.61
-0.96
-2.66
-4.4
-6.0
-7.36
-8.46
-9.4
-10.42
-11.74
-13.48
-15.57
-17.69
-19.39
-20.18
-19.63
-17.52
-13.86
-8.9
-3.03
3.23
9.28
14.52
18.45
20.73
21.25
20.18
17.9
14.86
11.58
8.47
5.85
3.93
2.77
2.28
2.25
2.46
2.74
3.04
3.44
4.01
4.72
5.38
5.69
5.4
4.43
2.85
0.88
-1.22
-3.31
-5.29
-7.16
-8.92
-10.58
-12.17
-13.73
-15.3
-16.87
-18.29
-19.25
-19.33
-18.1
-15.35
-11.12
-5.79
0.03
5.72
10.78
14.88
17.91
19.77
20.41
19.77
17.88
15.01
11.62
8.25
5.41
3.38
2.18
1.68
1.66
1.96
2.47
3.14
3.83
4.32
4.38
3.84
2.67
1.01
-0.91
-2.86
-4.62
-6.1
-7.29
-8.26
-9.14
-10.09
-11.33
-13.07
-15.37
-18.09
-20.78
-22.79
-23.42
-22.16
-18.85
-13.76
-7.47
-0.69
5.86
11.65
16.31
19.66
21.61
22.18
21.42
19.51
16.73
13.46
10.16
7.28
5.15
3.89
3.39
3.41
3.68
4.0
4.33
4.7
5.1
5.45
5.52
5.09
4.01
2.26
0.03
-2.41
-4.75
-6.76
-8.35
-9.59
-10.67
-11.89
-13.48
-15.57
-18.11
-20.84
-23.36
-25.18
-25.8
-24.81
-21.97
-17.32
-11.16
-4.1
3.15
9.85
15.43
19.58
22.21
23.37
23.2
21.87
19.55
16.52
13.12
9.77
6.88
4.77
3.59
3.24
3.49
4.02
4.55
4.87
4.92
4.74
4.41
3.98
3.43
2.64
1.48
-0.13
-2.09
-4.18
-6.08
-7.56
-8.62
-9.49
-10.58
-12.22
-14.54
-17.35
-20.24
-22.72
-24.37
-24.87
-23.97
-21.49
-17.33
-11.58
-4.63
2.84
9.98
16.03
20.44
23.04
23.93
23.41
21.82
19.46
16.59
13.45
10.31
7.45
5.15
3.64
3.0
3.19
3.99
5.13
6.31
7.28
7.86
7.94
7.47
6.46
4.98
3.2
1.31
-0.49
-2.09
-3.44
-4.62
-5.71
-6.83
-8.04
-9.39
-10.93
-12.68
-14.65
-16.83
-19.09
-21.19
-22.7
-23.13
-21.99
-18.99
-14.14
-7.83
-0.74
6.37
12.78
18.02
21.81
24.05
24.78
24.09
22.14
19.19
15.6
11.83
8.33
5.51
3.6
2.69
2.65
3.26
4.21
5.23
6.08
6.63
6.8
6.56
5.92
4.94
3.68
2.24
0.69
-0.91
-2.56
-4.23
-5.85
-7.34
-8.63
-9.71
-10.68
-11.72
-13.0
-14.6
-16.49
-18.46
-20.23
-21.5
-21.98
-21.43
-19.64
-16.46
-11.88
-6.12
0.35
6.8
12.49
16.84
19.56
20.74
20.63
19.53
17.6
14.96
11.73
8.21
4.91
2.37
0.97
0.72
1.34
2.37
3.41
4.28
5.0
5.64
6.23
6.63
6.66
6.18
5.18
3.79
2.18
0.5
-1.21
-2.91
-4.6
-6.21
-7.71
-9.04
-10.24
-11.42
-12.7
-14.18
-15.88
-17.63
-19.13
-19.95
-19.65
-17.89
-14.55
-9.8
-4.05
2.08
7.95
12.99
16.81
19.24
20.25
19.94
18.45
15.97
12.74
9.12
5.6
2.69
0.82
0.18
0.64
1.83
3.28
4.61
5.62
6.24
6.51
6.42
5.89
4.83
3.25
1.32
-0.7
-2.51
-3.96
-5.07
-6.0
-6.97
-8.07
-9.33
-10.68
-12.11
-13.68
-15.44
-17.36
-19.13
-20.23
-20.03
-18.05
-14.21
-8.86
-2.73
3.38
8.78
13.13
16.3
18.35
19.27
19.04
17.64
15.17
11.95
8.47
5.26
2.71
1.03
0.16
-0.08
0.12
0.56
1.13
1.73
2.28
2.68
2.87
2.8
2.39
1.61
0.45
-1.02
-2.7
-4.44
-6.11
-7.66
-9.15
-10.69
-12.38
-14.28
-16.38
-18.54
-20.61
-22.29
-23.23
-22.99
-21.2
-17.67
-12.48
-6.11
0.75
7.3
12.86
17.04
19.8
21.27
21.64
20.97
19.23
16.46
12.9
9.09
5.72
3.39
2.33
2.37
3.01
3.75
4.32
4.7
5.03
5.39
5.71
5.74
5.23
4.06
2.35
0.34
-1.71
-3.62
-5.37
-7.02
-8.62
-10.18
-11.64
-13.0
-14.32
-15.77
-17.5
-19.5
-21.54
-23.13
-23.64
-22.52
-19.48
-14.63
-8.41
-1.5
5.37
11.57
16.63
20.27
22.36
22.89
21.99
19.92
17.02
13.7
10.38
7.45
5.23
3.89
3.41
3.64
4.3
5.07
5.73
6.22
6.56
6.8
6.9
6.7
6.01
4.74
2.97
0.92
-1.14
-3.04
-4.8
-6.48
-8.13
-9.72
-11.15
-12.37
-13.48
-14.71
-16.26
-18.15
-20.02
-21.28
-21.32
-19.68
-16.32
-11.5
-5.71
0.5
6.65
12.34
17.17
20.76
22.79
23.07
21.71
19.09
15.74
12.21
8.97
6.32
4.43
3.35
3.03
3.31
3.91
4.55
5.02
5.25
5.31
5.28
5.14
4.76
3.95
2.58
0.74
-1.36
-3.41
-5.22
-6.73
-8.03
-9.28
-10.61
-12.03
-13.54
-15.08
-16.67
-18.33
-20.02
-21.54
-22.51
-22.4
-20.75
-17.33
-12.3
-6.18
0.31
6.51
11.88
16.15
19.16
20.84
21.13
20.05
17.71
14.45
10.78
7.28
4.47
2.67
1.91
2.02
2.66
3.51
4.33
5.04
5.59
6.0
6.2
6.03
5.39
4.23
2.64
0.82
-1.0
-2.67
-4.11
-5.39
-6.59
-7.74
-8.87
-9.99
-11.16
-12.5
-14.1
-15.9
-17.61
-18.74
-18.75
-17.19
-13.95
-9.2
-3.4
2.81
8.82
14.07
18.18
20.89
22.11
21.87
20.33
17.82
14.76
11.68
9.07
7.25
6.32
6.13
6.41
6.86
7.31
7.7
8.03
8.24
8.24
7.88
7.1
5.9
4.35
2.55
0.58
-1.51
-3.68
-5.81
-7.74
-9.38
-10.78
-12.12
-13.67
-15.6
-17.8
-19.86
-21.15
-21.06
-19.22
-15.61
-10.59
-4.72
1.39
7.21
12.29
16.35
19.17
20.63
20.74
19.61
17.46
14.61
11.41
8.25
5.5
3.46
2.29
1.99
2.35
3.06
3.79
4.33
4.57
4.55
4.35
3.96
3.31
2.31
0.9
-0.85
-2.75
-4.55
-6.08
-7.38
-8.66
-10.19
-12.17
-14.6
-17.3
-19.95
-22.22
-23.82
-24.46
-23.84
-21.68
-17.86
-12.47
-5.98
0.94
7.52
13.14
17.46
20.39
21.98
22.31
21.46
19.51
16.67
13.3
9.86
6.83
4.58
3.33
3.1
3.71
4.82
6.04
6.99
7.41
7.27
6.67
5.83
4.91
3.99
2.97
1.73
0.19
-1.63
-3.58
-5.48
-7.18
-8.63
-9.88
-11.06
-12.3
-13.72
-15.41
-17.39
-19.56
-21.64
-23.15
-23.52
-22.23
-19.02
-14.05
-7.83
-1.15
5.21
10.65
14.85
17.74
19.36
19.8
19.16
17.57
15.28
12.64
10.09
7.94
6.42
5.57
5.3
5.52
6.1
6.86
7.61
8.07
8.02
7.35
6.18
4.76
3.41
2.29
1.43
0.63
-0.32
-1.58
-3.15
-4.92
-6.73
-8.44
-9.96
-11.26
-12.38
-13.39
-14.44
-15.71
-17.29
-19.12
-20.93
-22.24
-22.45
-21.07
-17.88
-13.0
-6.88
-0.25
6.17
11.72
15.96
18.67
19.86
19.67
18.39
16.36
13.97
11.6
9.56
8.03
7.07
6.57
6.36
6.29
6.27
6.31
6.44
6.7
7.01
7.21
7.11
6.57
5.59
4.23
2.69
1.14
-0.3
-1.56
-2.7
-3.82
-5.06
-6.49
-8.09
-9.72
-11.19
-12.37
-13.25
-13.98
-14.79
-15.9
-17.38
-19.07
-20.61
-21.49
-21.25
-19.52
-16.21
-11.46
-5.69
0.51
6.5
11.67
15.54
17.86
18.61
17.99
16.35
14.02
11.32
8.51
5.85
3.63
2.12
1.43
1.53
2.14
2.94
3.64
4.11
4.3
4.23
3.88
3.2
2.22
1.03
-0.16
-1.21
-2.13
-3.03
-4.08
-5.34
-6.78
-8.26
-9.66
-10.95
-12.19
-13.38
-14.51
-15.52
-16.41
-17.28
-18.25
-19.4
-20.58
-21.4
-21.34
-19.9
-16.88
-12.4
-6.92
-1.07
4.55
9.47
13.42
16.3
18.05
18.7
18.29
16.94
14.91
12.54
10.22
8.27
6.87
6.03
5.69
5.72
6.06
6.66
7.44
8.29
9.0
9.35
9.18
8.45
7.29
5.9
4.47
3.06
1.62
0.05
-1.68
-3.49
-5.24
-6.77
-8.07
-9.29
-10.67
-12.45
-14.72
-17.32
-19.9
-22.02
-23.21
-23.07
-21.42
-18.21
-13.65
-8.15
-2.29
3.27
7.94
11.31
13.21
13.69
12.94
11.26
8.96
6.42
4.04
2.22
1.24
1.2
1.98
3.24
4.6
5.72
6.44
6.79
6.87
6.83
6.71
6.44
5.91
4.97
3.61
1.93
0.12
-1.62
-3.18
-4.52
-5.72
-6.92
-8.23
-9.79
-11.64
-13.78
-16.06
-18.16
-19.66
-20.07
-18.97
-16.17
-11.74
-6.0
0.48
7.05
13.1
18.09
21.69
23.8
24.49
23.93
22.32
19.85
16.78
13.43
10.24
7.66
6.02
5.43
5.7
6.44
7.24
7.79
8.02
8.02
7.92
7.8
7.58
7.12
6.22
4.75
2.74
0.36
-2.14
-4.51
-6.58
-8.29
-9.7
-10.91
-12.09
-13.42
-15.01
-16.88
-18.91
-20.81
-22.19
-22.63
-21.75
-19.32
-15.31
-9.92
-3.55
3.2
9.7
15.32
19.6
22.27
23.29
22.81
21.13
18.6
15.62
12.57
9.82
7.66
6.28
5.71
5.86
6.5
7.32
8.02
8.42
8.49
8.33
8.04
7.69
7.17
6.34
5.07
3.36
1.39
-0.67
-2.64
-4.49
-6.26
-7.99
-9.71
-11.36
-12.92
-14.39
-15.86
