0
47.79
37.52
27.68
18.47
10.0
2.35
-4.49
-10.72
-16.72
-22.98
-29.82
-37.26
-44.96
-52.39
-59.06
-64.78
-69.8
-74.8
-80.83
-89.19
-101.07
-116.99
-136.1
-155.7
-171.25
-177.41
-169.6
-145.74
-107.32
-59.14
-7.92
39.66
78.76
107.11
124.73
133.0
133.58
127.94
117.31
103.14
87.34
72.3
60.45
53.6
52.47
56.5
64.18
73.58
82.9
90.86
96.81
100.53
101.97
101.1
97.85
92.21
84.43
75.02
64.71
54.14
43.77
33.78
24.21
15.09
6.59
-1.07
-7.78
-13.78
-19.66
-26.11
-33.58
-41.99
-50.74
-59.03
-66.32
-72.59
-78.51
-85.17
-93.82
-105.58
-121.0
-139.63
-159.5
-177.0
-187.41
-186.07
-170.03
-139.47
-97.84
-51.06
-5.64
33.13
62.34
81.38
91.08
92.77
87.56
76.53
61.03
43.18
25.83
12.05
4.31
3.74
9.83
20.63
33.47
45.86
56.13
63.63
68.48
71.03
71.4
69.32
64.34
56.34
45.78
33.78
21.87
11.35
2.9
-3.64
-9.15
-14.74
-21.3
-29.09
-37.67
-46.05
-53.18
-58.39
-61.73
-64.03
-66.74
-71.51
-79.79
-92.39
-109.11
-128.36
-147.13
-161.24
-166.19
-158.43
-136.6
-102.31
-59.84
-15.02
26.51
60.69
85.71
101.62
109.51
110.58
105.82
96.15
82.86
67.9
53.73
42.83
37.0
36.96
42.16
51.11
61.83
72.37
81.12
87.11
89.91
89.58
86.45
80.99
73.64
64.78
54.81
44.14
33.31
22.95
13.59
5.53
-1.28
-7.2
-12.84
-18.81
-25.52
-33.05
-41.15
-49.28
-56.8
-63.27
-68.61
-73.29
-78.28
-84.9
-94.49
-108.0
-125.51
-145.71
-165.69
-181.08
-186.96
-179.27
-156.26
-119.37
-73.15
-23.92
22.02
60.05
88.01
105.95
115.21
117.39
113.83
105.67
94.25
81.35
69.22
60.08
55.56
56.19
61.41
69.82
79.74
89.64
98.4
105.32
109.93
111.92
111.1
107.51
101.39
93.22
83.6
73.15
62.36
51.61
41.2
31.28
22.01
13.45
5.58
-1.78
-8.92
-16.2
-23.95
-32.2
-40.64
-48.63
-55.51
-60.88
-64.97
-68.68
-73.49
-81.02
-92.62
-108.77
-128.48
-148.98
-165.81
-173.76
-168.32
-147.36
-112.18
-67.44
-19.79
24.17
59.7
84.78
99.76
106.19
105.75
99.65
88.75
74.18
57.73
41.89
29.27
21.85
20.38
24.19
31.56
40.42
48.96
56.13
61.54
65.24
67.23
67.21
64.59
58.77
49.55
37.42
23.68
10.05
-1.86
-11.08
-17.7
-22.73
-27.62
-33.58
-41.08
-49.62
-58.05
-65.12
-70.1
-73.08
-74.95
-77.13
-81.12
-88.24
-99.25
-113.99
-131.03
-147.42
-159.01
-161.33
-151.0
-127.02
-91.43
-48.82
-4.98
34.76
66.81
89.71
103.64
109.58
108.51
101.27
88.79
72.57
54.89
38.59
26.4
20.29
20.81
27.08
37.08
48.47
59.25
68.13
74.61
78.64
80.26
79.36
75.71
69.11
59.68
48.0
35.07
22.1
10.18
-0.06
-8.59
-16.02
-23.33
-31.46
-40.83
-51.17
-61.53
-70.69
-77.7
-82.35
-85.3
-87.87
-91.74
-98.52
-109.36
-124.6
-143.28
-162.81
-179.03
-186.87
-181.75
-161.23
-126.13
-80.65
-31.17
15.63
54.7
83.5
101.91
111.23
113.12
109.0
100.01
87.44
73.01
58.94
47.5
40.54
38.96
42.59
50.26
60.23
70.59
79.77
86.8
91.37
93.62
93.83
92.12
88.41
82.48
74.33
64.32
53.22
42.04
31.71
22.79
15.33
8.89
2.72
-3.97
-11.73
-20.61
-30.0
-38.89
-46.22
-51.44
-54.84
-57.58
-61.44
-68.2
-79.23
-94.96
-114.61
-135.86
-154.93
-167.07
-167.59
-153.36
-124.06
-82.72
-35.01
12.3
53.38
84.66
105.16
115.88
118.65
115.15
106.68
94.34
79.53
64.19
50.63
40.96
36.52
37.43
42.67
50.47
58.95
66.62
72.66
76.8
79.05
79.33
77.31
72.54
64.7
53.92
40.97
27.17
14.05
2.84
-5.96
-12.77
-18.75
-25.22
-33.2
-42.86
-53.52
-63.93
-72.82
-79.49
-84.08
-87.57
-91.47
-97.44
-106.87
-120.45
-137.72
-156.73
-174.03
-185.05
-185.3
-171.66
-143.67
-103.94
-57.64
-11.02
30.31
62.63
84.58
96.62
100.15
96.68
87.54
74.1
58.17
42.23
29.1
21.29
20.12
25.35
35.27
47.38
59.32
69.48
77.2
82.42
85.17
85.16
81.81
74.64
63.77
50.17
35.53
21.71
10.0
0.71
-6.95
-14.35
-22.78
-32.79
-43.94
-54.98
-64.52
-71.62
-76.35
-79.8
-83.81
-90.41
-101.17
-116.59
-135.59
-155.33
-171.43
-179.0
-173.89
-154.13
-120.74
-77.65
-30.61
14.43
52.85
82.14
101.85
112.89
116.58
114.14
106.61
95.17
81.55
68.01
57.05
50.7
49.96
54.41
62.5
72.16
81.44
89.1
94.63
98.01
99.29
98.31
94.72
88.12
78.49
66.37
52.88
39.49
27.59
18.01
10.75
5.0
-0.54
-7.09
-15.31
-25.04
-35.34
-44.86
-52.45
-57.67
-60.96
-63.6
-67.31
-73.81
-84.36
-99.38
-117.96
-137.66
-154.52
-163.72
-160.85
-143.37
-111.81
-69.88
-23.47
21.12
58.93
87.4
106.25
116.64
120.14
118.01
111.25
100.89
88.44
75.96
65.72
59.58
58.43
61.92
68.61
76.56
83.96
89.69
93.5
95.69
96.65
96.37
94.32
89.77
82.28
72.06
60.09
47.76
36.37
26.68
18.8
12.25
6.21
-0.15
-7.45
-15.92
-25.32
-34.91
-43.76
-51.1
-56.76
-61.36
-66.2
-72.89
-82.91
-97.08
-115.25
-135.96
-156.24
-171.98
-178.63
-172.5
-152.15
-119.15
-77.91
-34.33
5.84
38.51
61.88
76.0
81.97
81.03
74.28
62.93
48.64
33.7
20.8
12.36
9.83
13.32
21.64
32.73
44.39
54.86
63.02
68.45
71.05
70.8
67.63
61.52
52.71
41.94
30.26
18.93
8.82
0.19
-7.49
-15.12
-23.46
-32.72
-42.29
-51.04
-57.84
-62.24
-64.75
-66.79
-70.31
-77.18
-88.52
-104.17
-122.3
-139.44
-151.02
-152.55
-141.01
-116.02
-80.25
-38.74
2.67
39.02
67.39
87.1
98.98
104.27
103.96
98.61
88.87
76.02
62.12
49.8
41.41
38.38
40.68
47.0
55.29
63.5
70.14
74.61
76.96
77.48
76.34
73.37
68.21
60.57
50.62
39.03
26.93
15.54
5.76
-2.07
-8.37
-14.08
-20.32
-27.89
-36.93
-46.85
-56.56
-64.88
-71.17
-75.55
-78.97
-82.94
-89.09
-98.82
-112.8
-130.54
-150.0
-167.52
-178.4
-178.0
-163.33
-134.29
-94.0
-47.99
-2.6
36.91
67.47
88.41
100.78
106.23
106.21
101.82
94.01
84.03
73.66
64.95
59.76
59.09
62.83
69.86
78.47
86.93
93.99
99.04
101.99
103.03
102.38
100.1
96.09
90.18
82.34
72.72
61.77
50.21
38.83
28.33
19.1
11.14
4.08
-2.65
-9.7
-17.5
-26.19
-35.51
-44.94
-53.78
-61.5
-67.97
-73.58
-79.3
-86.38
-96.19
-109.65
-126.7
-145.8
-163.68
-175.75
-177.2
-164.59
-137.23
-97.78
-51.66
-5.4
35.24
66.73
88.09
100.29
105.06
103.92
97.91
87.87
75.01
61.22
48.9
40.34
36.95
38.77
44.48
52.0
59.23
64.78
68.16
69.62
69.6
68.27
65.39
60.4
52.8
42.58
30.36
17.33
4.89
-5.83
-14.34
-20.95
-26.6
-32.39
-39.04
-46.59
-54.35
-61.24
-66.33
-69.31
-70.62
-71.36
-73.0
-77.01
-84.6
-96.45
-112.26
-130.27
-147.13
-158.27
-159.08
-146.45
-120.04
-82.69
-39.61
3.21
40.72
69.88
89.81
101.09
104.91
102.35
94.38
82.11
67.12
51.6
38.06
28.73
24.98
26.92
33.39
42.46
52.03
60.45
66.85
71.07
73.27
73.57
71.82
67.63
60.72
51.21
39.76
27.57
15.98
6.06
-1.72
-7.7
-12.89
-18.57
-25.76
-34.81
-45.17
-55.67
-65.02
-72.33
-77.6
-81.71
-86.22
-92.87
-103.15
-117.77
-136.24
-156.48
-174.71
-185.99
-185.35
-169.43
-137.85
-93.82
-43.36
6.51
49.83
83.13
105.75
118.9
124.48
124.09
118.82
109.68
98.05
85.87
75.37
68.43
66.02
67.95
73.04
79.67
86.28
91.78
95.67
97.94
98.76
98.12
95.77
91.15
83.74
73.42
60.76
46.97
33.6
21.99
12.76
5.6
-0.56
-7.09
-15.02
-24.58
-35.16
-45.55
-54.47
-61.18
-65.76
-69.18
-73.01
-79.02
-88.69
-102.72
-120.62
-140.34
-158.32
-169.96
-170.78
-157.78
-130.65
-92.17
-47.61
-3.15
35.76
65.66
85.41
95.64
97.75
93.21
83.28
69.24
52.77
36.06
21.53
11.27
6.48
7.07
11.89
19.25
27.48
35.38
42.24
47.63
50.98
51.61
48.88
42.68
33.63
23.09
12.68
3.61
-3.75
-9.98
-16.16
-23.29
-31.75
-41.13
-50.39
-58.33
-64.18
-67.95
-70.58
-73.72
-79.27
-88.78
-102.75
-120.1
-137.95
-152.03
-157.66
-151.05
-130.64
-97.8
-56.6
-12.67
28.36
62.27
86.91
102.08
108.7
108.12
101.59
90.35
75.92
60.31
45.88
34.9
28.95
28.49
32.87
40.61
49.94
59.27
67.35
73.33
76.54
76.43
72.65
65.21
54.67
42.18
29.16
16.92
6.19
-3.14
-11.83
-20.88
-30.96
-41.98
-53.14
-63.27
-71.48
-77.65
-82.64
-88.09
-95.91
-107.57
-123.45
-142.26
-160.88
-174.78
-179.01
-169.6
-145.08
-107.16
-60.53
-11.49
33.8
70.93
97.95
115.08
123.72
125.52
121.8
113.67
102.44
89.92
78.3
69.69
65.49
65.93
70.15
76.65
83.92
90.81
96.68
101.09
103.59
103.51
100.19
93.27
83.05
70.49
57.0
43.97
32.26
22.01
12.57
3.0
-7.51
-19.11
-31.21
-42.65
-52.34
-59.79
-65.46
-70.73
-77.44
-87.31
-101.27
-118.95
-138.34
-155.9
-167.05
-167.31
-153.69
-125.85
-86.63
-41.35
3.65
42.76
72.44
91.54
100.72
101.5
95.48
84.04
68.61
51.0
33.48
18.59
8.51
4.5
6.57
13.56
23.55
34.38
44.12
51.35
55.22
55.4
52.01
45.52
36.71
26.51
15.85
5.44
-4.37
-13.62
-22.59
-31.55
-40.51
-49.15
-56.85
-63.02
-67.43
-70.51
-73.44
-77.95
-85.74
-97.74
-113.45
-130.55
-145.11
-152.47
-148.55
-131.21
-101.04
-61.38
-17.45
25.12
61.61
89.15
106.74
114.87
114.66
107.5
94.9
78.69
61.27
45.43
33.9
28.57
29.94
36.97
47.54
59.21
69.94
78.47
84.25
87.05
86.68
82.82
75.24
64.18
50.57
35.94
22.01
10.05
0.44
-7.44
-14.85
-23.03
-32.52
-42.97
-53.24
-62.05
-68.67
-73.35
-77.33
-82.5
-90.76
-103.43
-120.62
-140.93
-161.26
-177.15
-183.54
-176.21
-153.13
-115.6
-68.14
-17.4
29.78
68.32
95.86
112.72
120.77
122.17
118.58
111.14
100.95
89.72
79.72
73.3
72.06
76.12
84.15
93.81
102.78
109.45
113.33
114.82
114.6
113.07
109.99
104.62
96.18
84.39
69.89
54.14
39.03
26.18
16.37
9.22
3.5
-2.28
-9.22
-17.45
-26.32
-34.7
-41.64
-46.81
-50.74
-54.59
-59.84
-67.95
-80.0
-96.31
-115.97
-136.6
-154.29
-164.35
-162.48
-146.27
-116.2
-75.79
-30.71
12.89
50.0
77.75
95.49
104.09
105.02
99.7
89.44
75.73
60.58
46.47
35.87
30.59
31.16
36.6
44.9
53.7
61.11
66.1
68.59
68.93
67.46
64.1
58.44
50.16
39.39
27.07
14.67
3.7
-4.89
-11.06
-15.67
-20.0
-25.18
-31.69
-39.16
-46.68
-53.15
-57.96
-61.21
-63.85
-67.34
-73.2
-82.56
-95.63
-111.49
-127.96
-141.79
-149.16
-146.52
-131.7
-104.79
-68.45
-27.38
12.99
47.91
74.54
92.08
101.22
103.26
99.41
90.67
78.22
63.82
49.93
39.2
33.75
34.42
40.59
50.39
61.39
71.35
78.75
82.95
84.04
82.53
78.96
73.67
66.75
58.17
48.07
36.94
25.64
15.14
6.25
-0.81
-6.44
-11.56
-17.18
-24.04
-32.28
-41.42
-50.52
-58.59
-64.99
-69.68
-73.29
-77.01
-82.32
-90.66
-103.0
-119.38
-138.46
-157.34
-171.76
-176.98
-169.2
-146.82
-111.34
-67.17
-20.37
23.01
58.48
84.0
99.76
107.3
108.55
105.13
98.23
88.87
78.31
68.19
60.34
56.25
56.58
60.96
68.15
76.55
84.67
91.51
96.56
99.59
100.47
99.01
95.13
88.96
80.99
71.98
62.79
54.0
45.86
38.16
30.56
22.75
14.72
6.83
-0.45
-6.8
-12.36
-17.74
-23.8
-31.19
-39.91
-49.2
-57.89
-64.98
-70.15
-74.09
-78.25
-84.41
-94.07
-107.83
-125.04
-143.44
-159.25
-167.79
-164.68
-147.26
-115.87
-74.08
-27.89
16.14
52.73
79.1
95.0
101.84
101.54
95.66
85.33
71.63
56.05
40.63
27.66
19.06
15.89
18.0
24.21
32.66
41.38
48.78
53.84
56.23
56.02
53.51
49.05
42.89
35.23
26.34
16.64
6.68
-2.91
-11.5
-18.69
-24.36
-28.68
-32.13
-35.35
-39.0
-43.55
-49.1
-55.32
-61.48
-66.81
-70.76
-73.39
-75.41
-78.08
-82.93
-91.24
-103.64
-119.61
-137.13
-152.7
-161.85
-160.18
-144.9
-115.92
-76.28
-31.41
12.44
49.99
78.09
95.97
104.49
105.18
99.49
88.69
74.12
57.58
41.36
27.98
19.51
17.15
20.8
29.24
40.45
52.18
62.47
70.06
74.49
75.88
74.64
71.13
65.53
57.9
48.39
37.48
25.94
14.76
4.81
-3.4
-9.84
-15.01
-19.72
-24.88
-31.16
-38.82
-47.55
-56.6
-64.98
-71.95
-77.29
-81.46
-85.57
-91.05
-99.3
-111.33
-127.29
-146.05
-164.94
-179.85
-185.95
-179.04
-156.97
-120.74
-74.53
-24.65
22.3
61.12
89.14
106.14
113.55
113.42
107.63
97.71
85.1
71.38
58.46
48.25
42.4
41.75
46.26
54.93
66.18
78.25
89.54
98.84
105.41
108.88
109.12
106.15
100.17
91.56
80.95
69.12
56.9
44.96
33.71
23.29
13.65
4.6
-4.04
-12.43
-20.7
-28.96
-37.27
-45.54
-53.53
-60.86
-67.13
-72.23
-76.53
-81.0
-87.06
-96.27
-109.74
-127.55
-148.19
-168.36
-183.3
-187.89
-178.11
-152.48
-112.89
-64.3
-13.39
33.37
71.26
98.09
113.88
119.91
117.78
108.9
94.6
76.55
56.96
38.51
23.81
14.79
12.21
15.5
23.11
33.02
43.31
52.61
60.22
65.87
69.43
70.59
68.83
63.66
54.99
43.4
30.14
16.86
4.98
-4.74
-12.51
-19.24
-26.19
-34.31
-43.84
-54.13
-63.92
-71.88
-77.13
-79.78
-80.98
-82.63
-86.88
-95.46
-109.03
-126.72
-145.98
-162.73
-172.2
-170.08
-153.78
-123.52
-82.46
-35.89
10.17
50.53
81.94
103.14
114.42
116.79
111.41
99.51
82.7
63.28
44.18
28.47
18.61
15.79
19.63
28.4
39.77
51.57
62.33
71.36
78.45
83.4
85.67
84.48
79.2
69.82
57.24
43.07
29.18
16.98
6.94
-1.49
-9.53
-18.44
-28.89
-40.61
-52.49
-63.02
-71.04
-76.31
-79.74
-83.17
-88.86
-98.76
-113.73
-133.04
-154.09
-172.63
-183.56
-182.16
-165.54
-133.74
-89.99
-39.96
9.78
53.5
87.49
110.46
122.95
126.49
122.77
113.27
99.51
83.27
66.85
52.81
43.45
40.15
42.92
50.48
60.77
71.62
81.4
89.25
94.95
98.44
99.54
97.77
92.64
84.03
72.51
59.31
46.07
34.22
24.49
16.63
9.57
1.9
-7.43
-18.58
-30.71
-42.3
-51.77
-58.28
-62.09
-64.54
-67.71
-73.79
-84.37
-99.99
-119.52
-139.97
-156.75
-164.53
-158.71
-137.04
-100.62
-53.84
-3.17
44.75
84.89
114.61
133.63
142.98
144.12
138.37
126.94
111.31
93.57
76.28
62.09
53.06
50.15
53.0
60.14
69.52
79.11
87.46
93.86
98.19
100.47
100.5
97.77
91.64
81.79
68.68
53.63
38.47
24.96
14.05
5.64
-1.35
-8.39
-16.59
-26.25
-36.71
-46.7
-54.95
-60.82
-64.61
-67.5
-71.23
-77.54
-87.76
-102.4
-120.77
-140.77
-158.89
-170.68
-171.82
-159.42
-133.12
-95.55
-51.7
-7.53
31.61
62.13
82.62
93.34
95.42
90.15
78.83
62.97
44.68
26.7
11.94
2.85
0.61
4.93
14.2
26.17
38.6
49.78
58.61
64.44
66.87
65.68
60.91
52.98
42.77
31.54
20.54
10.72
2.37
-4.88
-11.9
-19.55
-28.26
-37.71
-46.96
-54.86
-60.68
-64.53
-67.54
-71.5
-78.32
-89.32
-104.54
-122.36
-139.4
-151.11
-152.9
-141.48
-116.17
-79.33
-35.87
8.31
47.89
79.45
101.68
114.88
120.01
118.06
109.97
96.97
80.98
64.55
50.48
41.02
37.33
39.15
45.12
53.25
61.68
69.1
74.86
78.83
80.95
81.0
78.44
72.73
63.69
51.85
38.49
25.27
13.66
4.34
-3.04
-9.61
-16.67
-25.06
-34.73
-44.71
-53.68
-60.53
-65.08
-68.14
-71.39
-76.79
-85.99
-99.71
-117.32
-136.54
-153.53
-163.56
-162.15
-146.55
-116.86
-76.33
-30.54
14.27
52.9
82.37
102.03
112.84
116.37
114.1
107.17
96.75
84.28
71.64
60.96
54.13
52.35
55.72
63.25
73.14
83.25
91.74
97.48
100.12
99.9
97.26
92.55
85.94
77.53
67.57
56.55
45.12
33.98
23.68
14.56
6.68
-0.16
-6.42
-12.73
-19.69
-27.64
-36.4
-45.34
-53.59
-60.43
-65.75
-70.09
-74.6
-80.69
-89.7
-102.61
-119.63
-139.78
-160.48
-177.59
-186.18
-181.79
-162.19
-128.45
-84.95
-38.19
5.21
40.38
65.1
79.58
85.39
84.28
77.59
66.35
51.83
35.97
21.34
10.59
5.61
6.98
13.74
23.9
35.11
45.37
53.48
59.04
62.19
63.14
61.86
58.03
51.27
41.55
29.55
16.65
4.63
-5.0
-11.6
-15.65
-18.56
-22.04
-27.33
-34.77
-43.62
-52.58
-60.23
-65.78
-69.26
-71.56
-74.16
-78.71
-86.63
-98.7
-114.56
-132.45
-148.95
-159.56
-159.63
-145.9
-117.79
-77.98
-31.88
13.97
53.8
84.01
103.56
113.41
115.28
110.84
101.37
88.05
72.54
57.16
44.56
37.07
35.87
40.62
49.6
60.33
70.47
78.4
83.49
85.87
86.03
84.33
80.86
75.47
68.0
58.53
47.47
35.56
23.67
12.69
3.23
-4.52
-10.87
-16.53
-22.4
-29.19
-37.11
-45.82
-54.55
-62.47
-69.14
-74.65
-79.59
-84.89
-91.67
-101.08
-114.01
-130.58
-149.45
-167.47
-179.84
-181.38
-168.16
-139.18
-97.08
-47.52
2.58
47.06
81.97
106.09
120.24
126.15
125.6
120.0
110.51
98.52
85.84
74.61
66.87
63.97
66.18
72.64
81.75
91.65
100.78
108.03
112.78
114.69
113.65
109.66
103.07
94.5
84.76
74.63
64.63
54.88
45.21
35.38
25.35
15.43
6.16
-1.93
-8.63
-14.22
-19.39
-24.97
-31.53
-39.15
-47.36
-55.4
-62.63
-68.87
-74.64
-81.05
-89.51
-101.42
-117.57
-137.47
-158.92
-177.86
-189.03
-187.48
-170.19
-137.53
-93.39
-44.21
3.05
42.76
71.88
89.95
98.22
98.51
92.42
81.25
66.29
49.29
32.58
18.73
9.96
7.49
11.16
19.57
30.57
41.93
51.88
59.44
64.34
66.65
66.48
63.8
58.46
50.41
40.0
28.08
15.92
4.92
-3.94
-10.47
-15.34
-19.81
-25.15
-32.08
-40.38
-49.08
-56.86
-62.73
-66.42
-68.52
-70.34
-73.5
-79.59
-89.79
-104.45
-122.66
-141.86
-157.89
-165.81
-161.18
-141.65
-108.03
-64.37
-16.83
28.13
65.51
92.73
109.52
116.97
116.59
109.71
97.52
81.45
63.61
46.68
33.42
25.96
25.15
30.41
39.94
51.4
62.54
71.77
78.33
82.16
83.58
82.85
80.02
74.85
67.11
56.87
44.7
31.63
18.92
7.61
-1.8
-9.47
-16.12
-22.69
-29.99
-38.37
-47.62
-57.05
-65.73
-72.93
-78.4
-82.61
-86.73
-92.37
-101.25
-114.58
-132.45
-153.32
-173.79
-188.93
-193.39
-183.03
-156.39
-115.55
-65.76
-13.91
33.4
71.54
98.53
114.65
121.48
120.91
114.66
104.27
91.42
78.1
66.51
58.64
55.8
58.23
65.09
74.76
85.28
94.94
102.57
107.68
110.27
110.51
108.5
104.17
97.36
88.05
76.53
63.48
49.94
37.02
25.63
16.16
8.43
1.74
-4.85
-12.16
-20.66
-30.25
-40.42
-50.39
-59.38
-66.85
-72.76
-77.64
-82.58
-89.05
-98.64
-112.45
-130.48
-151.07
-170.62
-184.17
-186.49
-173.8
-145.19
-103.24
-53.48
-2.85
42.32
77.72
101.66
114.55
117.92
113.46
102.76
87.37
69.26
50.96
35.29
24.72
20.64
22.95
30.2
40.13
50.55
59.86
67.26
72.53
75.58
76.13
73.66
67.64
57.96
45.2
30.7
16.15
3.11
-7.6
-16.14
-23.5
-31.03
-39.69
-49.61
-59.89
-69.05
-75.74
-79.45
-80.79
-81.38
-83.29
-88.44
-98.0
-112.0
-129.08
-146.3
-159.51
-164.07
-156.13
-133.97
-98.85
-54.97
-8.25
35.29
71.17
97.08
112.78
119.2
117.64
109.38
95.78
78.67
60.51
44.14
32.15
26.26
26.79
32.73
42.16
52.94
63.2
71.82
78.21
82.21
83.54
81.82
76.56
67.59
55.45
41.45
27.39
14.93
4.89
-3.11
-10.36
-18.44
-28.3
-39.8
-51.73
-62.44
-70.59
-75.92
-79.3
-82.55
-87.82
-97.0
-111.0
-129.29
-149.52
-167.55
-178.2
-176.57
-159.67
-127.63
-84.04
-34.94
12.95
54.16
85.61
106.68
118.38
122.24
119.6
111.59
99.51
85.23
71.16
59.88
53.37
52.49
56.72
64.5
73.83
82.91
90.6
96.49
100.63
103.08
103.57
101.48
96.09
87.12
75.13
61.55
48.23
36.74
27.67
20.41
13.49
5.37
-4.81
-16.75
-29.22
-40.59
-49.61
-55.93
-60.25
-64.09
-69.33
-77.73
-90.43
-107.47
-127.36
-146.93
-161.62
-166.57
-157.95
-134.43
-97.91
-53.13
-6.46
36.06
70.15
93.98
107.86
113.24
111.76
104.7
93.11
78.26
61.97
46.65
34.7
27.93
26.88
30.81
38.02
46.59
54.98
62.23
67.9
71.59
72.71
70.49
64.36
54.34
41.32
26.85
12.67
0.04
-10.65
-19.88
-28.67
-37.94
-48.07
-58.68
-68.77
-77.2
-83.18
-86.7
-88.69
-90.8
-95.0
-102.91
-115.05
-130.38
-146.09
-157.98
-161.48
-153.01
-131.16
-97.36
-55.6
-11.37
29.88
63.92
88.49
103.11
108.5
105.88
96.59
82.14
64.46
46.02
29.62
17.9
12.57
13.92
20.88
31.36
43.02
53.85
62.54
68.39
71.02
70.16
65.64
57.6
46.7
34.17
21.52
10.04
0.38
-7.65
-14.93
-22.5
-31.06
-40.6
-50.39
-59.33
-66.52
-71.69
-75.57
-79.71
-86.09
-96.48
-111.55
-130.27
-149.55
-164.69
-170.48
-162.8
-140.04
-103.88
-58.99
-11.69
31.86
67.12
91.91
106.26
111.52
109.53
102.06
90.7
77.13
63.27
51.28
43.17
40.24
42.67
49.45
58.77
68.61
77.45
84.48
89.46
92.34
92.83
90.39
84.51
75.17
63.08
49.68
36.62
25.17
15.72
7.75
0.12
-8.24
-17.82
-28.21
-38.27
-46.75
-52.86
-56.77
-59.64
-63.26
-69.52
-79.76
-94.19
-111.55
-129.06
-142.71
-148.13
-141.75
-122.05
-90.19
-49.95
-6.61
34.46
69.21
95.57
113.26
123.14
126.37
123.96
116.89
106.33
94.04
82.24
73.22
68.7
69.24
74.09
81.55
89.55
96.39
101.12
103.6
104.11
102.89
99.78
94.32
85.99
74.78
61.34
47.02
33.44
21.83
12.64
5.32
-1.37
-8.82
-17.9
-28.55
-39.8
-50.24
-58.69
-64.73
-69.0
-72.91
-78.22
-86.52
-98.77
-115.01
-134.04
-153.3
-168.98
-176.66
-172.43
-154.26
-123.01
-82.47
-38.45
2.92
36.83
60.81
74.6
79.48
77.13
69.18
57.01
42.15
26.56
12.57
2.45
-2.14
-0.68
6.1
16.48
28.28
39.34
48.01
53.28
54.84
52.92
48.07
40.96
32.25
22.54
12.35
2.18
-7.5
-16.36
-24.25
-31.22
-37.49
-43.27
-48.69
-53.8
-58.67
-63.62
-69.31
-76.66
-86.51
-99.07
-113.27
-126.57
-135.25
-135.38
-124.14
-100.99
-68.1
-29.82
8.6
42.51
68.93
86.79
96.45
98.91
95.23
86.38
73.62
58.71
44.01
32.06
24.93
23.68
28.04
36.61
47.32
58.05
67.07
73.23
75.91
74.88
70.2
62.2
51.57
39.29
26.52
14.27
3.1
-6.97
-16.39
-25.72
-35.23
-44.75
-53.67
-61.32
-67.37
-72.04
-76.24
-81.38
-88.97
-100.14
-115.04
-132.25
-148.66
-159.83
-161.15
-149.35
-123.79
-86.98
-43.94
-0.69
37.41
66.95
86.81
97.61
100.81
97.99
90.52
79.69
67.05
54.56
44.4
38.51
37.98
42.68
51.23
61.51
71.34
79.19
84.44
87.16
87.69
86.14
82.25
75.59
65.99
53.97
40.73
27.86
16.72
7.98
1.34
-4.25
-10.1
-17.17
-25.57
-34.55
-42.8
-49.15
-53.13
-55.3
-57.14
-60.47
-66.99
-77.69
-92.52
-110.14
-127.86
-141.82
-147.64
-141.51
-121.51
-88.54
-46.45
-1.07
41.45
76.33
101.16
115.92
122.05
121.41
115.56
105.67
92.87
78.78
65.49
55.28
49.87
49.83
54.43
61.92
70.21
77.49
82.7
85.52
86.16
84.92
81.95
77.13
70.17
60.85
49.35
36.39
23.21
11.21
1.45
-5.75
-11.0
-15.64
-20.99
-27.88
-36.23
-45.16
-53.48
-60.27
-65.3
-69.08
-72.73
-77.58
-84.9
-95.65
-110.06
-127.26
-145.0
-159.7
-167.09
-163.44
-146.81
-117.96
-80.3
-38.99
0.51
33.8
58.28
73.2
79.06
77.05
68.57
55.25
39.05
22.41
8.05
-1.55
-4.8
-1.48
7.22
19.07
31.55
42.61
51.05
56.52
59.12
58.97
56.02
50.25
41.93
31.84
21.25
11.48
3.47
-2.64
-7.45
-12.04
-17.44
-24.07
-31.65
-39.23
-45.79
-50.7
-54.15
-57.22
-61.54
-68.79
-80.04
-95.2
-112.62
-129.17
-140.64
-142.77
-132.55
-109.25
-75.03
-34.44
6.81
43.49
72.02
91.01
100.85
102.89
98.67
89.53
76.73
61.77
46.61
33.53
24.73
21.65
24.55
32.34
43.02
54.25
64.06
71.27
75.47
76.79
75.5
71.75
65.52
56.78
45.75
33.04
19.68
6.93
-4.01
-12.41
-18.33
-22.6
-26.59
-31.59
-38.23
-46.23
-54.49
-61.77
-67.23
-70.93
-73.75
-77.09
-82.44
-90.96
-103.22
-118.89
-136.44
-152.87
-164.0
-165.26
-153.13
-126.5
-87.44
-40.87
6.88
49.79
83.68
106.86
119.7
123.77
120.89
112.65
100.44
85.76
70.53
56.99
47.33
43.04
44.48
50.76
60.07
70.26
79.45
86.46
90.79
92.43
91.57
88.41
83.12
75.96
67.32
57.72
47.69
37.69
27.98
18.76
10.15
2.28
-4.81
-11.23
-17.31
-23.48
-30.23
-37.74
-45.9
-54.25
-62.23
-69.35
-75.51
-81.01
-86.71
-93.79
-103.61
-117.25
-134.94
-155.4
-175.54
-190.74
-195.96
-187.25
-163.24
-125.9
-80.11
-32.26
11.5
46.72
71.35
85.34
89.88
86.52
76.78
62.28
44.97
27.42
12.56
3.13
0.83
5.79
16.51
30.39
44.64
57.11
66.72
73.28
77.06
78.25
76.72
72.14
64.33
53.61
40.96
27.88
15.93
6.26
-0.84
-6.04
-10.67
-16.14
-23.28
-32.01
-41.35
-49.98
-56.87
-61.76
-65.33
-68.89
-74.1
-82.42
-94.88
-111.61
-131.42
-151.42
-167.31
-174.11
-167.65
-146.08
-110.78
-66.15
-18.41
26.31
63.46
90.75
107.99
116.19
116.63
110.53
99.1
83.9
67.11
51.45
39.65
33.78
34.65
41.66
53.03
66.33
79.25
90.0
97.63
101.89
103.01
101.3
97.05
90.41
81.61
71.0
59.24
47.19
35.76
25.71
17.38
10.58
4.63
-1.4
-8.4
-16.84
-26.49
-36.55
-45.9
-53.65
-59.58
-64.25
-68.86
-74.88
-83.65
-96.06
-112.25
-131.18
-150.34
-165.71
-172.31
-165.63
-143.21
-105.89
-57.97
-6.11
42.73
83.19
112.52
130.56
138.71
138.86
132.66
121.52
106.85
90.52
74.87
62.3
54.86
53.56
58.16
67.2
78.46
89.6
98.75
104.89
107.8
107.78
105.26
100.53
93.68
84.77
74.06
62.1
49.66
37.57
26.54
16.97
8.91
2.06
-4.13
-10.33
-17.08
-24.63
-32.82
-41.11
-48.87
-55.68
-61.6
-67.29
-73.78
-82.28
-93.85
-109.11
-127.87
-148.78
-169.08
-184.66
-190.89
-183.91
-161.99
-126.56
-81.99
-34.42
9.95
46.53
72.99
89.02
95.44
93.48
84.3
69.39
50.85
31.57
14.87
3.7
-0.15
3.5
13.24
26.69
41.21
54.63
65.59
73.45
78.09
79.47
77.49
72.1
63.43
52.15
39.5
26.99
16.02
7.28
0.51
-5.3
-11.46
-18.92
-27.79
-37.33
-46.36
-53.81
-59.35
-63.53
-67.66
-73.39
-82.22
-95.03
-111.66
-130.56
-148.63
-161.63
-164.95
-155.08
-130.88
-94.24
-49.79
-3.56
38.73
73.05
97.6
112.38
118.38
116.75
108.6
95.21
78.44
60.85
45.44
34.91
30.96
33.78
42.04
53.41
65.33
75.71
83.44
88.28
90.51
90.39
87.87
82.58
74.19
62.87
49.53
35.62
22.7
11.89
3.42
-3.28
-9.34
-15.83
-23.38
-31.86
-40.51
-48.27
-54.22
-58.0
-60.12
-61.84
-64.95
-71.19
-81.77
-96.75
-114.76
-132.9
-147.08
-152.76
-146.16
-125.47
-91.69
-48.67
-2.17
41.66
77.94
104.03
119.59
125.92
124.89
118.18
107.1
92.96
77.4
62.62
51.0
44.41
43.62
47.99
55.83
65.0
73.65
80.64
85.58
88.5
89.45
88.23
84.38
77.45
67.32
54.49
40.14
25.81
13.01
2.63
-5.34
-11.85
-18.29
-25.89
-35.14
-45.55
-55.98
-65.14
-72.3
-77.55
-81.81
-86.48
-93.05
-102.66
-115.92
-132.49
-150.79
-167.86
-179.65
-181.88
-171.39
-147.36
-111.85
-69.41
-25.78
13.7
45.32
67.4
80.03
84.29
81.55
73.19
60.74
46.04
31.34
19.17
11.71
10.21
14.64
23.74
35.5
47.85
59.2
68.56
75.36
79.14
79.35
75.5
67.56
56.2
42.8
29.05
16.4
5.59
-3.53
-11.74
-19.95
-28.76
-38.19
-47.64
-56.22
-63.15
-68.18
-71.88
-75.52
-80.89
-89.66
-102.64
-119.17
-136.81
-151.51
-158.56
-153.87
-135.34
-103.81
-62.98
-18.49
23.72
58.91
84.48
100.05
106.71
106.08
99.67
88.8
74.85
59.67
45.58
35.01
29.78
30.53
36.52
45.86
56.26
65.73
73.08
77.95
80.55
81.18
79.89
76.43
70.38
61.56
50.28
37.49
24.57
12.93
3.51
-3.56
-8.99
-14.04
-19.93
-27.28
-35.84
-44.63
-52.38
-58.21
-62.1
-64.91
-68.14
-73.4
-82.06
-94.81
-111.37
-130.22
-148.42
-161.87
-166.04
-157.3
-134.22
-98.41
-54.27
-7.82
35.02
69.95
94.9
109.86
116.03
115.01
108.31
97.43
84.15
70.7
59.53
52.83
51.88
56.65
65.81
77.2
88.54
98.03
104.64
108.06
108.43
106.03
101.08
93.8
84.53
73.7
61.95
49.91
38.21
27.34
17.65
9.34
2.4
-3.36
-8.39
-13.25
-18.54
-24.67
-31.7
-39.35
-47.0
-54.02
-59.97
-64.93
-69.51
-74.77
-82.0
-92.38
-106.55
-124.07
-143.02
-159.94
-170.32
-169.72
-155.31
-127.02
-87.91
-43.44
0.16
37.58
65.64
83.44
91.63
91.54
84.53
71.88
55.19
36.7
19.31
6.06
-0.62
0.32
8.22
20.98
35.71
49.66
60.95
68.81
73.43
75.36
74.93
72.06
66.4
57.74
46.48
33.7
20.98
9.76
0.92
-5.53
-10.38
-14.81
-19.87
-26.07
-33.17
-40.33
-46.44
-50.71
-53.04
-54.21
-55.7
-59.2
-66.18
-77.37
-92.44
-109.85
-126.82
-139.59
-144.1
-137.03
-116.98
-85.19
-45.51
-3.42
35.48
67.0
89.11
101.79
106.29
104.05
96.33
84.23
69.13
53.08
38.72
28.66
24.76
27.42
35.56
46.92
58.88
69.25
76.64
80.64
81.5
79.72
75.74
69.86
62.22
53.01
42.55
31.41
20.31
9.92
0.75
-6.99
-13.42
-18.95
-24.17
-29.65
-35.79
-42.7
-50.12
-57.57
-64.47
-70.42
-75.45
-80.04
-85.13
-91.89
-101.42
-114.4
-130.6
-148.46
-165.0
-175.99
-176.93
-164.43
-137.53
-98.49
-52.38
-5.66
35.68
67.71
89.11
100.72
104.38
101.86
94.54
83.53
70.26
56.76
45.49
38.61
37.41
41.75
50.26
60.95
71.83
81.44
88.94
93.94
96.22
95.67
92.31
86.45
78.74
70.07
61.3
53.05
45.5
38.48
31.66
24.76
17.7
10.71
4.13
-1.78
-7.09
-12.22
-17.77
-24.26
-31.73
-39.74
-47.56
-54.66
-61.04
-67.36
-74.77
-84.52
-97.53
-114.0
-133.05
-152.48
-168.76
-177.57
-174.77
-157.9
-127.24
-86.16
-40.39
3.71
40.95
68.41
85.64
93.89
94.98
90.51
81.75
69.91
56.54
43.74
33.77
28.52
28.87
34.43
43.69
54.57
65.0
73.43
79.04
81.63
81.4
78.68
73.79
67.0
58.64
49.13
38.97
28.68
18.74
9.47
1.06
-6.42
-12.97
