0
-10.78
-14.07
-17.73
-21.82
-26.23
-30.68
-34.71
-37.72
-39.02
-38.1
-34.7
-29.03
-21.66
-13.37
-4.87
3.33
10.91
17.57
22.98
26.78
28.71
28.79
27.41
25.22
22.91
21.05
19.96
19.61
19.79
20.16
20.39
20.3
19.8
18.9
17.62
15.95
13.86
11.33
8.44
5.31
2.14
-0.93
-3.88
-6.76
-9.67
-12.71
-15.99
-19.58
-23.57
-27.9
-32.31
-36.24
-38.94
-39.71
-38.1
-34.06
-28.0
-20.57
-12.49
-4.42
3.13
9.77
15.2
19.17
21.55
22.35
21.82
20.41
18.68
17.17
16.26
16.03
16.29
16.69
16.91
16.78
16.34
15.72
15.01
14.14
12.9
11.11
8.7
5.81
2.74
-0.24
-3.04
-5.67
-8.27
-10.95
-13.72
-16.56
-19.48
-22.46
-25.41
-28.07
-29.94
-30.4
-28.98
-25.52
-20.3
-13.93
-7.09
-0.35
5.88
11.35
15.83
19.07
20.88
21.22
20.3
18.56
16.59
14.88
13.74
13.22
13.16
13.32
13.51
13.59
13.51
13.18
12.5
11.39
9.76
7.7
5.34
2.86
0.35
-2.2
-4.88
-7.82
-11.07
-14.62
-18.32
-21.93
-25.06
-27.26
-28.05
-27.06
-24.19
-19.62
-13.79
-7.28
-0.68
5.54
10.95
15.19
17.96
19.15
18.87
17.5
15.54
13.47
11.62
10.09
8.89
7.97
7.3
6.79
6.31
5.69
4.76
3.43
1.71
-0.3
-2.48
-4.76
-7.08
-9.44
-11.86
-14.45
-17.38
-20.78
-24.63
-28.58
-32.03
-34.23
-34.59
-32.83
-29.09
-23.77
-17.37
-10.37
-3.24
3.61
9.69
14.55
17.87
19.55
19.78
18.94
17.53
15.96
14.59
13.59
12.95
12.59
12.4
12.28
12.12
11.83
11.22
10.14
8.49
6.33
3.88
1.4
-0.96
-3.24
-5.61
-8.31
-11.42
-14.92
-18.67
-22.48
-26.18
-29.51
-32.07
-33.33
-32.84
-30.41
-26.15
-20.53
-14.13
-7.51
-1.12
4.74
9.75
13.62
16.11
17.19
17.03
16.04
14.72
13.51
12.64
12.14
11.89
11.71
11.45
11.05
10.52
9.91
9.26
8.5
7.54
6.21
4.39
2.04
-0.76
-3.84
-6.96
-9.9
-12.49
-14.7
-16.67
-18.67
-20.99
-23.82
-27.02
-30.1
-32.34
-33.0
-31.59
-28.03
-22.67
-16.09
-9.01
-2.05
4.21
9.36
13.12
15.38
16.22
15.93
14.93
13.66
12.49
11.66
11.24
11.2
11.39
11.64
11.8
11.76
11.47
10.96
10.23
9.27
8.04
6.5
4.64
2.51
0.23
-2.08
-4.36
-6.64
-9.04
-11.75
-14.89
-18.34
-21.78
-24.63
-26.28
-26.2
-24.2
-20.41
-15.2
-9.04
-2.38
4.37
10.82
16.54
21.05
24.01
25.28
25.01
23.59
21.53
19.29
17.21
15.45
14.08
13.06
12.33
11.76
11.19
10.47
9.46
8.12
6.44
4.43
2.14
-0.41
-3.2
-6.22
-9.43
-12.81
-16.31
-19.93
-23.61
-27.22
-30.46
-32.9
-34.0
-33.26
-30.41
-25.48
-18.88
-11.24
-3.29
4.36
11.24
17.04
21.56
24.63
26.2
26.34
25.32
23.54
21.53
19.71
18.38
17.63
17.42
17.62
18.04
18.44
18.58
18.23
17.2
15.41
12.88
9.75
6.21
2.5
-1.12
-4.46
-7.45
-10.19
-12.96
-16.06
-19.68
-23.8
-28.05
-31.8
-34.34
-35.03
-33.51
-29.78
-24.17
-17.26
-9.7
-2.1
5.08
11.54
17.12
21.68
25.07
27.18
27.95
27.48
26.05
24.12
22.19
20.66
19.71
19.28
19.14
19.01
18.67
18.04
17.11
15.88
14.27
12.16
9.48
6.25
2.69
-0.94
-4.36
-7.45
-10.19
-12.75
-15.28
-17.93
-20.79
-23.9
-27.22
-30.61
-33.78
-36.28
-37.58
-37.23
-34.97
-30.81
-25.04
-18.1
-10.55
-2.92
4.25
10.5
15.47
18.95
20.95
21.66
21.42
20.6
19.56
18.54
17.72
17.18
16.86
16.67
16.5
16.23
15.86
15.42
14.93
14.28
13.29
11.7
9.42
6.5
3.22
-0.06
-3.02
-5.53
-7.61
-9.41
-11.09
-12.81
-14.72
-16.93
-19.52
-22.41
-25.39
-28.0
-29.64
-29.68
-27.69
-23.55
-17.53
-10.22
-2.37
5.25
12.04
17.53
21.44
23.69
24.36
23.81
22.6
21.28
20.28
19.68
19.29
18.78
17.91
16.72
15.44
14.35
13.56
12.92
12.11
10.79
8.79
6.16
3.11
-0.09
-3.22
-6.21
-9.08
-11.88
-14.74
-17.74
-20.94
-24.31
-27.77
-31.06
-33.83
-35.55
-35.76
-34.09
-30.47
-25.16
-18.64
-11.53
-4.38
2.38
8.39
13.38
17.07
19.28
20.0
19.42
17.94
16.01
14.03
12.29
10.91
10.0
9.55
9.53
9.79
10.09
10.12
9.62
8.44
6.52
3.97
0.98
-2.22
-5.39
-8.4
-11.21
-13.91
-16.62
-19.49
-22.57
-25.88
-29.41
-33.1
-36.78
-40.09
-42.49
-43.35
-42.14
-38.67
-33.12
-25.96
-17.78
-9.17
-0.69
7.1
13.62
18.42
21.28
22.35
22.12
21.22
20.21
19.4
18.86
18.49
18.15
17.78
17.35
16.88
16.39
15.85
15.17
14.18
12.7
10.6
7.84
4.55
0.95
-2.78
-6.45
-9.97
-13.27
-16.36
-19.29
-22.23
-25.46
-29.2
-33.41
-37.74
-41.48
-43.82
-44.1
-42.03
-37.7
-31.47
-23.85
-15.42
-6.76
1.51
8.83
14.77
19.07
21.67
22.73
22.52
21.41
19.86
18.33
17.18
16.59
16.48
16.61
16.75
16.77
16.68
16.52
16.24
15.65
14.52
12.65
10.07
6.96
3.61
0.28
-2.9
-5.9
-8.82
-11.78
-14.92
-18.29
-21.91
-25.63
-29.13
-31.91
-33.37
-33.01
-30.51
-25.92
-19.6
-12.09
-4.0
4.1
11.8
18.68
24.38
28.48
30.71
30.97
29.5
26.86
23.81
21.07
19.15
18.22
18.15
18.64
19.33
19.9
20.11
19.76
18.68
16.86
14.35
11.35
8.11
4.87
1.74
-1.3
-4.39
-7.78
-11.67
-16.18
-21.14
-26.08
-30.22
-32.7
-32.8
-30.2
-25.06
-17.97
-9.71
-1.04
7.4
15.08
21.5
26.26
29.05
29.85
28.92
26.74
23.87
20.82
17.93
15.43
13.44
12.02
11.09
10.46
9.89
9.11
7.98
6.45
4.58
2.43
0.02
-2.68
-5.65
-8.91
-12.46
-16.39
-20.83
-25.84
-31.28
-36.63
-41.06
-43.59
-43.4
-40.1
-33.82
-25.22
-15.19
-4.75
5.25
14.15
21.51
27.07
30.68
32.33
32.17
30.52
27.93
25.01
22.35
20.32
19.03
18.35
18.04
17.89
17.7
17.34
16.61
15.35
13.4
10.73
7.44
3.76
-0.07
-3.9
-7.65
-11.34
-15.14
-19.25
-23.82
-28.84
-33.93
-38.35
-41.13
-41.36
-38.53
-32.71
-24.51
-14.86
-4.76
4.96
13.67
20.92
26.35
29.7
30.87
29.97
27.45
23.97
20.32
17.19
14.99
13.79
13.31
13.1
12.79
12.25
11.5
10.65
9.72
8.54
6.93
4.75
2.09
-0.82
-3.68
-6.41
-9.12
-12.07
-15.5
-19.56
-24.17
-29.08
-33.84
-37.85
-40.38
-40.69
-38.28
-33.07
-25.45
-16.23
-6.37
3.18
11.74
18.81
24.16
27.74
29.61
29.94
29.0
27.15
24.71
22.07
19.61
17.65
16.45
16.04
16.31
16.94
17.56
17.83
17.49
16.41
14.54
11.93
8.69
5.01
1.14
-2.68
-6.28
-9.66
-12.96
-16.41
-20.14
-24.05
-27.76
-30.58
-31.76
-30.66
-26.94
-20.77
-12.69
-3.55
5.74
14.33
21.54
26.91
30.19
31.33
30.54
28.24
25.01
21.45
18.11
15.32
13.28
12.01
11.39
11.2
11.13
10.81
9.96
8.42
6.24
3.58
0.64
-2.44
-5.64
-8.96
-12.43
-16.06
-19.94
-24.2
-28.94
-34.08
-39.15
-43.3
-45.47
-44.76
-40.74
-33.64
-24.24
-13.59
-2.71
7.56
16.62
24.0
29.33
32.38
33.15
31.94
29.39
26.28
23.32
20.99
19.43
18.52
17.98
17.56
17.13
16.59
15.84
14.76
13.14
10.83
7.81
4.27
0.52
-3.15
-6.58
-9.84
-13.16
-16.78
-20.86
-25.38
-30.15
-34.85
-39.0
-42.01
-43.23
-42.11
-38.31
-31.92
-23.39
-13.51
-3.17
6.76
15.64
23.03
28.66
32.42
34.31
34.47
33.19
30.95
28.33
25.91
24.13
23.16
22.89
23.02
23.16
23.01
22.41
21.34
19.82
17.84
15.37
12.38
8.86
4.9
0.67
-3.64
-7.83
-11.79
-15.49
-19.0
-22.45
-26.02
-29.84
-33.94
-38.12
-41.94
-44.78
-45.97
-44.93
-41.42
-35.52
-27.68
-18.58
-8.97
0.45
9.14
16.65
22.62
26.74
28.83
28.98
27.56
25.21
22.69
20.63
19.38
18.96
19.12
19.53
19.92
20.17
20.22
20.03
19.47
18.35
16.52
13.94
10.77
7.3
3.84
0.62
-2.27
-4.91
-7.41
-9.88
-12.4
-15.03
-17.92
-21.17
-24.77
-28.39
-31.41
-33.02
-32.5
-29.51
-24.19
-17.11
-9.09
-0.86
6.97
13.98
19.82
24.21
26.93
27.98
27.57
26.14
24.22
22.23
20.49
19.1
18.09
17.43
17.05
16.88
16.77
16.53
15.94
14.82
13.09
10.72
7.8
4.45
0.81
-2.96
-6.67
-10.17
-13.38
-16.32
-19.24
-22.45
-26.19
-30.4
-34.62
-38.02
-39.65
-38.83
-35.32
-29.45
-21.9
-13.46
-4.84
3.41
10.88
17.18
21.97
24.96
26.1
25.53
23.64
20.98
18.16
15.74
14.06
13.23
13.15
13.52
14.0
14.32
14.32
13.88
12.93
11.35
9.12
6.25
2.9
-0.68
-4.29
-7.75
-11.05
-14.23
-17.38
-20.61
-24.04
-27.76
-31.75
-35.8
-39.47
-42.13
-43.07
-41.78
-38.05
-32.1
-24.46
-15.83
-6.88
1.77
9.67
16.43
21.69
25.19
26.87
26.91
25.82
24.27
22.83
21.83
21.26
20.88
20.4
19.7
18.83
17.95
17.19
16.5
15.69
14.52
12.83
10.58
7.9
4.95
1.91
-1.13
-4.15
-7.19
-10.31
-13.52
-16.82
-20.2
-23.67
-27.28
-31.05
-34.76
-37.96
-40.01
-40.24
-38.25
-34.02
-27.95
-20.66
-12.82
-4.99
2.4
8.98
14.37
18.21
20.23
20.41
19.06
16.81
14.38
12.48
11.49
11.46
12.12
13.05
13.83
14.17
13.97
13.26
12.12
10.65
8.86
6.78
4.43
1.84
-0.9
-3.66
-6.33
-8.82
-11.14
-13.39
-15.69
-18.18
-20.94
-23.96
-27.14
-30.3
-33.15
-35.31
-36.36
-35.89
-33.61
-29.47
-23.69
-16.74
-9.2
-1.67
5.29
11.28
15.96
19.11
20.67
20.8
19.84
18.25
16.5
14.94
13.69
12.81
12.26
12.03
12.15
12.55
13.09
13.51
13.56
13.06
11.99
10.4
8.4
6.07
3.47
0.72
-2.01
-4.54
-6.83
-9.02
-11.45
-14.37
-17.87
-21.65
-25.11
-27.53
-28.31
-27.12
-23.96
-19.14
-13.1
-6.38
0.51
7.09
12.89
17.56
20.8
22.51
22.74
21.76
19.96
17.79
15.63
13.75
12.2
10.9
9.75
8.67
7.65
6.71
5.82
4.92
3.85
2.45
0.6
-1.73
-4.48
-7.49
-10.63
-13.78
-16.92
-20.15
-23.59
-27.31
-31.19
-34.9
-37.91
-39.64
-39.6
-37.57
-33.59
-27.93
-21.01
-13.28
-5.21
2.77
10.19
16.54
21.31
24.15
24.96
24.02
21.92
19.4
17.12
15.46
14.48
14.05
13.95
14.03
14.17
14.31
14.25
13.78
12.65
10.74
8.13
5.07
1.87
-1.2
-4.08
-6.84
-9.67
-12.76
-16.25
-20.17
-24.44
-28.84
-33.03
-36.51
-38.7
-39.05
-37.19
-33.05
-26.89
-19.24
-10.79
-2.26
5.72
12.65
18.17
22.06
24.24
24.79
23.97
22.19
19.92
17.65
15.71
14.28
13.37
12.89
12.68
12.62
12.57
12.36
11.79
10.7
9.01
6.73
3.96
0.82
-2.56
-6.05
-9.51
-12.78
-15.7
-18.26
-20.62
-23.1
-25.97
-29.28
-32.75
-35.75
-37.52
-37.44
-35.22
-30.91
-24.91
-17.73
-9.92
-1.94
5.73
12.65
18.38
22.49
24.76
25.18
24.11
22.09
19.8
17.82
16.46
15.79
15.6
15.67
15.78
15.81
15.72
15.49
15.0
14.1
12.64
10.52
7.83
4.77
1.69
-1.13
-3.58
-5.75
-7.93
-10.44
-13.44
-16.86
-20.37
-23.46
-25.65
-26.5
-25.72
-23.09
-18.62
-12.46
-5.08
2.87
10.62
17.47
22.89
26.6
28.54
28.83
27.76
25.69
23.05
20.19
17.47
15.1
13.21
11.91
11.19
10.91
10.82
10.58
9.85
8.41
6.22
3.42
0.21
-3.14
-6.44
-9.6
-12.67
-15.82
-19.26
-23.08
-27.14
-30.94
-33.82
-35.14
-34.43
-31.56
-26.66
-20.09
-12.31
-3.91
4.48
12.14
18.44
22.93
25.39
25.95
24.88
22.68
19.84
16.9
14.33
12.45
11.44
11.18
11.42
11.77
11.87
11.42
10.3
8.5
6.16
3.48
0.63
-2.27
-5.21
-8.24
-11.49
-15.05
-18.97
-23.21
-27.57
-31.71
-35.13
-37.26
-37.54
-35.57
-31.26
-24.88
-17.02
-8.47
-0.01
7.71
14.25
19.32
22.83
24.8
25.39
24.88
23.66
22.15
20.67
19.44
18.53
17.92
17.55
17.35
17.18
16.86
16.17
14.87
12.82
10.03
6.66
2.97
-0.74
-4.22
-7.4
-10.34
-13.25
-16.38
-19.95
-23.99
-28.35
-32.61
-36.25
-38.68
-39.4
-38.08
-34.64
-29.29
-22.45
-14.69
-6.59
1.29
8.54
14.76
19.66
23.0
24.7
24.87
23.87
22.22
20.42
18.88
17.79
17.14
16.81
16.62
16.45
16.19
15.74
14.94
13.65
11.82
9.48
6.8
4.01
1.32
-1.18
-3.5
-5.69
-7.9
-10.25
-12.87
-15.83
-19.09
-22.44
-25.5
-27.74
-28.55
-27.51
-24.42
-19.43
-12.92
-5.48
2.3
9.86
16.69
22.38
26.59
29.13
30.0
29.41
27.75
25.53
23.15
20.92
18.99
17.43
16.3
15.59
15.23
15.02
14.66
13.89
12.59
10.8
8.66
6.26
3.55
0.45
-3.09
-6.99
-11.05
-15.05
-18.86
-22.42
-25.65
-28.33
-30.08
-30.46
-29.09
-25.82
-20.8
-14.37
-7.04
0.64
8.09
14.77
20.22
24.08
26.19
26.54
25.31
22.9
19.88
16.86
14.46
12.97
12.44
12.55
12.87
12.99
12.61
11.61
9.96
7.69
4.89
1.7
-1.66
-4.99
-8.12
-11.01
-13.79
-16.63
-19.78
-23.42
-27.54
-31.91
-35.99
-38.99
-40.11
-38.78
-34.88
-28.8
-21.26
-13.06
-4.87
2.85
9.74
15.48
19.75
22.37
23.38
23.11
22.03
20.61
19.16
17.78
16.46
15.2
14.03
13.07
12.4
11.93
11.44
10.64
9.22
7.01
4.05
0.58
-3.16
-6.88
-10.45
-13.84
-17.11
-20.33
-23.6
-27.04
-30.75
-34.75
-38.83
-42.52
-45.14
-45.95
-44.46
-40.59
-34.66
-27.29
-19.19
-10.96
-3.08
4.07
10.1
14.69
17.62
18.88
18.75
17.73
16.37
15.17
14.41
14.14
14.19
14.34
14.36
14.12
13.59
12.79
11.71
10.26
8.33
5.8
2.69
-0.84
-4.52
-8.09
-11.36
-14.32
-17.06
-19.76
-22.58
-25.67
-29.08
-32.75
-36.44
-39.66
-41.77
-42.11
-40.2
-35.9
-29.49
-21.54
-12.76
-3.82
4.67
12.2
18.35
22.81
25.43
26.27
25.69
24.13
22.12
20.1
18.36
17.05
16.21
15.78
15.7
15.84
16.08
16.27
16.22
15.69
14.48
12.48
9.73
6.43
2.88
-0.62
-3.88
-6.91
-9.88
-13.08
-16.72
-20.87
-25.23
-29.22
-32.05
-32.92
-31.28
-26.96
-20.29
-11.92
-2.63
6.8
15.7
23.45
29.54
33.52
35.15
34.52
32.09
28.59
24.85
21.52
18.95
17.19
16.08
15.37
14.82
14.27
13.51
12.38
10.69
8.33
5.34
1.81
-2.03
-6.0
-9.98
-13.96
-18.06
-22.42
-27.21
-32.47
-38.05
-43.53
-48.17
-51.03
-51.19
-47.97
-41.17
-31.24
-19.14
-6.13
6.52
17.78
27.01
33.91
38.44
40.69
40.92
39.61
37.36
34.87
32.7
31.14
30.13
29.37
28.58
27.58
26.38
25.12
23.84
22.44
20.68
18.27
15.01
10.89
6.07
0.85
-4.39
-9.35
-13.85
-17.91
-21.8
-25.9
-30.56
-35.94
-41.79
-47.4
-51.71
-53.54
-51.96
-46.6
-37.74
-26.26
-13.35
-0.23
12.13
23.1
32.25
39.29
43.96
46.17
46.09
44.22
41.39
38.44
36.06
34.55
33.86
33.72
33.79
33.79
33.53
32.85
31.67
29.91
27.57
24.67
21.27
17.39
13.08
8.41
3.55
-1.33
-6.03
-10.46
-14.65
-18.66
-22.59
-26.48
-30.34
-34.21
-38.23
-42.55
-47.28
-52.22
-56.83
-60.15
-61.06
-58.64
-52.45
-42.81
-30.66
-17.29
-3.9
8.58
19.61
28.86
36.02
40.78
42.93
42.62
40.45
37.37
34.38
32.2
31.09
30.81
30.91
30.91
30.55
29.76
28.59
27.16
25.5
23.57
21.25
18.41
15.0
11.06
6.79
2.4
-1.88
-5.9
-9.57
-12.9
-15.94
-18.85
-21.88
-25.28
-29.22
-33.55
-37.79
-41.12
-42.58
-41.39
-37.18
-30.08
-20.66
-9.81
1.5
12.33
21.85
29.45
34.7
37.41
37.67
35.84
32.54
28.52
24.58
21.34
19.15
18.01
17.65
17.67
17.71
17.47
16.76
15.51
13.64
11.2
8.26
4.95
1.44
-2.19
-5.91
-9.77
-13.8
-18.06
-22.56
-27.35
-32.39
-37.47
-42.05
-45.34
-46.44
-44.62
-39.64
-31.81
-21.99
-11.21
-0.48
9.44
18.02
24.92
29.84
32.57
33.04
31.48
28.43
24.62
20.8
17.48
14.91
13.03
11.68
10.73
10.11
9.77
9.56
9.16
8.18
6.3
3.45
-0.19
-4.2
-8.14
-11.79
-15.16
-18.5
-22.09
-26.19
-30.88
-36.09
-41.58
-46.88
-51.29
-53.92
-53.88
-50.5
-43.62
-33.69
-21.7
-8.88
3.56
14.65
23.78
30.57
34.89
36.77
36.43
34.32
31.09
27.49
24.2
21.68
20.03
19.13
18.63
18.21
17.63
16.8
15.68
14.24
12.37
9.98
7.01
3.51
-0.36
-4.41
-8.46
-12.46
-16.47
-20.68
-25.28
-30.38
-35.93
-41.52
-46.46
-49.84
-50.76
-48.61
-43.32
-35.3
-25.42
-14.64
-3.8
6.48
15.71
23.47
29.31
32.81
33.83
32.56
29.61
25.81
21.98
18.68
16.18
14.48
13.42
12.8
12.45
12.23
12.0
11.62
10.91
9.66
7.65
4.73
0.89
-3.66
-8.55
-13.32
-17.62
-21.37
-24.73
-28.11
-31.93
-36.38
-41.26
-45.94
-49.42
-50.62
-48.72
-43.41
-35.02
-24.41
-12.69
-0.96
9.9
19.25
26.6
31.56
33.92
33.74
31.45
27.83
23.84
20.31
17.74
16.23
15.57
15.44
15.52
15.6
15.52
15.14
14.34
12.99
11.07
8.62
5.78
2.66
-0.62
-4.02
-7.63
-11.56
-15.99
-20.98
-26.38
-31.69
-36.09
-38.62
-38.42
-35.0
-28.44
-19.35
-8.74
2.25
12.59
21.52
28.56
33.51
36.28
36.9
35.48
32.32
27.91
22.96
18.18
14.18
11.26
9.42
8.39
7.81
7.32
6.63
5.53
3.86
1.52
-1.48
-5.02
-8.91
-13.02
-17.28
-21.81
-26.8
-32.39
-38.47
-44.54
-49.65
-52.64
-52.46
-48.51
-40.88
-30.36
-18.12
-5.41
6.79
17.81
27.15
34.4
39.1
40.91
39.84
36.41
31.56
26.42
21.95
18.65
16.59
15.45
14.82
14.33
13.74
12.86
11.51
9.53
6.79
3.28
-0.84
-5.3
-9.84
-14.3
-18.72
-23.35
-28.53
-34.52
-41.23
-48.03
-53.81
-57.12
-56.7
-51.82
-42.61
-29.99
-15.43
-0.53
13.3
25.09
34.27
40.57
43.94
44.59
42.98
39.81
35.95
32.2
29.11
26.89
25.41
24.4
23.56
22.75
21.91
21.0
19.87
18.22
15.76
12.29
7.85
2.72
-2.64
-7.84
-12.66
-17.18
-21.75
-26.82
-32.74
-39.51
-46.63
-53.12
-57.63
-58.86
-55.92
-48.72
-38.0
-25.12
-11.65
1.16
12.51
22.08
29.72
35.24
38.41
39.14
37.7
34.75
31.21
27.95
25.48
23.9
22.98
22.39
21.94
21.58
21.34
21.21
20.97
20.27
18.68
15.89
11.83
6.73
1.1
-4.5
-9.59
-13.96
-17.74
-21.24
-24.91
-29.05
-33.71
-38.55
-42.87
-45.67
-45.94
-42.97
-36.48
-26.84
-14.98
-2.13
10.43
21.58
30.53
36.79
40.21
40.92
39.32
36.01
31.78
27.43
23.64
20.86
19.25
18.67
18.79
19.15
19.35
19.03
18.02
16.25
13.76
10.64
7.0
2.99
-1.22
-5.42
-9.48
-13.46
-17.64
-22.43
-28.12
-34.58
-41.11
-46.54
-49.51
-48.93
-44.32
-35.96
-24.74
-11.96
1.09
13.28
23.74
31.92
37.47
40.28
40.43
38.27
34.38
29.52
24.51
20.1
16.79
14.73
13.72
13.37
13.19
12.78
11.9
10.44
8.38
5.75
2.56
-1.15
-5.31
-9.78
-14.39
-19.02
-23.71
-28.66
-34.1
-40.1
-46.35
-52.02
-55.93
-56.84
-53.85
-46.8
-36.3
-23.51
-9.75
3.81
16.35
27.24
35.99
42.06
45.14
45.22
42.81
38.81
34.3
30.15
26.88
24.6
23.17
22.36
21.92
21.66
21.37
20.82
19.76
17.96
15.28
11.73
7.46
2.75
-2.07
-6.72
-11.1
-15.28
-19.47
-23.9
-28.75
-34.11
-39.86
-45.7
-50.97
-54.76
-56.03
-53.93
-48.13
-38.98
-27.47
-14.83
-2.22
9.48
19.7
28.03
34.1
37.58
38.38
36.76
33.4
29.29
25.45
22.61
21.07
20.63
20.82
21.08
21.05
20.61
19.86
18.87
17.63
15.92
13.46
10.09
5.92
1.29
-3.35
-7.65
-11.5
-14.97
-18.28
-21.65
-25.24
-29.19
-33.54
-38.17
-42.63
-46.11
-47.62
-46.23
-41.46
-33.49
-23.12
-11.52
0.14
10.86
20.0
27.13
31.99
34.42
34.49
32.52
29.15
25.22
21.52
18.67
16.92
16.22
16.28
16.77
17.35
17.77
17.81
17.31
16.19
14.47
12.25
9.68
6.88
3.92
0.78
-2.62
-6.37
-10.55
-15.17
-20.19
-25.41
-30.48
-34.79
-37.56
-37.98
-35.47
-29.91
-21.7
-11.75
-1.19
8.9
17.7
24.76
29.85
32.93
33.96
33.04
30.37
26.41
21.76
17.14
13.14
10.16
8.3
7.42
7.26
7.43
7.52
7.16
6.06
4.06
1.18
-2.43
-6.54
-10.87
-15.16
-19.18
-22.83
-26.18
-29.47
-33.08
-37.25
-41.88
-46.39
-49.69
-50.54
-47.94
-41.54
-31.78
-19.78
-6.94
5.38
16.18
24.82
31.07
34.87
36.34
35.77
33.57
30.38
26.89
23.74
21.35
19.78
18.83
18.17
17.57
16.91
16.17
15.34
14.26
12.69
10.43
7.35
3.6
-0.58
-4.9
-9.17
-13.32
-17.43
-21.64
-26.09
-30.85
-35.82
-40.6
-44.52
-46.68
-46.28
-42.81
-36.31
-27.3
-16.64
-5.31
5.8
15.89
24.32
30.61
34.44
35.76
34.9
32.39
29.01
25.49
22.42
20.14
18.7
17.92
17.48
17.07
16.45
15.52
14.26
12.66
10.66
8.2
5.23
1.78
-2.02
-6.05
-10.16
-14.3
-18.48
-22.75
-27.16
-31.77
-36.61
-41.57
-46.3
-50.14
-52.23
-51.76
-48.23
-41.69
-32.71
-22.22
-11.29
-0.81
8.5
16.19
21.94
25.62
27.24
26.98
25.26
22.6
19.66
17.05
15.22
14.38
14.44
15.04
15.73
16.13
16.03
15.37
14.18
12.48
10.2
7.3
3.87
0.13
-3.62
-7.12
-10.28
-13.22
-16.15
-19.3
-22.82
-26.7
-30.81
-34.82
-38.25
-40.44
-40.72
-38.6
-33.96
-27.1
-18.71
-9.57
-0.44
8.09
15.57
21.63
25.9
28.15
28.33
26.69
23.79
20.36
17.12
14.62
13.11
12.53
12.63
13.01
13.36
13.43
13.09
12.3
11.02
9.24
6.97
4.25
1.25
-1.88
-4.99
-8.1
-11.31
-14.83
-18.8
-23.21
-27.77
-31.93
-34.98
-36.19
-35.0
-31.2
-24.96
-16.86
-7.72
1.59
10.31
17.87
23.89
28.07
30.23
30.27
28.34
24.86
20.53
16.11
12.26
9.37
7.47
6.37
5.75
5.35
4.94
4.37
3.46
2.05
0.02
-2.63
-5.82
-9.35
-13.04
-16.81
-20.74
-25.0
-29.76
-34.97
-40.26
-44.83
-47.71
-47.94
-44.95
-38.74
-29.87
-19.27
-8.0
3.01
13.05
21.59
28.24
32.72
34.92
34.94
33.14
30.09
26.49
22.98
20.03
17.89
16.54
15.79
15.37
15.06
14.66
14.03
13.01
11.41
9.08
5.95
2.12
-2.15
-6.53
-10.8
-14.88
-18.88
-23.05
-27.62
-32.68
-38.04
-43.13
-47.07
-48.84
-47.58
-42.87
-34.96
-24.64
-13.05
-1.33
9.61
19.13
26.8
32.29
35.4
36.16
34.9
32.24
28.98
25.82
23.2
21.27
19.96
19.07
18.44
17.98
17.63
17.32
16.88
16.07
14.68
12.53
9.58
5.99
2.02
-2.08
-6.08
-9.87
-13.43
-16.8
-20.09
-23.49
-27.23
-31.5
-36.25
-41.02
-44.93
-46.91
-46.04
-41.89
-34.72
-25.3
-14.71
-3.98
6.06
14.9
22.18
27.66
31.14
32.58
32.1
30.08
27.1
23.83
20.85
18.54
17.02
16.21
15.86
15.72
15.58
15.3
14.76
13.85
12.44
10.43
7.76
4.51
0.87
-2.91
-6.62
-10.18
-13.65
-17.2
-20.99
-25.13
-29.55
-33.97
-37.9
-40.7
-41.69
-40.34
-36.4
-30.05
-21.84
-12.57
-3.07
5.96
13.97
20.59
25.54
28.65
29.87
29.37
27.49
24.78
21.89
19.38
17.63
16.73
16.52
16.69
16.85
16.75
16.21
15.2
13.76
11.89
9.59
6.87
3.77
0.4
-3.13
-6.76
-10.56
-14.68
-19.21
-24.08
-28.88
-32.87
-35.19
-35.04
-32.04
-26.34
-18.58
-9.67
-0.52
8.21
16.07
22.78
28.03
31.44
32.69
31.67
28.7
24.48
19.92
15.82
12.62
10.34
8.68
7.25
5.77
4.14
2.41
0.61
-1.3
-3.47
-6.09
-9.29
-13.05
-17.16
-21.43
-25.74
-30.17
-34.9
-40.01
-45.23
-49.83
-52.73
-52.9
-49.66
-43.07
-33.81
-23.0
-11.81
-1.17
8.27
16.1
22.01
25.79
27.38
26.9
24.76
21.52
17.82
14.27
11.31
9.21
8.06
7.76
8.01
8.47
8.74
8.5
7.54
5.7
2.99
-0.53
-4.62
-8.96
-13.24
-17.32
-21.34
-25.65
-30.65
-36.46
-42.63
-48.2
-51.85
-52.39
-49.14
-42.13
-32.11
-20.26
-7.86
3.99
14.49
23.06
29.34
33.06
34.2
33.04
30.15
26.38
22.59
19.42
17.21
15.9
15.24
14.98
14.91
14.94
14.92
14.66
13.86
12.26
9.75
6.4
2.48
-1.69
-5.87
-9.98
-14.11
-18.47
-23.25
-28.57
-34.31
-40.02
-44.96
-48.15
-48.59
-45.56
-38.85
-28.86
-16.58
-3.36
9.41
20.55
29.26
35.15
38.17
38.6
36.89
33.69
29.79
25.99
22.94
20.96
20.04
19.89
20.1
20.35
20.41
20.18
19.52
18.26
16.24
13.4
9.88
5.94
1.86
-2.22
-6.33
-10.66
-15.44
-20.8
-26.63
-32.5
-37.58
-40.83
-41.16
-37.84
-30.8
-20.63
-8.47
4.38
16.81
27.95
37.16
43.9
47.67
48.21
45.64
40.63
34.27
27.82
22.37
18.54
16.45
15.72
15.75
15.86
15.55
14.57
12.87
10.58
7.83
4.75
1.35
-2.36
-6.43
-10.95
-16.11
-22.13
-29.03
-36.43
-43.39
-48.53
-50.38
-47.92
-40.94
-30.11
-16.74
-2.37
11.6
24.1
34.42
42.08
46.74
48.26
46.81
42.88
37.35
31.24
25.59
21.1
18.04
16.23
15.15
14.23
13.03
11.36
9.22
6.7
3.85
0.61
-3.11
-7.34
-12.03
-17.12
-22.63
-28.67
-35.3
-42.37
-49.28
-54.9
-57.87
-56.97
-51.51
-41.64
-28.31
-13.01
2.62
17.12
29.39
38.75
44.87
47.68
47.39
44.48
39.68
33.97
28.37
23.79
20.78
19.42
19.35
19.93
20.46
20.34
19.27
17.14
14.07
10.27
5.99
1.42
-3.28
-8.03
-12.81
-17.7
-22.85
-28.51
-34.84
-41.73
-48.63
-54.4
-57.55
-56.61
-50.68
-39.87
-25.36
-8.99
7.3
21.92
33.91
42.83
48.51
50.94
50.3
47.08
42.12
36.53
31.38
27.44
24.97
23.79
23.47
23.48
23.43
23.02
22.08
20.48
18.17
15.12
11.35
6.95
2.03
-3.23
-8.66
-14.05
-19.24
-24.2
-29.03
-34.01
-39.4
-45.25
-51.17
-56.18
-58.92
-58.01
-52.58
-42.68
-29.28
-13.99
1.48
15.72
27.8
37.19
43.56
46.68
46.54
43.59
38.74
33.25
28.3
24.63
22.41
21.32
20.89
20.71
20.6
20.49
20.27
19.73
18.53
16.37
13.11
8.86
3.92
-1.26
-6.23
-10.73
-14.69
-18.3
-21.91
-25.9
-30.51
-35.7
-41.0
-45.53
-48.07
-47.41
-42.7
-33.82
-21.52
-7.23
7.31
20.56
31.46
39.5
44.52
46.57
45.83
42.66
37.79
32.19
26.93
22.86
20.4
19.44
19.49
19.9
20.05
19.58
18.33
16.36
13.8
10.78
7.32
3.41
-0.99
-5.81
-10.86
-15.94
-20.92
-25.84
-30.94
-36.4
-42.11
-47.48
-51.4
-52.59
-49.94
-42.98
-32.05
-18.27
-3.24
11.38
24.23
34.38
41.4
45.24
46.12
44.43
40.73
35.73
30.26
25.11
20.93
18.02
16.33
15.53
15.16
14.82
14.21
13.18
11.61
9.38
6.37
2.51
-2.16
-7.39
-12.81
-18.02
-22.76
-27.07
-31.27
-35.82
-41.07
-46.92
-52.66
-56.99
-58.49
-55.99
-49.08
-38.25
-24.71
-9.96
4.58
17.87
29.2
38.11
44.2
47.22
47.16
44.5
40.16
35.27
30.85
27.51
25.32
24.02
23.22
22.64
22.16
21.71
21.14
20.18
18.56
16.04
12.64
8.5
3.92
-0.84
-5.56
-10.16
-14.58
-18.84
-23.01
-27.26
-31.83
-36.93
-42.56
-48.33
-53.37
-56.45
-56.35
-52.29
-44.27
-33.14
-20.24
-7.04
5.37
16.33
25.49
32.58
37.23
39.17
38.38
35.39
31.11
26.65
22.89
20.24
18.67
17.83
17.36
17.02
16.72
16.45
16.07
15.36
14.03
11.76
8.43
4.15
-0.73
-5.7
-10.27
-14.17
-17.4
-20.21
-23.0
-26.12
-29.8
-34.07
-38.77
-43.43
-47.34
-49.58
-49.26
-45.78
-39.1
-29.8
-18.85
-7.42
3.48
13.07
20.8
26.27
29.24
29.74
28.12
25.08
21.49
18.11
15.43
13.56
12.43
11.83
11.58
11.53
11.5
11.33
10.81
9.8
8.21
6.08
3.46
0.44
-2.87
-6.36
-9.93
-13.46
-16.89
-20.2
-23.43
-26.64
-29.76
-32.56
-34.57
-35.18
-33.77
-29.98
-23.9
-16.0
-7.1
2.03
10.74
18.55
25.1
29.95
32.7
33.06
31.16
27.57
23.16
18.8
15.1
12.29
10.29
8.91
7.98
7.35
6.84
6.19
5.12
3.4
0.94
-2.18
-5.77
-9.61
-13.51
-17.36
-21.21
-25.18
-29.46
-34.13
-39.0
-43.47
-46.64
-47.49
-45.27
-39.77
-31.41
-21.15
-10.13
0.55
10.06
17.83
23.54
26.98
28.11
27.07
24.24
20.28
15.98
12.12
9.19
7.37
6.45
5.98
5.46
4.53
2.98
0.82
-1.83
-4.77
-7.87
-10.99
-14.05
-17.05
-20.09
-23.37
-27.15
-31.69
-37.06
-42.99
-48.74
-53.28
-55.44
-54.35
-49.7
-41.85
-31.71
-20.4
-8.93
1.88
11.51
19.52
25.56
29.32
30.75
30.09
27.88
24.85
21.67
18.8
16.45
14.62
13.24
12.25
11.59
11.14
10.67
9.91
8.61
6.62
3.96
0.71
-2.98
-7.02
-11.37
-15.96
-20.8
-25.87
-31.21
-36.77
-42.37
-47.46
-51.19
-52.56
-50.76
-45.49
-37.14
-26.59
-14.94
-3.21
7.86
17.75
25.98
32.12
35.77
36.82
35.57
32.66
29.0
25.39
22.37
20.08
18.43
17.18
16.17
15.33
14.64
14.03
13.32
12.21
10.41
7.75
4.28
0.24
-4.01
-8.14
-11.99
-15.59
-19.17
-23.06
-27.57
-32.84
-38.64
-44.32
-48.87
-51.08
-49.96
-45.04
-36.58
-25.48
-13.02
-0.47
11.13
21.1
28.96
34.41
37.3
37.65
35.82
32.43
28.33
24.36
21.15
19.02
17.97
17.73
17.87
17.95
17.61
16.69
15.25
13.48
11.54
9.49
7.21
4.51
1.24
-2.59
-6.84
-11.34
-15.98
-20.82
-25.85
-30.85
-35.22
-38.03
-38.25
-35.16
-28.6
-19.14
-7.86
3.97
15.24
25.16
33.27
39.26
42.89
43.93
42.42
38.7
33.58
28.03
22.99
19.06
16.41
14.81
13.86
13.16
12.38
11.34
9.9
7.99
5.56
2.57
-0.96
-4.98
-9.39
-14.15
-19.28
-24.83
-30.8
-36.94
-42.59
-46.74
-48.23
-46.16
-40.26
-31.01
-19.47
-6.94
5.41
16.69
26.28
33.7
38.56
40.56
39.73
36.48
31.59
26.08
20.93
16.82
14.08
12.62
12.11
12.02
11.84
11.16
9.75
7.56
4.66
1.23
-2.56
-6.55
-10.61
-14.74
-19.04
-23.71
-28.97
-34.86
-41.03
-46.65
-50.48
-51.26
-48.05
-40.66
-29.69
