0
62.39
63.51
64.06
64.21
64.05
63.5
62.28
60.09
56.8
52.56
47.8
42.99
38.46
34.33
30.42
26.36
21.77
16.37
10.15
3.33
-3.65
-10.37
-16.58
-22.42
-28.4
-35.2
-43.47
-53.41
-64.58
-75.8
-85.37
-91.44
-92.46
-87.62
-77.09
-62.03
-44.28
-25.84
-8.42
6.84
19.44
29.29
36.51
41.3
43.92
44.79
44.53
43.9
43.61
44.18
45.78
48.22
51.08
53.82
55.94
57.1
57.11
56.03
54.02
51.28
48.01
44.29
40.17
35.66
30.81
25.69
20.38
14.98
9.54
4.11
-1.32
-6.8
-12.44
-18.33
-24.65
-31.59
-39.45
-48.45
-58.56
-69.21
-79.2
-86.74
-89.96
-87.5
-79.11
-65.73
-49.28
-31.94
-15.54
-1.15
10.92
20.73
28.45
34.13
37.76
39.53
39.9
39.6
39.41
39.9
41.18
43.02
44.93
46.47
47.39
47.73
47.61
47.12
46.23
44.81
42.72
39.93
36.57
32.81
28.78
24.51
19.84
14.7
9.03
3.0
-3.08
-8.91
-14.3
-19.28
-24.14
-29.33
-35.41
-42.86
-51.92
-62.41
-73.47
-83.66
-91.12
-94.03
-91.26
-82.66
-69.26
-52.88
-35.63
-19.27
-4.88
7.14
16.86
24.51
30.27
34.29
36.75
38.05
38.72
39.36
40.38
41.9
43.77
45.63
47.15
48.14
48.61
48.61
48.18
47.23
45.64
43.3
40.23
36.62
32.73
28.85
25.11
21.48
17.76
13.71
9.1
3.86
-1.88
-7.84
-13.74
-19.38
-24.8
-30.29
-36.32
-43.41
-51.9
-61.79
-72.48
-82.73
-90.83
-94.95
-93.69
-86.52
-74.08
-57.99
-40.39
-23.28
-8.06
4.66
14.86
22.78
28.63
32.53
34.64
35.31
35.17
34.96
35.33
36.56
38.53
40.86
43.07
44.8
45.86
46.24
45.97
45.06
43.49
41.21
38.17
34.43
30.2
25.81
21.6
17.78
14.29
10.72
6.57
1.48
-4.5
-10.89
-17.05
-22.54
-27.43
-32.26
-37.83
-44.78
-53.38
-63.3
-73.66
-83.1
-90.03
-92.83
-90.39
-82.42
-69.75
-54.07
-37.47
-21.76
-8.0
3.52
13.0
20.66
26.54
30.55
32.76
33.53
33.58
33.66
34.31
35.66
37.51
39.46
41.22
42.63
43.66
44.31
44.54
44.22
43.23
41.47
38.89
35.57
31.74
27.67
23.75
20.26
17.24
14.43
11.37
7.6
2.95
-2.38
-7.89
-13.1
-17.83
-22.28
-27.04
-32.75
-39.9
-48.53
-58.21
-68.05
-76.76
-82.87
-84.99
-82.23
-74.49
-62.55
-47.91
-32.31
-17.28
-3.83
7.57
16.8
23.86
28.77
31.66
32.85
32.93
32.68
32.83
33.83
35.7
38.12
40.54
42.48
43.62
43.94
43.59
42.79
41.62
40.03
37.82
34.83
31.1
26.93
22.72
18.83
15.35
12.08
8.63
4.7
0.24
-4.53
-9.26
-13.66
-17.71
-21.67
-26.01
-31.22
-37.63
-45.33
-54.03
-63.11
-71.51
-77.91
-80.89
-79.31
-72.63
-61.24
-46.43
-30.03
-14.05
-0.01
11.31
19.84
26.02
30.38
33.29
34.96
35.53
35.27
34.64
34.2
34.33
35.05
36.13
37.12
37.79
38.08
38.23
38.41
38.64
38.6
37.75
35.66
32.2
27.74
22.96
18.57
14.94
12.03
9.36
6.33
2.45
-2.45
-8.21
-14.39
-20.49
-26.12
-31.14
-35.72
-40.33
-45.64
-52.21
-60.32
-69.62
-79.13
-87.32
-92.52
-93.34
-89.13
-80.12
-67.35
-52.39
-36.92
-22.27
-9.28
1.76
10.85
18.09
23.53
27.19
29.2
29.86
29.79
29.67
30.1
31.39
33.47
35.9
38.14
39.71
40.39
40.21
39.49
38.47
37.31
35.92
33.98
31.21
27.52
23.18
18.7
14.62
11.23
8.47
5.89
3.0
-0.54
-4.75
-9.32
-13.92
-18.31
-22.44
-26.52
-30.89
-35.91
-41.86
-48.92
-57.07
-65.89
-74.57
-81.86
-86.28
-86.55
-81.98
-72.68
-59.69
-44.64
-29.29
-15.1
-2.91
7.05
14.95
21.02
25.44
28.26
29.63
29.89
29.61
29.47
30.04
31.57
33.83
36.36
38.56
39.99
40.53
40.34
39.72
38.89
37.86
36.44
34.34
31.45
27.95
24.29
20.95
18.2
15.89
13.57
10.7
6.96
2.36
-2.76
-7.99
-12.98
-17.58
-21.86
-26.04
-30.42
-35.47
-41.6
-49.08
-57.7
-66.63
-74.43
-79.39
-80.07
-75.71
-66.56
-53.69
-38.77
-23.54
-9.44
2.57
12.07
19.04
23.77
26.63
28.08
28.63
28.81
29.16
30.15
32.0
34.58
37.45
40.02
41.86
42.86
43.27
43.55
44.01
44.64
44.97
44.35
42.29
38.71
34.0
28.92
24.18
20.17
16.78
13.57
9.96
5.6
0.4
-5.35
-11.21
-16.74
-21.75
-26.32
-30.89
-36.05
-42.43
-50.4
-59.88
-70.2
-80.13
-87.98
-92.06
-91.15
-84.86
-73.8
-59.43
-43.54
-27.73
-13.08
-0.11
11.04
20.27
27.41
32.28
34.89
35.67
35.38
34.93
35.1
36.29
38.45
41.18
43.95
46.3
47.94
48.81
48.99
48.59
47.67
46.24
44.18
41.44
38.03
34.1
29.95
25.9
22.18
18.79
15.45
11.67
7.01
1.27
-5.33
-12.22
-18.69
-24.28
-28.97
-33.21
-37.75
-43.39
-50.65
-59.66
-70.03
-80.83
-90.64
-97.8
-100.68
-98.25
-90.38
-77.88
-62.32
-45.53
-29.04
-13.85
-0.47
10.95
20.31
27.46
32.31
34.93
35.72
35.42
34.87
34.84
35.81
37.82
40.58
43.57
46.28
48.32
49.51
49.79
49.28
48.07
46.26
43.9
40.99
37.55
33.66
29.54
25.46
21.7
18.32
15.11
11.62
7.33
1.87
-4.68
-11.87
-19.08
-25.78
-31.78
-37.3
-42.8
-48.81
-55.79
-63.95
-73.23
-83.14
-92.74
-100.65
-105.25
-105.09
-99.4
-88.36
-73.16
-55.66
-37.8
-21.13
-6.51
5.87
16.15
24.51
30.96
35.41
37.89
38.77
38.77
38.83
39.76
41.98
45.3
49.1
52.62
55.25
56.77
57.29
57.08
56.37
55.26
53.67
51.53
48.88
45.86
42.66
39.41
36.15
32.81
29.19
25.1
20.41
15.12
9.44
3.71
-1.7
-6.56
-10.94
-15.3
-20.36
-26.87
-35.31
-45.49
-56.47
-66.55
-73.65
-75.91
-72.25
-62.81
-48.93
-32.68
-16.16
-0.94
12.25
23.28
32.22
39.07
43.71
46.09
46.54
45.84
44.9
44.5
45.02
46.39
48.33
50.45
52.54
54.39
55.81
56.45
55.94
53.97
50.45
45.58
39.86
33.92
28.38
23.57
19.48
15.83
12.05
7.62
2.24
-4.02
-10.73
-17.27
-23.11
-28.06
-32.34
-36.59
-41.55
-47.91
-56.02
-65.76
-76.35
-86.49
-94.36
-98.15
-96.52
-89.08
-76.57
-60.68
-43.5
-26.83
-11.79
1.19
12.1
20.95
27.67
32.12
34.39
34.97
34.68
34.38
34.72
35.91
37.75
39.78
41.55
42.83
43.61
44.04
44.26
44.25
43.79
42.56
40.27
36.85
32.5
27.69
22.99
18.8
15.26
12.07
8.65
4.38
-1.11
-7.75
-15.01
-22.13
-28.47
-33.83
-38.6
-43.57
-49.63
-57.38
-66.83
-77.36
-87.84
-96.77
-102.63
-104.07
-100.28
-91.2
-77.66
-61.11
-43.38
-26.2
-10.85
2.02
12.27
20.14
25.99
30.19
33.05
34.91
36.11
37.05
38.08
39.41
41.03
42.8
44.5
46.04
47.39
48.58
49.47
49.78
49.09
47.05
43.65
39.26
34.53
30.14
26.47
23.53
20.86
17.9
14.15
9.47
4.01
-1.83
-7.64
-13.22
-18.67
-24.33
-30.66
-38.05
-46.62
-56.12
-65.79
-74.45
-80.61
-82.79
-79.92
-71.79
-59.12
-43.45
-26.75
-10.73
3.32
14.88
23.88
30.51
34.99
37.6
38.67
38.73
38.45
38.46
39.22
40.81
43.08
45.64
48.11
50.1
51.31
51.54
50.61
48.5
45.31
41.23
36.58
31.65
26.69
21.85
17.11
12.3
7.17
1.55
-4.56
-10.93
-17.14
-22.85
-27.96
-32.72
-37.72
-43.7
-51.24
-60.64
-71.61
-83.24
-93.99
-101.88
-104.97
-101.91
-92.49
-77.81
-59.96
-41.36
-23.94
-8.8
3.84
14.24
22.7
29.31
34.09
37.16
38.9
39.98
41.09
42.61
44.58
46.7
48.61
50.03
50.93
51.4
51.53
51.31
50.51
48.84
46.1
42.31
37.73
32.76
27.78
23.01
18.35
13.61
8.55
3.1
-2.62
-8.38
-13.99
-19.44
-24.9
-30.73
-37.34
-45.11
-54.32
-64.86
-76.09
-86.78
-95.18
-99.48
-98.34
-91.32
-79.09
-63.22
-45.71
-28.36
-12.45
1.36
12.9
22.22
29.44
34.72
38.31
40.57
41.97
43.0
44.09
45.49
47.26
49.23
51.09
52.52
53.29
53.34
52.73
51.57
49.85
47.44
44.19
40.12
35.52
30.89
26.77
23.38
20.55
17.75
14.41
10.14
4.91
-1.02
-7.22
-13.33
-19.15
-24.75
-30.49
-36.88
-44.53
-53.81
-64.57
-75.94
-86.31
-93.75
-96.45
-93.37
-84.49
-70.85
-54.17
-36.4
-19.24
-3.86
9.13
19.61
27.71
33.64
37.66
40.08
41.36
42.05
42.74
43.83
45.47
47.55
49.76
51.85
53.61
54.9
55.6
55.46
54.29
51.97
48.58
44.45
39.96
35.46
31.08
26.8
22.48
17.92
13.0
7.66
1.97
-3.87
-9.67
-15.19
-20.44
-25.68
-31.38
-38.18
-46.54
-56.52
-67.6
-78.54
-87.57
-92.77
-92.54
-86.15
-74.06
-57.83
-39.64
-21.69
-5.56
7.97
18.8
27.15
33.23
37.15
39.07
39.39
38.8
38.17
38.22
39.31
41.31
43.74
46.04
47.73
48.59
48.54
47.59
45.74
43.0
39.42
35.15
30.45
25.6
20.79
16.01
11.12
5.93
0.29
-5.7
-11.83
-17.83
-23.59
-29.17
-34.86
-41.02
-48.01
-56.16
-65.56
-76.03
-86.89
-96.91
-104.32
-107.28
-104.35
-95.16
-80.6
-62.6
-43.62
-25.75
-10.29
2.47
12.85
21.39
28.41
33.91
37.84
40.3
41.71
42.71
43.89
45.49
47.44
49.42
51.19
52.71
54.1
55.48
56.69
57.31
56.75
54.57
50.68
45.41
39.39
33.32
27.69
22.68
18.13
13.65
8.9
3.66
-2.01
-7.9
-13.74
-19.45
-25.13
-31.09
-37.76
-45.51
-54.62
-65.06
-76.39
-87.59
-97.1
-103.03
-103.75
-98.39
-87.29
-71.87
-54.2
-36.37
-19.87
-5.41
6.91
17.26
25.78
32.47
37.31
40.44
42.25
43.4
44.58
46.31
48.76
51.67
54.56
56.96
58.55
59.31
59.43
59.08
58.25
56.72
54.18
50.52
45.92
40.89
35.94
31.42
27.28
23.13
18.52
13.11
6.93
0.31
-6.27
-12.41
-17.94
-23.01
-28.03
-33.52
-39.98
-47.77
-57.02
-67.45
-78.39
-88.63
-96.57
-100.49
-99.02
-91.65
-78.97
-62.58
-44.6
-26.98
-11.02
2.79
14.5
24.28
32.14
37.92
41.56
43.36
44.04
44.5
45.49
47.27
49.64
52.09
54.19
55.7
56.61
56.98
56.81
55.93
54.14
51.29
47.39
42.66
37.41
32.01
26.76
21.74
16.87
11.94
6.7
1.07
-4.89
-10.93
-16.79
-22.41
-27.96
-33.81
-40.42
-48.22
-57.42
-67.93
-79.19
-90.07
-98.92
-103.95
-103.61
-97.21
-85.24
-69.22
-51.29
-33.43
-17.03
-2.65
9.7
20.22
29.0
35.9
40.8
43.8
45.38
46.22
47.06
48.36
50.17
52.28
54.32
56.04
57.36
58.34
59.06
59.45
59.28
58.18
55.85
52.13
47.16
41.3
35.11
29.12
23.74
19.06
14.8
10.5
5.62
-0.11
-6.61
-13.47
-20.13
-26.23
-31.83
-37.38
-43.57
-51.03
-60.1
-70.62
-81.99
-93.17
-102.72
-109.02
-110.56
-106.36
-96.4
-81.68
-64.06
-45.65
-28.21
-12.77
0.42
11.53
20.75
28.07
33.31
36.43
37.79
38.12
38.39
39.36
41.37
44.19
47.23
49.83
51.53
52.25
52.18
51.65
50.91
49.95
48.54
46.3
42.93
38.43
33.13
27.63
22.55
18.23
14.59
11.16
7.3
2.59
-3.03
-9.2
-15.43
-21.27
-26.66
-31.81
-37.23
-43.41
-50.71
-59.33
-69.2
-79.91
-90.55
-99.73
-105.64
-106.63
-101.66
-90.86
-75.52
-57.72
-39.65
-22.95
-8.39
4.01
14.45
23.12
29.89
34.59
37.25
38.3
38.6
39.05
40.27
42.45
45.34
48.49
51.53
54.32
56.76
58.75
59.99
60.07
58.64
55.62
51.25
46.02
40.46
34.99
29.8
24.86
19.99
14.96
9.55
3.66
-2.7
-9.32
-15.88
-22.13
-27.97
-33.62
-39.62
-46.62
-55.19
-65.42
-76.68
-87.61
-96.26
-100.65
-99.29
-91.74
-78.8
-62.27
-44.37
-27.03
-11.53
1.65
12.52
21.27
28.04
32.9
36.06
37.92
39.09
40.18
41.69
43.79
46.36
49.1
51.64
53.64
54.94
55.5
55.42
54.78
53.6
51.72
48.86
44.87
39.82
34.11
28.32
22.92
18.08
13.61
9.03
3.95
-1.81
-8.12
-14.67
-21.07
-27.13
-32.85
-38.56
-44.79
-52.17
-61.29
-72.35
-84.86
-97.54
-108.49
-115.55
-116.99
-112.0
-100.98
-85.37
-67.17
-48.38
-30.49
-14.27
0.1
12.7
23.56
32.55
39.45
44.2
47.13
48.85
50.18
51.75
53.82
56.23
58.63
60.65
62.13
63.08
63.62
63.82
63.57
62.66
60.8
57.77
53.53
48.23
42.29
36.27
30.7
25.86
21.71
17.86
13.8
9.1
3.64
-2.38
-8.62
-14.76
-20.72
-26.62
-32.81
-39.74
-47.82
-57.34
-68.34
-80.44
-92.61
-103.26
-110.47
-112.48
-108.24
-97.79
-82.24
-63.52
-43.72
-24.62
-7.42
7.31
19.38
28.87
35.88
40.66
43.59
45.2
46.12
46.96
48.23
50.16
52.77
55.78
58.82
61.48
63.47
64.65
64.98
64.44
62.93
60.37
56.71
52.1
46.88
41.46
36.14
30.96
25.74
20.18
14.09
7.52
0.74
-5.88
-12.03
-17.6
-22.77
-27.99
-33.96
-41.41
-50.85
-62.24
-74.8
-86.97
-96.63
-101.77
-100.86
-93.42
-80.13
-62.58
-42.89
-23.14
-4.94
10.7
23.39
33.12
40.12
44.69
47.23
48.29
48.53
48.66
49.2
50.37
52.03
53.8
55.28
56.31
56.89
57.2
57.33
57.17
56.42
54.69
51.67
47.38
42.19
36.69
31.52
27.07
23.33
19.93
16.27
11.87
6.54
0.47
-5.94
-12.34
-18.57
-24.73
-31.07
-37.91
-45.51
-54.09
-63.73
-74.2
-84.69
-93.75
-99.42
-99.75
-93.58
-80.96
-63.29
-42.85
-22.09
-2.96
13.41
26.59
36.64
43.65
47.81
49.37
48.87
47.12
45.03
43.36
42.53
42.51
42.98
43.51
43.76
43.55
42.91
41.97
40.86
39.65
38.27
36.56
34.31
31.3
27.52
23.11
18.48
14.0
9.99
6.45
3.12
-0.42
-4.55
-9.4
-14.84
-20.49
-25.98
-31.06
-35.77
-40.46
-45.63
-51.77
-59.26
-68.17
-78.15
-88.36
-97.41
-103.65
-105.43
-101.7
-92.34
-78.31
-61.36
-43.47
-26.38
-11.13
1.84
12.55
21.07
27.47
31.79
34.24
35.23
35.37
35.3
35.52
36.28
37.6
39.36
41.35
43.33
45.13
46.57
47.48
47.74
47.23
45.8
43.33
39.87
35.67
31.18
26.92
23.18
19.94
16.78
13.16
8.7
3.38
-2.41
-8.11
-13.29
-17.85
-22.09
-26.51
-31.71
-38.11
-45.9
-54.79
-63.98
-72.13
-77.57
-78.67
-74.43
-64.83
-50.98
-34.72
-18.17
-2.98
9.86
20.11
27.91
33.53
37.13
38.81
38.81
37.57
35.84
34.41
33.85
34.35
35.67
37.3
38.71
39.53
39.66
39.2
38.26
36.85
34.92
32.34
29.07
25.23
21.03
16.71
12.42
8.08
3.49
-1.53
-7.02
-12.85
-18.67
-24.11
-28.98
-33.36
-37.58
-42.21
-47.88
-55.09
-63.96
-74.0
-84.05
-92.33
-96.85
-96.01
-89.09
-76.62
-60.2
-42.06
-24.3
-8.47
4.75
15.35
23.64
30.04
34.8
38.12
40.28
41.68
42.92
44.64
47.27
50.83
54.91
58.75
61.53
62.73
62.21
60.18
56.96
52.79
47.66
41.42
34.01
25.7
17.08
8.92
1.93
-3.57
-7.75
-11.16
-14.49
-18.29
-22.77
-27.8
-33.08
-38.31
-43.49
-48.86
-54.86
-61.9
-70.18
-79.63
-89.82
-100.01
-109.09
-115.64
-118.23
-115.75
-107.89
-95.3
-79.5
-62.36
-45.53
-30.01
-16.2
-4.15
6.1
14.33
20.29
23.93
25.69
26.37
26.92
28.1
30.26
33.27
36.69
39.97
42.64
44.48
45.47
45.75
45.45
44.61
43.15
40.94
38.02
34.64
31.25
28.29
25.96
24.08
22.19
19.65
16.02
11.24
5.63
-0.25
-5.78
-10.61
-14.78
-18.67
-22.95
-28.3
-35.23
-43.92
-54.06
-64.85
-74.97
-82.78
-86.59
-85.09
-77.79
-65.26
-49.01
-31.12
-13.62
2.04
15.14
25.6
33.63
39.47
43.25
45.19
45.66
45.28
44.79
44.84
45.75
47.5
49.77
52.08
54.04
55.33
55.78
55.27
53.73
51.13
47.57
43.25
38.51
33.72
29.16
24.89
20.76
16.4
11.48
5.84
-0.38
-6.78
-12.91
-18.51
-23.68
-28.84
-34.65
-41.67
-50.18
-60.06
-70.69
-80.98
-89.46
-94.51
-94.72
-89.37
-78.64
-63.77
-46.63
-29.27
-13.24
0.61
12.09
21.4
28.74
34.16
37.73
39.61
40.3
40.51
40.98
42.17
44.12
46.46
48.68
50.37
51.36
51.78
51.83
51.61
51.02
49.77
47.52
44.14
39.76
34.81
29.78
25.1
20.9
17.01
13.05
8.69
3.7
-1.86
-7.71
-13.48
-18.9
-23.97
-28.95
-34.36
-40.81
-48.79
-58.46
-69.4
-80.53
-90.17
-96.43
-97.69
-93.12
-82.99
-68.58
-51.85
-34.73
-18.78
-4.77
7.04
16.73
24.4
30.03
33.69
35.59
36.33
36.71
37.52
39.25
41.89
44.99
47.9
50.08
51.32
51.77
51.72
51.44
51.0
50.24
48.86
46.65
43.55
39.72
35.47
31.19
27.15
23.44
19.88
16.11
11.76
6.67
0.99
-4.89
-10.54
-15.72
-20.52
-25.31
-30.54
-36.62
-43.79
-52.13
-61.51
-71.44
-80.92
-88.46
-92.33
-91.12
-84.3
-72.46
-57.16
-40.38
-23.94
-9.06
3.69
14.23
22.68
29.14
33.67
36.41
37.68
38.03
38.12
38.53
39.61
41.38
43.56
45.78
47.74
49.3
50.39
50.92
50.7
49.4
46.86
43.09
38.48
33.55
28.87
24.73
21.18
17.94
14.64
10.93
6.63
1.76
-3.49
-8.84
-14.15
-19.39
-24.82
-30.84
-37.88
-46.2
-55.69
-65.75
-75.24
-82.65
-86.4
-85.29
-78.84
-67.55
-52.78
-36.32
-19.89
-4.74
8.45
19.43
28.05
34.18
37.78
39.01
38.47
37.09
35.9
35.67
36.7
38.79
41.39
43.9
45.8
46.88
47.11
46.64
45.63
44.16
42.17
39.52
36.11
31.95
27.27
22.45
17.84
13.61
9.61
5.54
1.05
-4.05
-9.64
-15.39
-20.91
-25.94
-30.51
-34.93
-39.76
-45.59
-52.95
-62.01
-72.42
-83.17
-92.65
-99.03
-100.67
-96.67
-87.16
-73.32
-56.96
-39.99
-23.98
-9.85
2.06
11.8
19.55
25.53
29.87
32.78
34.56
35.69
36.72
38.13
40.13
42.57
45.03
47.04
48.29
48.8
48.86
48.74
48.55
48.11
47.06
45.1
42.16
38.4
34.22
29.98
26.0
22.34
18.94
15.57
11.94
7.74
2.78
-2.93
-9.15
-15.48
-21.48
-26.94
-31.96
-36.9
-42.32
-48.74
-56.56
-65.85
-76.25
-86.84
-96.15
-102.41
-103.95
-99.76
-89.92
-75.57
-58.64
-41.21
-24.92
-10.71
1.2
10.95
18.74
24.67
28.78
31.29
32.62
33.47
34.52
36.24
38.69
41.5
44.13
46.16
47.41
48.09
48.56
49.07
49.61
49.89
49.45
47.94
45.21
41.48
37.18
32.83
28.84
25.38
22.29
19.16
15.55
11.15
5.97
0.31
-5.37
-10.73
-15.65
-20.37
-25.33
-31.03
-37.9
-46.13
-55.66
-65.94
-75.95
-84.2
-89.01
-88.98
-83.47
-72.9
-58.64
-42.55
-26.47
-11.64
1.33
12.37
21.56
28.95
34.46
38.08
40.02
40.76
41.01
41.45
42.49
44.17
46.16
48.0
49.3
49.89
49.89
49.5
48.85
47.83
46.17
43.55
39.82
35.17
30.05
25.04
20.58
16.84
13.53
10.15
6.19
1.32
-4.35
-10.45
-16.42
-21.82
-26.6
-31.03
-35.7
-41.22
-48.11
-56.56
-66.36
-76.82
-86.7
-94.36
-98.06
-96.5
-89.22
-76.86
-61.02
-43.7
-26.77
-11.46
1.75
12.91
22.23
29.83
35.63
39.55
41.74
42.65
42.98
43.46
44.58
46.42
48.65
50.74
52.19
52.73
52.41
51.51
50.35
49.13
47.79
46.05
43.54
40.06
35.7
30.88
26.2
22.06
18.53
15.24
11.59
7.08
1.61
-4.56
-10.9
-16.87
-22.19
-26.89
-31.3
-35.89
-41.18
-47.65
-55.64
-65.17
-75.75
-86.35
-95.39
-101.13
-102.06
-97.43
-87.46
-73.36
-56.98
-40.23
-24.66
-11.04
0.52
10.34
18.69
25.59
30.85
34.29
35.98
36.4
36.34
36.57
37.59
39.48
41.94
44.5
46.7
48.27
49.14
49.45
49.31
48.86
48.08
46.79
44.84
42.18
38.94
35.43
31.94
28.64
25.45
22.05
18.16
13.57
8.32
2.65
-3.15
-8.83
-14.26
-19.4
-24.3
-29.12
-34.12
-39.68
-46.29
-54.26
-63.52
-73.45
-82.79
-89.93
-93.21
-91.52
-84.59
-73.13
-58.6
-42.83
-27.43
-13.47
-1.34
9.02
17.81
25.11
30.78
34.67
36.86
37.74
38.01
38.36
39.23
40.66
42.37
43.98
45.26
46.17
46.8
47.26
47.49
47.29
46.32
44.29
41.13
37.01
32.33
27.63
23.31
19.58
16.31
13.13
9.54
5.2
-0.04
-6.02
-12.38
-18.71
-24.75
-30.4
-35.85
-41.5
-47.89
-55.52
-64.64
-74.99
-85.69
-95.23
-101.8
-103.73
-100.04
-90.8
-77.04
-60.49
-43.06
-26.34
-11.32
1.54
12.22
20.81
27.45
32.23
35.29
36.91
37.59
38.02
38.9
40.66
43.4
46.75
50.1
52.86
54.68
55.54
55.6
55.07
54.04
52.45
50.21
47.26
43.63
39.49
35.0
30.37
25.79
21.44
17.37
13.44
9.32
4.64
-0.87
-7.19
-14.04
-21.01
-27.73
-34.1
-40.31
-46.74
-53.85
-62.1
-71.79
-82.88
-94.83
-106.46
-116.04
-121.65
-121.72
-115.56
-103.6
-87.31
-68.68
-49.69
-31.79
-15.76
-1.84
10.02
19.93
27.91
33.96
38.23
41.08
43.05
44.78
46.73
49.13
51.89
54.69
57.19
59.15
60.54
61.46
62.06
62.34
62.14
61.2
59.25
56.21
52.2
47.51
42.56
37.61
32.84
28.21
23.63
18.93
13.97
8.65
2.91
-3.16
-9.43
-15.71
-21.83
-27.8
-33.78
-40.13
-47.28
-55.65
-65.56
-77.01
-89.57
-102.13
-113.05
-120.32
-122.14
-117.47
-106.41
-90.19
-70.78
-50.3
-30.44
-12.26
3.74
17.4
28.67
37.51
43.95
48.15
50.63
52.12
53.46
55.38
58.23
61.91
65.94
69.68
72.58
74.37
75.06
74.82
73.8
71.98
69.27
65.59
61.02
55.79
50.24
44.73
39.51
34.66
30.06
25.45
20.43
14.72
8.17
0.93
-6.58
-13.88
-20.64
-26.95
-33.25
-40.28
-48.74
-59.05
-71.16
-84.35
-97.33
-108.3
-115.32
-116.66
-111.38
-99.64
-82.7
-62.67
-41.88
-22.25
-4.94
9.65
21.63
31.25
38.72
44.14
47.64
49.61
50.63
51.43
52.67
54.68
57.42
60.49
63.31
65.39
66.42
66.44
65.68
64.4
62.77
60.73
58.1
54.71
50.59
45.93
41.07
36.29
31.74
27.41
23.12
18.61
13.64
8.01
1.69
-5.14
-12.17
-18.95
-25.23
-31.02
-36.64
-42.7
-49.79
-58.45
-68.87
-80.84
-93.64
-105.92
-115.84
-121.39
-120.98
-114.0
-101.09
-83.96
-64.85
-45.86
-28.38
-12.96
0.49
12.35
22.95
32.32
40.34
46.78
51.59
54.98
57.42
59.48
61.63
64.12
66.87
69.61
71.99
73.74
74.74
74.94
74.33
72.85
70.45
67.17
63.16
58.65
53.87
49.06
44.27
39.5
34.71
29.77
24.58
19.05
13.1
6.65
-0.29
-7.67
-15.33
-23.04
-30.57
-37.76
-44.66
-51.54
-58.9
-67.3
-77.13
-88.42
-100.57
-112.3
-121.81
-127.1
-126.55
-119.34
-105.81
-87.41
-66.25
-44.62
-24.34
-6.55
8.34
20.35
29.62
36.32
40.69
43.17
44.52
45.72
47.63
50.73
54.92
59.59
63.91
67.18
69.1
69.82
69.74
69.24
68.47
67.28
65.35
62.44
58.49
53.8
48.8
43.94
39.45
35.33
31.31
27.06
22.27
16.84
10.86
4.54
-1.9
-8.31
-14.7
-21.14
-27.74
-34.52
-41.52
-48.8
-56.62
-65.31
-75.09
-85.69
-96.14
-104.78
-109.63
-109.02
-102.16
-89.44
-72.3
-52.72
-32.67
-13.65
3.42
18.05
29.98
39.03
45.12
48.44
49.57
49.5
49.31
49.87
51.57
54.25
57.34
60.24
62.49
63.97
64.72
64.87
64.47
63.43
61.52
58.59
54.58
49.62
44.07
38.4
33.01
28.05
23.34
18.41
12.72
6.0
-1.57
-9.49
-17.14
-24.13
-30.5
-36.66
-43.14
-50.48
-59.05
-69.01
-80.27
-92.24
-103.72
-112.93
-117.84
-116.81
-109.23
-95.74
-78.12
-58.69
-39.55
-22.04
-6.71
6.56
18.0
27.72
35.59
41.41
45.12
47.08
48.02
48.88
50.39
52.78
55.71
58.51
60.48
61.31
61.14
60.39
59.48
58.54
57.37
55.52
52.64
48.6
43.62
38.11
32.54
27.25
22.41
17.95
13.62
9.1
4.12
-1.49
-7.64
-14.11
-20.58
-26.82
-32.76
-38.54
-44.49
-51.11
-58.97
-68.49
-79.7
-92.0
-103.99
-113.73
-119.12
-118.54
-111.42
-98.42
-81.22
-62.0
-42.78
-24.95
-9.22
4.3
15.63
24.78
31.66
36.28
38.99
40.56
41.97
44.02
47.09
50.89
54.72
57.88
59.92
60.86
61.05
60.89
60.58
60.09
59.18
57.5
54.83
51.04
46.25
40.75
35.04
29.62
24.83
20.77
17.15
13.51
9.35
4.4
-1.28
-7.42
-13.64
-19.64
-25.28
-30.64
-35.9
-41.4
-47.54
-54.75
-63.34
-73.29
-84.0
-94.18
-102.03
-105.62
-103.53
-95.29
-81.64
-64.33
-45.55
-27.27
-10.82
3.25
15.0
24.63
32.25
37.82
41.32
42.94
43.28
43.17
43.48
44.75
47.01
49.88
52.8
55.3
57.15
58.33
58.85
58.58
57.3
54.84
51.15
46.57
41.55
36.6
32.07
27.98
24.13
20.12
15.57
10.18
3.89
-3.11
-10.44
-17.53
-23.97
-29.62
-34.69
-39.72
-45.45
-52.6
-61.61
-72.43
-84.36
-95.97
-105.26
-110.15
-109.09
-101.59
-88.42
-71.4
-52.72
-34.36
-17.64
-3.17
8.96
18.82
26.55
32.26
36.15
38.57
40.08
41.28
42.69
44.63
47.07
49.69
52.05
53.73
54.58
54.71
54.43
53.96
53.32
52.28
50.49
47.6
43.47
38.29
32.49
26.68
21.41
17.0
13.4
10.14
6.53
1.99
-3.68
-10.21
-16.99
-23.46
-29.37
-34.87
-40.46
-46.71
-54.03
-62.7
-72.71
-83.73
-94.92
-104.89
-111.85
-114.04
-110.34
-100.64
-86.0
-68.27
-49.48
-31.32
-14.87
-0.62
11.36
21.11
28.71
34.25
37.94
40.15
41.39
42.27
43.36
45.0
47.26
49.89
52.48
54.66
56.18
57.04
57.35
57.19
56.53
55.21
53.05
49.94
45.94
41.25
36.16
31.0
26.09
21.65
17.78
14.34
10.93
7.13
2.58
-2.75
-8.62
-14.63
-20.5
-26.13
-31.74
-37.65
-44.29
-51.97
-60.94
-71.18
-82.25
-93.11
-102.14
-107.46
-107.45
-101.36
-89.6
-73.68
-55.69
-37.68
-21.09
-6.61
5.72
16.14
24.85
31.89
37.24
40.94
43.25
44.7
45.88
47.27
49.03
51.06
53.09
54.86
56.27
57.35
58.14
58.57
58.35
57.09
54.5
50.51
45.41
39.75
34.19
29.22
25.04
21.48
18.16
14.57
10.24
4.97
-1.16
-7.77
-14.32
-20.35
-25.69
-30.57
-35.58
-41.5
-48.98
-58.33
-69.35
-81.22
-92.55
-101.54
-106.37
-105.6
-98.68
-86.15
-69.56
-50.98
-32.47
-15.54
-1.01
10.86
20.25
27.42
32.65
36.3
38.76
40.51
42.01
43.63
45.57
47.82
50.17
52.29
53.88
54.78
55.04
54.89
54.59
54.27
53.76
52.67
50.58
47.26
42.82
37.67
32.39
27.46
23.11
19.33
15.87
12.35
8.45
3.87
-1.46
-7.4
-13.65
-19.88
-25.83
-31.46
-37.03
-42.95
-49.77
-57.95
-67.79
-79.16
-91.36
-102.93
-111.9
-116.18
-114.27
-105.76
-91.56
-73.56
-54.04
-34.94
-17.49
-2.14
11.05
22.16
31.18
38.02
42.7
45.45
46.8
47.44
48.06
49.18
50.98
53.36
55.95
58.36
60.27
61.51
61.98
61.74
60.75
58.98
56.41
53.1
49.21
44.98
40.65
36.39
32.23
28.12
24.0
19.85
15.71
11.62
7.58
3.45
-1.0
-6.03
-11.75
-18.11
-24.81
-31.51
-37.91
-44.02
-50.17
-56.98
-65.09
-74.85
-86.01
-97.48
-107.52
-114.09
-115.44
-110.67
-100.0
-84.78
-66.93
-48.48
-30.97
-15.25
-1.56
10.2
20.11
28.13
34.09
38.02
40.25
41.42
42.38
43.79
45.98
48.79
51.83
54.6
56.76
58.22
59.07
59.41
59.27
58.53
56.99
54.49
51.03
46.78
42.08
37.3
32.79
28.75
25.18
21.88
18.49
14.68
10.21
5.04
-0.66
-6.57
-12.38
-17.91
-23.2
-28.48
-34.18
-40.76
-48.61
-57.91
-68.42
-79.35
-89.3
-96.5
-99.2
-96.16
-87.1
-72.91
-55.31
-36.49
-18.41
-2.37
11.06
21.87
30.31
36.6
40.86
43.28
44.17
44.18
44.08
44.56
45.94
48.14
50.71
53.06
54.82
55.79
56.04
55.75
54.95
53.57
51.4
48.25
44.1
39.18
33.85
28.58
23.73
19.43
15.59
11.85
7.8
3.07
-2.5
-8.85
-15.67
-22.52
-29.03
-34.98
-40.44
-45.82
-51.73
-58.88
-67.78
-78.46
-90.29
-101.92
-111.44
-116.85
-116.58
-109.97
-97.5
-80.67
-61.59
-42.35
-24.63
-9.31
3.37
13.66
21.94
28.5
33.51
37.06
39.4
40.94
42.22
43.72
45.67
47.97
50.28
52.2
53.45
54.03
54.1
53.94
53.65
53.16
52.18
50.36
47.49
43.55
38.83
33.78
28.89
24.49
20.63
17.04
13.24
8.74
3.22
-3.29
-10.5
-17.89
-25.0
-31.58
-37.66
-43.56
-49.76
-56.83
-65.23
-75.24
-86.64
-98.61
-109.7
-118.02
-121.72
-119.51
-111.15
-97.42
-80.04
-61.02
-42.2
-24.83
-9.52
3.65
14.73
23.81
30.87
35.88
39.02
40.71
41.66
42.63
44.2
46.62
49.67
52.93
55.85
58.05
59.39
59.94
59.89
59.39
58.43
56.9
54.59
51.42
47.48
43.1
38.7
34.65
31.08
27.8
24.38
20.37
15.45
9.68
3.38
-2.98
-9.05
-14.68
-20.06
-25.54
-31.55
-38.56
-46.88
-56.7
-67.87
-79.78
-91.3
-100.81
-106.62
-107.31
-102.26
-91.76
-76.96
-59.5
-41.12
-23.29
-6.97
7.25
19.2
28.76
35.89
40.62
43.16
44.03
43.91
43.6
43.69
44.49
45.96
47.91
50.12
52.41
54.69
56.69
58.04
58.21
56.77
53.51
48.61
42.6
36.22
30.17
24.95
20.6
16.84
13.09
8.78
3.58
-2.5
-9.11
-15.82
-22.27
-28.33
-34.17
-40.19
-46.99
-55.17
-65.11
-76.69
-88.97
-100.24
-108.28
-111.03
-107.27
-97.1
-81.86
-63.69
-44.77
-26.69
-10.3
4.16
16.65
27.14
35.44
41.41
45.11
46.95
47.68
48.16
49.14
50.97
53.59
56.55
59.23
61.18
62.22
62.48
62.21
61.56
60.44
58.55
55.57
51.45
46.49
41.22
36.18
31.61
27.36
22.96
17.85
11.68
4.45
-3.46
-11.54
-19.3
-26.48
-33.18
-39.75
-46.73
-54.67
-64.04
-75.01
-87.35
-100.23
-112.15
-121.13
-125.12
-122.67
-113.38
-98.19
-79.07
-58.46
-38.42
-20.25
-4.35
9.43
21.34
31.39
39.38
45.16
48.85
50.98
52.32
53.61
55.31
57.47
59.87
62.11
63.89
65.01
65.43
65.27
64.65
63.64
62.19
60.1
57.15
53.22
48.47
43.31
38.28
33.82
29.99
26.53
22.89
18.54
13.17
6.77
-0.35
-7.71
-14.91
-21.68
-28.06
-34.38
-41.2
-49.16
-58.71
-69.9
-82.21
-94.55
-105.33
-112.83
-115.46
-112.22
-102.98
-88.58
-70.62
-51.13
-31.96
-14.47
0.64
13.14
23.14
30.77
36.17
39.67
41.75
43.1
44.4
46.09
48.29
50.8
53.28
55.44
57.11
58.31
59.08
59.47
59.41
58.68
57.07
54.34
50.44
45.58
40.15
34.67
29.49
24.73
20.15
15.43
10.26
4.6
-1.37
-7.36
-13.15
-18.74
-24.41
-30.63
-37.94
-46.67
-56.84
-67.87
-78.65
-87.6
-93.07
-93.69
-88.77
-78.52
-64.0
-46.84
-28.85
-11.61
3.79
16.76
27.16
35.05
40.63
44.1
45.8
46.19
45.87
45.5
45.58
46.35
47.75
