0
-12.8
-7.1
-1.22
4.17
8.68
12.17
14.69
16.35
17.22
17.26
16.48
14.94
12.87
10.61
8.53
6.94
6.04
5.87
6.38
7.39
8.64
9.88
10.81
11.25
11.05
10.21
8.76
6.84
4.63
2.36
0.25
-1.56
-3.08
-4.49
-6.01
-7.83
-9.96
-12.24
-14.39
-16.16
-17.41
-18.22
-18.84
-19.65
-21.06
-23.32
-26.41
-29.93
-33.1
-35.03
-34.94
-32.5
-27.89
-21.73
-14.85
-8.05
-1.91
3.21
7.12
9.76
11.15
11.41
10.79
9.62
8.23
6.9
5.81
5.06
4.73
4.84
5.42
6.43
7.75
9.17
10.48
11.49
12.09
12.26
12.0
11.38
10.38
9.01
7.28
5.23
2.97
0.67
-1.53
-3.53
-5.29
-6.87
-8.34
-9.73
-10.99
-12.03
-12.72
-13.09
-13.25
-13.57
-14.43
-16.17
-18.85
-22.14
-25.35
-27.55
-27.89
-25.84
-21.4
-15.09
-7.74
-0.29
6.5
12.13
16.43
19.38
21.1
21.72
21.37
20.21
18.49
16.49
14.57
13.03
12.09
11.81
12.11
12.83
13.82
14.98
16.25
17.55
18.72
19.52
19.7
19.08
17.61
15.37
12.6
9.6
6.73
4.3
2.47
1.18
0.17
-0.92
-2.42
-4.41
-6.7
-8.95
-10.83
-12.15
-13.0
-13.63
-14.44
-15.79
-17.86
-20.58
-23.55
-26.1
-27.42
-26.84
-24.06
-19.26
-13.0
-6.09
0.68
6.7
11.6
15.23
17.55
18.56
18.33
16.95
14.63
11.63
8.36
5.24
2.72
1.08
0.49
0.88
2.07
3.73
5.54
7.18
8.37
8.96
8.91
8.37
7.58
6.75
5.95
5.09
3.92
2.27
0.08
-2.5
-5.18
-7.68
-9.83
-11.58
-13.03
-14.32
-15.62
-17.1
-18.9
-20.97
-23.11
-24.84
-25.54
-24.65
-21.83
-17.08
-10.79
-3.58
3.81
10.65
16.35
20.53
23.08
24.14
23.98
22.93
21.24
19.07
16.58
13.97
11.56
9.72
8.72
8.63
9.29
10.41
11.63
12.72
13.54
14.01
14.08
13.64
12.63
11.01
8.88
6.42
3.84
1.3
-1.14
-3.49
-5.81
-8.08
-10.25
-12.23
-13.96
-15.5
-17.02
-18.7
-20.69
-22.92
-25.06
-26.57
-26.79
-25.2
-21.56
-16.05
-9.23
-1.91
5.11
11.18
15.89
19.1
20.86
21.29
20.6
19.05
16.89
14.42
11.88
9.5
7.54
6.24
5.82
6.37
7.79
9.71
11.66
13.19
14.04
14.22
13.88
13.18
12.18
10.81
8.98
6.68
4.03
1.24
-1.48
-4.0
-6.27
-8.3
-10.1
-11.69
-13.17
-14.65
-16.28
-18.2
-20.44
-22.82
-24.96
-26.31
-26.3
-24.51
-20.83
-15.54
-9.24
-2.67
3.5
8.78
12.96
15.96
17.79
18.43
17.84
16.07
13.31
9.94
6.46
3.39
1.13
-0.11
-0.35
0.26
1.48
3.05
4.75
6.41
7.86
8.9
9.3
8.87
7.51
5.3
2.49
-0.53
-3.37
-5.78
-7.73
-9.4
-11.02
-12.83
-14.95
-17.4
-20.07
-22.77
-25.14
-26.74
-27.0
-25.48
-21.98
-16.75
-10.4
-3.78
2.29
7.24
10.83
13.13
14.31
14.49
13.81
12.3
10.08
7.39
4.62
2.2
0.49
-0.35
-0.38
0.13
0.89
1.73
2.58
3.52
4.6
5.71
6.6
6.94
6.46
5.06
2.88
0.17
-2.75
-5.59
-8.12
-10.21
-11.86
-13.26
-14.72
-16.6
-19.11
-22.11
-25.04
-27.05
-27.28
-25.15
-20.61
-14.14
-6.6
1.04
7.96
13.64
17.82
20.48
21.72
21.64
20.4
18.2
15.39
12.41
9.74
7.74
6.59
6.21
6.4
6.87
7.42
7.96
8.44
8.88
9.24
9.42
9.29
8.67
7.42
5.52
3.07
0.31
-2.47
-4.98
-7.13
-8.98
-10.78
-12.78
-15.16
-17.93
-20.89
-23.64
-25.71
-26.55
-25.7
-22.92
-18.23
-12.0
-4.85
2.52
9.42
15.31
19.79
22.63
23.71
23.09
21.03
18.02
14.61
11.4
8.87
7.26
6.65
6.86
7.6
8.5
9.24
9.65
9.73
9.62
9.46
9.26
8.91
8.16
6.82
4.84
2.36
-0.4
-3.16
-5.76
-8.14
-10.32
-12.33
-14.19
-15.95
-17.62
-19.18
-20.51
-21.39
-21.5
-20.43
-17.88
-13.67
-7.99
-1.34
5.5
11.7
16.58
19.87
21.57
21.94
21.2
19.49
16.88
13.54
9.83
6.37
3.75
2.39
2.31
3.18
4.55
5.97
7.2
8.14
8.75
8.91
8.42
7.04
4.61
1.17
-2.97
-7.31
-11.32
-14.61
-17.07
-18.95
-20.72
-22.87
-25.68
-29.05
-32.48
-35.2
-36.33
-35.2
-31.48
-25.31
-17.31
-8.41
0.32
7.97
13.93
18.05
20.47
21.43
21.16
19.74
17.24
13.9
10.15
6.65
4.07
2.82
2.96
4.17
5.86
7.45
8.54
9.03
9.01
8.71
8.22
7.46
6.16
3.99
0.79
-3.3
-7.8
-12.07
-15.56
-18.04
-19.67
-20.92
-22.36
-24.4
-27.19
-30.55
-34.07
-37.14
-39.08
-39.23
-37.09
-32.43
-25.41
-16.6
-6.86
2.78
11.37
18.18
22.81
25.21
25.66
24.62
22.59
20.05
17.34
14.76
12.55
10.99
10.31
10.67
12.0
14.1
16.59
19.1
21.29
22.89
23.66
23.42
22.09
19.73
16.64
13.16
9.66
6.3
3.07
-0.17
-3.54
-7.03
-10.54
-13.83
-16.73
-19.17
-21.19
-23.01
-24.91
-27.21
-30.07
-33.39
-36.66
-39.0
-39.4
-37.03
-31.49
-23.07
-12.58
-1.17
9.96
19.8
27.67
33.19
36.28
37.08
35.92
33.21
29.47
25.27
21.18
17.74
15.4
14.44
14.88
16.44
18.63
20.85
22.61
23.59
23.68
22.96
21.55
19.56
17.06
14.11
10.77
7.13
3.37
-0.33
-3.73
-6.67
-9.08
-10.99
-12.59
-14.08
-15.69
-17.57
-19.8
-22.42
-25.39
-28.49
-31.22
-32.79
-32.26
-28.89
-22.4
-13.28
-2.62
8.15
17.72
25.2
30.26
32.98
33.67
32.67
30.26
26.78
22.68
18.53
15.01
12.65
11.72
12.09
13.37
15.03
16.68
18.06
19.12
19.83
20.11
19.78
18.62
16.51
13.49
9.78
5.73
1.69
-2.07
-5.42
-8.36
-11.0
-13.48
-15.88
-18.14
-20.12
-21.66
-22.73
-23.54
-24.52
-26.19
-28.89
-32.55
-36.58
-39.9
-41.24
-39.5
-34.17
-25.44
-14.26
-2.04
9.78
20.03
27.99
33.4
36.33
37.0
35.7
32.8
28.81
24.33
20.02
16.47
14.04
12.86
12.82
13.68
15.12
16.9
18.79
20.59
22.1
23.08
23.26
22.36
20.24
16.95
12.79
8.27
3.94
0.25
-2.67
-4.93
-6.85
-8.79
-10.97
-13.4
-15.94
-18.34
-20.35
-21.86
-22.92
-23.77
-24.82
-26.53
-29.17
-32.66
-36.45
-39.52
-40.67
-38.87
-33.62
-25.13
-14.26
-2.29
9.42
19.72
27.91
33.68
37.03
38.09
37.03
34.1
29.68
24.37
18.98
14.41
11.35
10.14
10.66
12.38
14.65
16.88
18.73
20.07
20.89
21.2
20.88
19.8
17.85
15.05
11.61
7.84
4.08
0.54
-2.75
-5.88
-8.95
-11.95
-14.69
-16.9
-18.33
-18.98
-19.07
-19.05
-19.43
-20.62
-22.82
-25.9
-29.41
-32.57
-34.44
-34.1
-30.95
-24.89
-16.46
-6.66
3.25
12.12
19.16
24.04
26.81
27.74
27.12
25.17
22.06
18.03
13.49
9.08
5.48
3.25
2.64
3.5
5.35
7.61
9.74
11.45
12.58
13.09
12.95
12.08
10.42
7.95
4.75
1.01
-2.98
-6.91
-10.53
-13.67
-16.27
-18.38
-20.14
-21.71
-23.27
-25.02
-27.15
-29.72
-32.67
-35.62
-37.9
-38.6
-36.88
-32.2
-24.62
-14.78
-3.82
7.0
16.56
24.09
29.22
31.93
32.44
31.1
28.35
24.63
20.44
16.23
12.44
9.4
7.33
6.35
6.44
7.5
9.31
11.58
13.96
16.07
17.51
18.04
17.58
16.21
14.16
11.67
8.88
5.85
2.59
-0.84
-4.29
-7.49
-10.16
-12.06
-13.1
-13.38
-13.21
-13.15
-13.91
-16.17
-20.3
-26.09
-32.67
-38.67
-42.63
-43.48
-40.86
-35.13
-27.27
-18.44
-9.73
-1.95
4.35
8.89
11.56
12.47
11.85
10.08
7.63
5.04
2.84
1.46
1.19
2.07
3.87
6.26
8.85
11.35
13.55
15.32
16.49
16.85
16.17
14.36
11.49
7.86
3.86
-0.07
-3.61
-6.59
-9.0
-10.98
-12.79
-14.68
-16.84
-19.33
-22.1
-25.0
-27.81
-30.18
-31.61
-31.51
-29.27
-24.53
-17.4
-8.56
0.93
9.9
17.4
22.89
26.24
27.57
27.11
25.12
21.89
17.84
13.41
9.13
5.45
2.7
1.02
0.4
0.67
1.62
3.05
4.76
6.59
8.29
9.5
9.81
8.84
6.47
2.9
-1.37
-5.67
-9.43
-12.31
-14.33
-15.73
-16.93
-18.39
-20.49
-23.4
-26.94
-30.52
-33.24
-34.1
-32.37
-27.79
-20.7
-11.89
-2.43
6.64
14.43
20.41
24.37
26.4
26.79
25.86
23.91
21.16
17.86
14.32
10.99
8.35
6.76
6.34
6.97
8.3
9.94
11.52
12.67
13.18
12.89
11.78
9.92
7.41
4.37
0.9
-2.87
-6.73
-10.36
-13.44
-15.74
-17.25
-18.2
-18.97
-19.92
-21.36
-23.39
-25.9
-28.53
-30.71
-31.68
-30.66
-27.14
-21.05
-12.9
-3.63
5.63
13.85
20.32
24.76
27.19
27.86
27.1
25.23
22.64
19.71
16.84
14.39
12.6
11.55
11.17
11.35
11.94
12.8
13.76
14.69
15.39
15.72
15.61
15.05
14.06
12.63
10.68
8.14
5.01
1.47
-2.18
-5.57
-8.48
-10.82
-12.67
-14.16
-15.43
-16.56
-17.66
-18.92
-20.55
-22.68
-25.23
-27.76
-29.54
-29.73
-27.65
-23.08
-16.33
-8.24
0.1
7.65
13.69
17.94
20.47
21.53
21.38
20.25
18.33
15.87
13.13
10.44
8.1
6.33
5.26
5.0
5.56
6.9
8.85
11.12
13.29
14.88
15.5
14.88
13.0
10.05
6.44
2.6
-1.05
-4.21
-6.75
-8.66
-10.02
-10.93
-11.55
-12.1
-12.76
-13.74
-15.09
-16.81
-18.75
-20.73
-22.45
-23.57
-23.67
-22.36
-19.41
-14.88
-9.13
-2.74
3.62
9.37
14.09
17.54
19.61
20.34
19.9
18.55
16.59
14.23
11.67
9.08
6.71
4.84
3.75
3.51
3.97
4.78
5.51
5.92
5.95
5.66
5.12
4.3
3.11
1.45
-0.69
-3.17
-5.83
-8.52
-11.12
-13.6
-15.87
-17.87
-19.52
-20.8
-21.75
-22.53
-23.32
-24.33
-25.69
-27.33
-28.95
-30.02
-29.95
-28.21
-24.59
-19.26
-12.77
-5.87
0.69
6.32
10.66
13.6
15.2
15.6
15.02
13.64
11.67
9.32
6.83
4.44
2.4
0.91
0.05
-0.28
-0.23
0.08
0.62
1.48
2.77
4.52
6.63
8.8
10.72
12.12
12.9
13.06
12.69
11.82
10.44
8.52
6.1
3.38
0.7
-1.59
-3.27
-4.34
-5.12
-6.07
-7.69
-10.24
-13.67
-17.55
-21.16
-23.69
-24.44
-23.0
-19.39
-14.03
-7.61
-0.92
5.37
10.77
15.04
18.04
19.68
19.94
18.84
16.56
13.5
10.13
7.0
4.53
2.98
2.42
2.77
3.82
5.32
6.99
8.54
9.76
10.49
10.69
10.38
9.58
8.28
6.45
4.1
1.3
-1.74
-4.77
-7.5
-9.71
-11.3
-12.39
-13.23
-14.18
-15.56
-17.47
-19.76
-22.01
-23.61
-24.0
-22.77
-19.79
-15.18
-9.27
-2.54
4.46
11.12
16.89
21.3
24.1
25.21
24.78
23.09
20.52
17.5
14.46
11.79
9.79
8.59
8.18
8.44
9.22
10.36
11.71
13.07
14.2
14.79
14.57
13.35
11.11
7.97
4.16
-0.04
-4.35
-8.51
-12.33
-15.71
-18.59
-21.03
-23.19
-25.29
-27.59
-30.25
-33.22
-36.13
-38.34
-39.08
-37.71
-33.96
-27.98
-20.35
-11.84
-3.24
4.75
11.58
16.84
20.3
21.93
21.93
20.68
18.64
16.21
13.68
11.31
9.27
7.78
7.05
7.21
8.2
9.81
11.7
13.48
14.81
15.48
15.39
14.57
13.12
11.14
8.7
5.88
2.74
-0.57
-3.84
-6.81
-9.28
-11.22
-12.77
-14.24
-15.94
-18.12
-20.8
-23.79
-26.69
-28.96
-29.95
-29.05
-25.85
-20.28
-12.74
-4.04
4.75
12.67
19.01
23.53
26.29
27.53
27.47
26.28
24.07
21.09
17.75
14.59
12.13
10.76
10.52
11.24
12.53
13.97
15.26
16.2
16.72
16.8
16.48
15.76
14.71
13.32
11.59
9.46
6.87
3.83
0.45
-3.02
-6.28
-9.07
-11.27
-12.92
-14.22
-15.39
-16.68
-18.29
-20.29
-22.61
-24.9
-26.52
-26.69
-24.71
-20.25
-13.5
-5.19
3.64
11.93
18.92
24.19
27.65
29.41
29.66
28.61
26.51
23.71
20.59
17.56
14.97
12.97
11.6
10.71
10.15
9.74
9.44
9.24
9.2
9.3
9.42
9.34
8.78
7.52
5.41
2.53
-0.94
-4.67
-8.29
-11.47
-13.99
-15.78
-16.98
-17.87
-18.79
-20.03
-21.74
-23.82
-25.95
-27.6
-28.14
-27.04
-23.98
-18.99
-12.45
-5.06
2.45
9.38
15.23
19.72
22.65
23.97
23.69
22.01
19.31
16.14
13.0
10.27
8.12
6.58
5.65
5.34
5.67
6.59
7.96
9.48
10.83
11.73
12.01
11.58
10.47
8.78
6.6
4.11
1.44
-1.34
-4.14
-6.92
-9.6
-12.09
-14.28
-16.12
-17.6
-18.79
-19.79
-20.7
-21.73
-23.16
-25.27
-28.16
-31.61
-34.92
-37.11
-37.16
-34.43
-28.91
-21.23
-12.45
-3.71
4.07
10.34
14.94
17.94
19.54
19.96
19.36
17.91
15.81
13.31
10.79
8.64
7.26
6.85
7.42
8.74
10.46
12.21
13.73
14.91
15.74
16.28
16.51
16.36
15.67
14.29
12.19
9.53
6.65
3.96
1.75
0.11
-1.13
-2.26
-3.51
-4.98
-6.54
-8.01
-9.23
-10.17
-10.9
-11.58
-12.36
-13.34
-14.68
-16.49
-18.87
-21.78
-24.95
-27.82
-29.64
-29.67
-27.4
-22.71
-16.01
-8.05
0.21
7.88
14.3
19.13
22.27
23.78
23.81
22.56
20.34
17.53
14.6
12.05
10.24
9.34
9.3
9.95
11.06
12.43
13.9
15.32
16.48
17.15
17.11
16.28
14.7
12.55
10.07
7.48
4.91
2.4
-0.07
-2.53
-5.01
-7.43
-9.68
-11.6
-13.09
-14.15
-14.9
-15.64
-16.69
-18.31
-20.58
-23.3
-25.97
-27.9
-28.35
-26.75
-22.92
-17.16
-10.15
-2.78
4.1
9.92
14.39
17.45
19.23
19.85
19.43
18.08
15.96
13.35
10.6
8.09
6.11
4.82
4.22
4.19
4.61
5.35
6.34
7.46
8.49
9.07
8.88
7.67
5.47
2.57
-0.63
-3.71
-6.42
-8.67
-10.54
-12.17
-13.7
-15.22
-16.8
-18.45
-20.15
-21.8
-23.29
-24.57
-25.69
-26.84
-28.26
-30.05
-32.07
-33.85
-34.67
-33.79
-30.75
-25.49
-18.45
-10.42
-2.29
5.16
11.45
16.35
19.87
22.09
23.09
22.94
21.75
19.76
17.35
14.98
13.12
12.08
11.95
12.58
13.72
15.11
16.51
17.8
18.89
19.67
19.97
19.62
18.51
16.63
14.12
11.27
8.42
5.86
3.7
1.85
0.1
-1.77
-3.84
-6.01
-8.08
-9.88
-11.37
-12.61
-13.79
-15.05
-16.53
-18.35
-20.64
-23.49
-26.8
-30.19
-32.94
-34.24
-33.35
-29.95
-24.3
-17.08
-9.27
-1.8
4.65
9.74
13.4
15.69
16.7
16.47
15.12
12.9
10.16
7.41
5.1
3.56
2.92
3.15
4.1
5.61
7.49
9.53
11.48
13.02
13.92
14.01
13.29
11.88
10.01
7.91
5.75
3.65
1.61
-0.43
-2.54
-4.77
-7.07
-9.32
-11.32
-12.96
-14.27
-15.47
-16.86
-18.73
-21.13
-23.8
-26.18
-27.58
-27.4
-25.29
-21.26
-15.61
-8.93
-1.82
5.12
11.38
16.64
20.67
23.35
24.6
24.41
22.86
20.2
16.84
13.33
10.26
8.11
7.12
7.33
8.55
10.45
12.67
14.87
16.74
18.03
18.5
17.98
16.4
13.83
10.52
6.91
3.47
0.56
-1.66
-3.36
-4.83
-6.36
-8.1
-10.0
-11.85
-13.48
-14.85
-16.03
-17.24
-18.7
-20.59
-22.97
-25.72
-28.49
-30.73
-31.74
-30.89
-27.78
-22.4
-15.2
-6.97
1.38
9.03
15.4
20.2
23.39
25.02
25.19
24.02
21.71
18.66
15.42
12.61
10.74
10.03
10.36
11.38
12.7
14.03
15.19
16.13
16.74
16.9
16.5
15.47
13.87
11.83
9.52
7.06
4.56
2.09
-0.27
-2.52
-4.65
-6.73
-8.83
-10.9
-12.83
-14.49
-15.75
-16.66
-17.43
-18.35
-19.69
-21.59
-23.92
-26.26
-28.02
-28.51
-27.14
-23.63
-18.14
-11.15
-3.41
4.26
11.23
17.01
21.3
23.94
24.88
24.21
22.23
19.44
16.44
13.78
11.89
10.91
10.82
11.42
12.5
13.87
15.32
16.71
17.91
18.82
19.39
19.57
19.3
18.55
17.26
15.42
13.04
10.14
6.79
3.15
-0.55
-4.06
-7.19
-9.83
-12.07
-14.06
-16.02
-18.13
-20.51
-23.14
-25.84
-28.23
-29.75
-29.75
-27.73
-23.52
-17.43
-10.17
-2.61
4.48
10.59
15.48
19.02
21.16
21.88
21.2
19.29
16.47
13.19
9.95
7.21
5.37
4.63
4.99
6.28
8.17
10.25
12.18
13.71
14.66
14.92
14.41
13.09
11.01
8.32
5.27
2.15
-0.82
-3.48
-5.78
-7.79
-9.58
-11.22
-12.76
-14.23
-15.58
-16.81
-17.94
-19.08
-20.41
-22.17
-24.43
-27.06
-29.62
-31.39
-31.58
-29.58
-25.18
-18.66
-10.73
-2.34
5.57
12.29
17.43
20.9
22.79
23.29
22.53
20.66
17.92
14.67
11.42
8.69
6.89
6.2
6.51
7.57
9.09
10.89
12.81
14.73
16.42
17.61
18.03
17.48
16.0
13.76
11.08
8.25
5.51
2.93
0.51
-1.85
-4.2
-6.58
-8.92
-11.13
-13.12
-14.84
-16.3
-17.55
-18.67
-19.81
-21.17
-22.95
-25.22
-27.82
-30.26
-31.79
-31.63
-29.21
-24.4
-17.58
-9.55
-1.26
6.37
12.72
17.51
20.77
22.66
23.43
23.22
22.1
20.16
17.63
14.87
12.36
10.56
9.73
9.89
10.85
12.31
13.98
15.63
17.03
17.94
18.07
17.24
15.42
12.82
9.77
6.62
3.64
0.89
-1.63
-3.94
-6.04
-7.89
-9.44
-10.71
-11.75
-12.63
-13.49
-14.5
-15.86
-17.68
-19.89
-22.16
-23.91
-24.46
-23.23
-19.99
-14.84
-8.27
-0.95
6.36
12.99
18.42
22.37
24.79
25.73
25.36
23.84
21.4
18.32
15.03
12.02
9.74
8.46
8.16
8.7
9.81
11.24
12.8
14.3
15.55
16.31
16.35
15.54
13.9
11.63
8.99
6.27
3.68
1.3
-0.93
-3.08
-5.26
-7.48
-9.67
-11.67
-13.36
-14.7
-15.77
-16.84
-18.15
-19.97
-22.4
-25.3
-28.32
-30.85
-32.2
-31.73
-29.11
-24.39
-18.0
-10.64
-3.1
3.91
9.85
14.37
17.25
18.46
18.1
16.44
13.85
10.8
7.69
4.96
2.94
1.88
1.84
2.7
4.1
5.67
7.1
8.25
9.2
10.1
10.98
11.71
12.03
11.65
10.4
8.35
5.73
2.85
0.03
-2.56
-4.88
-7.0
-9.06
-11.11
-13.07
-14.8
-16.09
-16.9
-17.34
-17.68
-18.28
-19.44
-21.3
-23.82
-26.79
-29.75
-32.09
-33.11
-32.18
-28.96
-23.57
-16.56
-8.79
-1.16
5.6
11.04
14.94
17.31
18.26
17.97
16.72
14.85
12.74
10.72
9.08
7.99
7.51
7.59
8.14
9.02
10.09
11.22
12.29
13.15
13.64
13.63
13.03
11.9
10.36
8.53
6.49
4.25
1.82
-0.74
-3.27
-5.6
-7.59
-9.19
-10.43
-11.42
-12.22
-12.91
-13.62
-14.52
-15.86
-17.75
-20.09
-22.49
-24.29
-24.78
-23.39
-19.92
-14.54
-7.85
-0.63
6.27
12.17
16.65
19.55
21.0
21.19
20.38
18.76
16.56
14.02
11.5
9.36
7.96
7.46
7.84
8.88
10.26
11.67
12.89
13.82
14.39
14.53
14.13
13.1
11.4
9.11
6.46
3.75
1.23
-0.99
-2.95
-4.81
-6.74
-8.83
-11.01
-13.16
-15.1
-16.76
-18.19
-19.51
-20.94
-22.68
-24.92
-27.65
-30.63
-33.37
-35.1
-35.07
-32.7
-27.83
-20.85
-12.55
-3.94
4.02
10.6
15.43
18.43
19.74
19.63
18.44
16.51
14.23
11.95
10.01
8.64
7.95
7.91
8.39
9.22
10.25
11.41
12.62
13.85
14.97
15.79
16.12
15.79
14.74
12.98
10.61
7.83
4.86
1.97
-0.66
-2.91
-4.84
-6.6
-8.38
-10.27
-12.29
-14.29
-16.16
-17.78
-19.13
-20.31
-21.55
-23.13
-25.29
-28.09
-31.26
-34.16
-35.89
-35.56
-32.64
-27.16
-19.69
-11.17
-2.63
5.15
11.65
16.6
19.87
21.46
21.41
19.98
17.53
14.61
11.8
9.55
8.13
7.57
7.77
8.55
9.75
11.27
13.01
14.83
16.49
17.71
18.23
17.91
16.8
15.08
13.02
10.83
8.64
6.47
4.27
1.96
-0.57
-3.35
-6.32
-9.3
-12.0
-14.15
-15.63
-16.57
-17.34
-18.43
-20.24
-22.95
-26.37
-30.0
-33.09
-34.84
-34.53
-31.78
-26.62
-19.59
-11.53
-3.42
3.88
9.82
14.19
17.02
18.45
18.6
17.61
15.69
13.17
10.52
8.25
6.76
6.3
6.84
8.18
10.02
12.13
14.33
16.52
18.56
20.2
21.12
20.98
19.63
17.16
13.93
10.51
7.39
4.84
2.84
1.09
-0.77
-3.02
-5.7
-8.61
-11.37
-13.67
-15.37
-16.59
-17.69
-19.1
-21.15
-23.93
-27.17
-30.3
-32.6
-33.35
-32.02
-28.32
-22.35
-14.52
-5.59
3.5
11.84
18.69
23.71
26.87
28.43
28.66
27.79
25.96
23.33
20.15
16.83
13.88
11.76
10.78
11.01
12.27
14.22
16.44
18.55
20.24
21.31
21.61
21.02
19.44
16.87
13.48
9.67
5.94
2.76
0.38
-1.32
-2.7
-4.21
-6.15
-8.59
-11.35
-14.08
-16.47
-18.29
-19.52
-20.34
-21.13
-22.35
-24.35
-27.2
-30.66
-34.12
-36.84
-38.05
-37.16
-33.81
-27.99
-20.05
-10.73
-0.99
8.11
15.72
21.37
24.96
26.69
26.8
25.55
23.23
20.18
16.87
13.81
11.51
10.26
10.14
11.05
12.74
14.88
17.12
19.07
20.42
20.99
20.72
19.66
17.95
15.68
13.0
10.06
7.1
4.33
1.84
-0.43
-2.69
-5.12
-7.79
-10.59
-13.29
-15.64
-17.54
-19.07
-20.53
-22.33
-24.8
-28.05
-31.77
-35.24
-37.46
-37.49
-34.76
-29.27
-21.63
-12.78
-3.76
4.61
11.74
17.33
21.29
23.63
24.47
24.02
22.55
20.38
17.88
15.39
13.25
11.74
11.05
11.2
12.12
13.58
15.34
17.11
18.6
19.59
19.91
19.47
18.25
16.32
13.79
10.85
7.72
4.64
1.77
-0.84
-3.28
-5.71
-8.24
-10.9
-13.53
-15.91
-17.88
-19.44
-20.81
-22.32
-24.36
-27.17
-30.75
-34.73
-38.37
-40.65
-40.55
-37.38
-31.09
-22.37
-12.44
-2.67
5.84
12.52
17.32
20.48
22.31
23.01
22.68
21.4
19.38
16.93
14.48
12.46
11.19
10.87
11.46
12.8
14.63
16.66
18.63
20.34
21.61
22.23
21.97
20.66
18.31
15.16
11.64
8.3
5.56
3.53
2.03
0.69
-0.9
-3.0
-5.59
-8.46
-11.24
-13.61
-15.37
-16.54
-17.4
-18.39
-20.01
-22.55
-25.98
-29.83
-33.29
-35.43
-35.43
-32.83
-27.65
-20.38
-11.83
-2.96
5.31
12.25
17.46
20.87
22.6
22.9
22.05
20.29
17.92
15.31
12.93
11.24
10.63
11.25
12.98
15.46
18.13
20.51
22.22
23.11
23.19
22.54
21.26
19.38
16.93
14.03
10.89
7.76
4.81
2.02
-0.78
-3.81
-7.14
-10.62
-13.93
-16.73
-18.81
-20.23
-21.28
-22.34
-23.85
-26.13
-29.31
-33.25
-37.39
-40.83
-42.5
-41.44
-37.18
-29.93
-20.55
-10.27
-0.38
8.12
14.68
19.2
21.88
23.03
22.95
21.93
20.2
18.1
15.98
14.27
13.34
13.37
14.3
15.86
17.64
19.28
20.6
21.61
22.38
22.95
23.17
22.75
21.4
18.98
15.57
11.56
7.45
3.71
0.6
-1.89
-3.99
-6.02
-8.22
-10.66
-13.23
-15.71
-17.93
-19.83
-21.47
-23.02
-24.7
-26.75
-29.38
-32.78
-36.94
-41.5
-45.75
-48.62
-49.03
-46.23
-40.06
-31.1
-20.42
-9.35
0.97
9.75
16.68
21.76
25.17
27.11
27.71
27.14
25.61
23.53
21.42
19.82
19.13
19.51
20.79
22.63
24.64
26.47
27.93
28.9
29.35
29.2
28.38
26.84
24.6
21.75
18.47
15.0
11.55
8.33
5.44
2.88
0.51
-1.81
-4.22
-6.72
-9.17
-11.29
-12.86
-13.85
-14.45
-15.06
-16.12
-17.92
-20.54
-23.82
-27.48
-31.22
-34.67
-37.39
-38.8
-38.32
-35.5
-30.23
-22.85
-14.07
-4.81
4.03
11.78
18.01
22.51
25.24
26.27
25.72
23.84
21.02
17.75
14.58
12.02
10.39
9.88
10.43
11.85
13.83
16.06
18.2
19.94
21.02
21.22
20.45
18.69
16.04
12.67
8.76
4.56
0.35
-3.64
-7.24
-10.45
-13.39
-16.23
-19.13
-22.14
-25.08
-27.65
-29.48
-30.34
-30.3
-29.78
-29.45
-30.0
-31.84
-34.85
-38.36
-41.3
-42.51
-41.17
-36.96
-30.15
-21.45
-11.77
-2.04
6.92
14.51
20.35
24.32
26.49
27.08
26.42
24.9
22.9
20.8
18.94
17.63
17.05
17.25
18.19
19.7
21.57
23.57
25.5
27.16
28.45
29.27
29.52
29.1
27.93
25.94
23.2
19.9
16.35
12.84
9.56
6.5
3.55
0.53
-2.64
-5.9
-9.08
-11.98
-14.49
-16.65
-18.6
-20.55
-22.74
-25.37
-28.6
-32.52
-37.01
-41.66
-45.73
-48.3
-48.44
-45.56
-39.67
-31.37
-21.68
-11.74
-2.49
5.5
12.0
16.91
20.16
21.7
21.59
20.11
17.77
15.25
13.2
12.02
11.88
12.68
14.21
16.21
18.46
20.7
22.74
24.39
25.55
26.15
26.14
25.46
24.07
21.95
19.2
16.04
12.72
9.47
6.41
3.56
0.85
-1.8
-4.48
-7.21
-9.93
-12.53
-14.84
-16.76
-18.29
-19.65
-21.15
-23.11
-25.73
-29.01
-32.8
-36.78
-40.48
-43.24
-44.28
-42.92
-38.78
-32.01
-23.32
-13.74
-4.31
4.2
11.43
17.28
21.73
24.66
25.91
25.41
23.33
20.16
16.64
13.53
11.43
10.6
11.01
12.32
14.12
16.0
17.7
19.09
20.1
20.67
20.66
19.91
18.27
15.8
12.69
9.27
5.82
2.51
-0.69
-3.93
-7.35
-10.94
-14.57
-17.94
-20.85
-23.2
-25.14
-26.97
-29.1
-31.8
-35.12
-38.78
-42.23
-44.68
-45.31
-43.41
-38.56
-30.83
-20.82
-9.59
1.57
11.49
19.44
25.2
28.99
31.17
32.05
31.79
30.42
28.11
25.16
22.11
19.5
17.8
17.19
17.63
18.82
20.41
22.0
23.29
24.08
24.29
23.87
22.81
21.08
18.7
15.73
12.31
8.58
4.66
0.65
-3.41
-7.44
-11.3
-14.83
-17.93
-20.5
-22.56
-24.26
-25.84
-27.68
-30.18
-33.53
-37.51
-41.4
-44.08
-44.4
-41.58
-35.56
-26.95
-16.9
-6.66
2.71
10.52
16.46
20.56
23.03
24.16
24.21
23.39
21.87
19.8
17.48
15.26
13.49
12.39
12.05
12.42
13.38
14.82
16.58
18.42
20.0
20.95
21.0
20.02
18.11
15.44
12.2
8.55
4.64
0.61
-3.36
-7.11
-10.5
-13.43
-15.91
-17.99
-19.83
-21.65
-23.75
-26.36
-29.53
-32.98
-36.07
-37.95
-37.73
-34.82
-29.09
-20.98
-11.39
-1.46
7.77
15.54
21.54
25.75
28.32
29.36
28.91
27.0
23.83
19.87
15.85
12.52
10.48
9.91
10.65
12.25
14.21
16.08
17.57
18.48
18.74
18.32
17.22
15.5
13.22
10.43
7.21
3.69
-0.01
-3.76
-7.5
-11.18
-14.82
-18.38
-21.84
-25.18
-28.52
-32.03
-35.9
-40.04
-43.94
-46.69
-47.21
-44.63
-38.67
-29.8
-19.13
-8.08
2.04
10.34
16.44
20.42
22.55
23.21
22.69
21.25
19.15
16.72
14.33
12.3
10.87
10.14
10.12
10.76
11.95
13.56
15.36
17.01
18.13
18.37
17.52
15.56
12.69
9.27
5.71
2.3
-0.81
-3.7
-6.54
-9.48
-12.53
-15.55
-18.32
-20.7
-22.71
-24.59
-26.66
-29.22
-32.42
-36.1
-39.82
-42.88
-44.45
-43.78
-40.37
-34.17
-25.62
-15.56
-5.05
4.92
13.59
20.48
25.42
28.42
29.65
29.37
27.89
25.62
22.98
20.5
18.66
17.9
18.37
19.96
22.25
24.7
26.84
28.41
29.32
29.58
29.18
28.0
25.91
22.98
19.46
15.78
12.34
9.36
6.74
4.18
1.34
-1.99
-5.75
-9.68
-13.31
-16.3
-18.44
-19.87
-21.05
-22.58
-25.06
-28.72
-33.3
-38.03
-41.76
-43.33
-41.86
-37.02
-29.12
-19.13
-8.36
1.83
10.37
16.67
20.66
22.63
22.97
22.04
20.07
17.33
14.15
11.02
8.47
6.91
6.55
7.32
9.0
11.27
13.77
16.13
18.05
19.24
19.53
18.88
17.37
15.15
12.38
9.22
5.81
2.3
-1.18
-4.47
-7.48
-10.17
-12.56
-14.71
-16.73
-18.77
-20.99
-23.55
-26.53
-29.85
-33.18
-35.89
-37.21
-36.27
-32.51
-25.81
-16.69
-6.21
4.28
13.57
20.84
25.84
28.74
29.91
29.74
28.49
26.42
23.85
21.13
18.7
16.91
16.0
16.0
16.83
18.29
20.11
21.95
23.49
24.48
24.75
24.25
22.99
20.99
18.25
14.77
10.62
5.98
1.12
-3.69
-8.18
-12.21
-15.72
-18.74
-21.36
-23.74
-26.12
-28.83
-32.2
-36.37
-41.21
-46.11
-50.09
-52.04
-51.0
-46.5
-38.75
-28.56
-17.12
-5.73
4.54
12.95
19.2
23.26
25.33
25.69
24.64
22.55
19.82
16.95
14.46
12.81
12.28
12.91
14.48
16.6
18.87
20.94
22.58
23.62
23.93
23.4
21.98
19.71
16.76
13.36
9.71
5.9
1.96
-2.13
-6.28
-10.32
-13.98
-17.01
-19.35
-21.12
-22.67
-24.46
-26.97
-30.49
-35.01
-40.1
-44.9
-48.29
-49.15
-46.76
-40.99
-32.47
-22.38
-12.09
-2.83
4.6
9.91
13.19
14.76
14.96
14.09
12.4
10.19
7.83
5.81
4.63
4.7
6.19
8.97
12.62
16.59
20.29
23.25
25.2
26.0
25.69
24.31
21.97
18.78
14.92
10.6
6.13
1.8
-2.16
-5.61
-8.54
-11.06
-13.39
-15.8
-18.56
-21.93
-26.05
-30.8
-35.8
-40.28
-43.24
-43.66
-40.77
-34.35
-24.84
-13.25
-0.88
10.94
21.16
29.16
34.77
38.1
39.49
39.28
37.78
35.26
32.04
28.55
25.31
22.9
21.73
21.96
23.39
25.56
27.87
29.8
30.99
31.26
30.59
28.96
26.37
22.79
18.27
12.94
7.12
1.15
-4.61
-9.91
-14.63
-18.78
-22.43
-25.66
-28.6
-31.47
-34.57
-38.21
-42.52
-47.23
-51.55
-54.28
-54.16
-50.27
-42.43
-31.28
-18.11
-4.49
8.15
18.85
27.13
32.95
36.45
37.87
37.43
35.44
32.31
28.59
24.93
21.96
20.14
19.67
20.46
22.2
24.47
26.82
28.93
30.48
31.23
30.95
29.45
26.72
22.92
18.41
13.62
8.87
4.28
-0.25
-4.85
-9.6
-14.36
-18.9
-22.89
-26.21
-28.96
-31.45
-34.14
-37.42
-41.46
-46.12
-50.8
-54.54
-56.16
-54.5
-48.86
-39.21
-26.38
-11.82
2.73
15.68
26.0
33.26
37.59
39.4
39.15
37.27
34.11
30.14
25.89
21.99
19.03
17.39
17.2
18.3
20.35
22.95
25.63
27.94
29.49
29.94
29.14
27.14
24.19
20.64
16.79
12.84
8.8
4.61
0.14
-4.6
-9.44
-14.05
-18.06
-21.17
-23.33
-24.79
-26.05
-27.77
-30.5
-34.45
-39.32
-44.24
-47.93
-49.0
-46.39
-39.65
-29.21
-16.26
-2.41
10.7
21.82
30.31
36.04
39.21
40.11
39.07
36.37
32.4
27.64
22.73
18.3
14.95
13.08
12.85
14.12
16.55
19.61
22.68
25.24
26.89
27.43
26.79
25.02
22.2
18.46
14.02
9.13
4.06
-0.95
-5.75
-10.27
-14.49
-18.39
-21.94
-25.06
-27.79
-30.31
-32.95
-36.14
-40.2
-45.26
-50.91
-56.31
-60.17
-61.12
-58.11
-50.76
-39.49
-25.53
-10.51
3.88
16.3
25.97
32.65
36.54
38.07
37.7
35.87
32.96
29.33
25.37
21.59
18.48
16.47
15.8
16.44
18.12
20.44
22.98
25.36
27.27
28.4
28.45
27.19
24.59
20.87
16.52
12.09
8.02
4.43
1.12
-2.35
-6.33
-10.91
-15.82
-20.6
-24.78
-28.11
-30.7
-32.9
-35.21
-38.08
-41.72
-46.0
-50.37
-53.91
-55.47
-53.93
-48.56
-39.35
-27.06
-13.11
0.86
13.36
23.46
30.78
35.41
37.62
37.7
35.92
32.58
