0
34.78
36.53
36.57
35.42
33.71
32.16
31.43
31.97
33.87
36.87
40.46
44.08
47.29
49.83
51.59
52.57
52.72
51.94
50.09
47.06
42.9
37.87
32.45
27.19
22.63
19.0
16.17
13.64
10.76
7.07
2.4
-2.98
-8.6
-14.0
-18.88
-23.28
-27.49
-31.99
-37.34
-44.06
-52.46
-62.39
-73.0
-82.7
-89.41
-91.14
-86.63
-75.87
-60.18
-41.74
-22.98
-5.84
8.47
19.58
27.58
32.72
35.28
35.57
34.09
31.61
29.08
27.43
27.27
28.77
31.6
35.15
38.76
41.94
44.47
46.31
47.47
47.94
47.53
46.0
43.13
38.86
33.45
27.4
21.42
16.12
11.79
8.27
5.09
1.69
-2.34
-7.04
-12.1
-17.12
-21.77
-25.97
-29.94
-34.16
-39.26
-45.85
-54.3
-64.41
-75.23
-85.03
-91.7
-93.21
-88.34
-77.11
-60.82
-41.67
-22.18
-4.46
10.17
21.31
29.23
34.46
37.52
38.74
38.45
37.08
35.32
34.01
33.92
35.44
38.43
42.31
46.28
49.68
52.14
53.62
54.29
54.24
53.41
51.53
48.32
43.67
37.82
31.38
25.15
19.79
15.62
12.48
9.78
6.87
3.2
-1.36
-6.59
-12.04
-17.22
-21.9
-26.07
-30.05
-34.31
-39.39
-45.8
-53.82
-63.34
-73.61
-83.18
-90.1
-92.35
-88.5
-78.26
-62.7
-43.97
-24.71
-7.19
7.16
17.89
25.26
29.8
31.97
32.14
30.66
28.12
25.32
23.16
22.33
23.11
25.29
28.35
31.7
34.94
37.82
40.25
42.01
42.79
42.22
40.04
36.31
31.46
26.14
20.96
16.3
12.11
8.08
3.83
-0.84
-5.84
-10.87
-15.56
-19.71
-23.4
-26.96
-30.92
-35.84
-42.18
-50.17
-59.51
-69.24
-77.77
-83.12
-83.48
-77.83
-66.37
-50.52
-32.52
-14.76
0.9
13.47
22.77
29.13
33.02
34.85
34.96
33.75
31.8
29.85
28.68
28.83
30.48
33.32
36.82
40.36
43.47
45.89
47.51
48.24
47.94
46.38
43.42
39.09
33.68
27.74
21.87
16.57
12.05
8.15
4.47
0.53
-4.03
-9.24
-14.87
-20.46
-25.61
-30.09
-33.98
-37.65
-41.69
-46.82
-53.56
-62.15
-72.12
-82.24
-90.56
-94.86
-93.35
-85.26
-71.26
-53.24
-33.78
-15.38
0.19
12.1
20.36
25.49
28.12
28.84
28.15
26.54
24.58
22.86
21.97
22.32
24.05
27.01
30.73
34.57
37.88
40.16
41.15
40.83
39.37
36.95
33.76
29.91
25.52
20.71
15.69
10.7
5.96
1.59
-2.39
-6.06
-9.53
-12.91
-16.27
-19.76
-23.62
-28.27
-34.21
-41.76
-50.8
-60.45
-69.08
-74.65
-75.29
-69.94
-58.8
-43.24
-25.37
-7.46
8.64
21.78
31.45
37.61
40.51
40.58
38.47
35.05
31.33
28.29
26.71
26.93
28.83
31.96
35.66
39.38
42.71
45.4
47.28
48.19
47.86
46.1
42.8
38.14
32.54
26.64
21.04
16.16
12.04
8.38
4.65
0.41
-4.52
-9.95
-15.41
-20.4
-24.66
-28.36
-32.07
-36.62
-42.83
-51.25
-61.83
-73.79
-85.48
-94.65
-98.99
-96.78
-87.58
-72.41
-53.54
-33.73
-15.48
-0.35
11.14
19.3
24.72
28.01
29.57
29.71
28.82
27.45
26.25
25.82
26.54
28.48
31.43
34.99
38.68
42.06
44.74
46.41
46.86
45.91
43.51
39.76
34.99
29.64
24.25
19.22
14.71
10.62
6.68
2.61
-1.72
-6.26
-10.86
-15.31
-19.54
-23.56
-27.58
-32.02
-37.44
-44.32
-52.65
-61.62
-69.52
-74.16
-73.52
-66.62
-53.93
-37.3
-19.23
-2.15
12.33
23.52
31.49
36.6
39.2
39.56
37.94
34.85
31.13
27.82
25.94
26.13
28.43
32.33
36.92
41.27
44.76
47.09
48.3
48.48
47.65
45.63
42.23
37.41
31.43
24.86
18.44
12.81
8.33
4.9
2.04
-0.92
-4.52
-9.02
-14.22
-19.59
-24.58
-28.85
-32.45
-35.83
-39.68
-44.76
-51.64
-60.5
-70.98
-81.91
-91.47
-97.45
-97.86
-91.6
-78.91
-61.33
-41.29
-21.42
-3.81
10.29
20.56
27.32
31.18
32.81
32.78
31.64
29.97
28.41
27.62
28.09
29.98
33.03
36.67
40.25
43.3
45.67
47.48
48.84
49.7
49.7
48.4
45.45
40.83
34.97
28.63
22.68
17.74
14.01
11.2
8.63
5.58
1.57
-3.41
-8.93
-14.3
-18.97
-22.71
-25.78
-28.76
-32.37
-37.28
-43.96
-52.52
-62.51
-72.72
-81.28
-85.99
-84.99
-77.49
-64.11
-46.77
-28.05
-10.39
4.58
16.19
24.49
29.85
32.59
32.97
31.33
28.24
24.63
21.64
20.23
20.95
23.68
27.75
32.18
36.08
38.95
40.73
41.69
42.12
42.1
41.4
39.67
36.57
32.11
26.67
20.88
15.47
10.89
7.18
3.99
0.7
-3.23
-8.05
-13.55
-19.23
-24.46
-28.88
-32.54
-35.85
-39.53
-44.3
-50.7
-58.92
-68.66
-78.96
-88.22
-94.36
-95.41
-90.07
-78.3
-61.47
-41.95
-22.39
-4.99
9.02
19.4
26.58
31.23
33.86
34.85
34.51
33.26
31.75
30.75
30.9
32.53
35.51
39.28
43.16
46.51
49.04
50.68
51.58
51.76
51.18
49.61
46.87
42.88
37.84
32.18
26.52
21.46
17.4
14.37
12.0
9.63
6.61
2.56
-2.45
-7.98
-13.38
-18.18
-22.19
-25.66
-29.11
-33.15
-38.35
-45.11
-53.59
-63.52
-74.08
-83.79
-90.67
-92.72
-88.55
-77.92
-61.92
-42.73
-22.98
-4.99
9.7
20.56
27.81
32.0
33.72
33.47
31.73
29.11
26.41
24.43
23.82
24.82
27.2
30.43
33.88
37.1
39.79
41.86
43.16
43.5
42.66
40.48
36.99
32.46
27.28
21.89
16.59
11.54
6.72
2.0
-2.7
-7.37
-11.87
-16.04
-19.82
-23.32
-26.91
-31.08
-36.39
-43.22
-51.57
-60.83
-69.69
-76.32
-78.73
-75.5
-66.26
-51.94
-34.56
-16.5
0.09
13.87
24.36
31.63
36.04
37.92
37.64
35.72
32.86
29.92
27.75
26.92
27.65
29.75
32.75
36.09
39.28
42.03
44.15
45.58
46.17
45.67
43.77
40.3
35.39
29.52
23.46
17.93
13.33
9.58
6.18
2.46
-2.04
-7.41
-13.31
-19.16
-24.45
-28.94
-32.82
-36.65
-41.18
-47.13
-54.94
-64.48
-74.91
-84.68
-91.76
-94.18
-90.59
-80.81
-65.86
-47.76
-28.92
-11.42
3.33
14.75
22.88
28.16
31.09
32.21
32.02
31.06
29.92
29.15
29.23
30.42
32.67
35.7
39.05
42.2
44.77
46.6
47.68
48.02
47.54
46.01
43.2
39.07
33.93
28.37
23.08
18.47
14.57
10.98
7.18
2.82
-2.07
-7.12
-11.82
-15.76
-18.92
-21.6
-24.38
-27.96
-33.0
-39.91
-48.66
-58.53
-68.12
-75.47
-78.58
-75.99
-67.37
-53.61
-36.65
-18.83
-2.27
11.66
22.41
30.03
34.83
37.13
37.19
35.35
32.23
28.69
25.75
24.27
24.69
26.89
30.3
34.12
37.62
40.3
41.89
42.32
41.52
39.46
36.23
32.05
27.33
22.49
17.83
13.4
8.99
4.33
-0.72
-6.09
-11.5
-16.58
-21.12
-25.14
-28.97
-33.13
-38.25
-44.89
-53.39
-63.55
-74.46
-84.44
-91.32
-93.06
-88.42
-77.39
-61.36
-42.63
-23.72
-6.68
7.36
18.12
25.88
31.09
34.1
35.21
34.77
33.4
31.88
31.06
31.55
33.51
36.64
40.28
43.75
46.55
48.49
49.72
50.43
50.71
50.38
49.08
46.4
42.22
36.79
30.76
24.93
19.92
15.93
12.65
9.46
5.74
1.15
-4.27
-10.11
-15.84
-21.05
-25.57
-29.59
-33.61
-38.33
-44.51
-52.66
-62.8
-74.12
-84.99
-93.19
-96.5
-93.4
-83.67
-68.49
-50.08
-31.03
-13.54
1.01
12.13
19.96
24.92
27.44
27.92
26.85
24.82
22.62
21.09
20.89
22.39
25.49
29.71
34.32
38.57
41.86
43.85
44.47
43.82
42.11
39.52
36.14
32.01
27.11
21.49
15.34
8.96
2.75
-2.91
-7.79
-11.92
-15.5
-18.91
-22.57
-26.95
-32.47
-39.44
-47.8
-56.96
-65.65
-72.04
-74.25
-70.95
-61.9
-48.07
-31.39
-14.14
1.77
15.07
25.28
32.39
36.61
38.22
37.64
35.47
32.61
30.06
28.66
28.85
30.57
33.37
36.66
39.88
42.69
44.86
46.24
46.65
45.88
43.73
40.15
35.35
29.77
23.98
18.48
13.5
8.92
4.34
-0.69
-6.38
-12.56
-18.72
-24.3
-28.97
-32.84
-36.41
-40.47
-45.83
-53.17
-62.73
-74.05
-85.76
-95.7
-101.31
-100.5
-92.33
-77.48
-58.04
-36.76
-16.25
1.66
16.1
26.92
34.34
38.76
40.64
40.55
39.22
37.47
36.04
35.5
36.1
37.82
40.35
43.26
46.13
48.65
50.71
52.28
53.28
53.53
52.66
50.35
46.46
41.22
35.2
29.17
23.76
19.28
15.55
12.06
8.18
3.5
-2.0
-7.93
-13.65
-18.63
-22.73
-26.29
-30.08
-35.0
-41.8
-50.73
-61.42
-72.67
-82.66
-89.26
-90.49
-85.26
-73.77
-57.49
-38.82
-20.22
-3.63
9.93
20.26
27.62
32.32
34.61
34.76
33.2
30.64
28.03
26.3
26.14
27.82
31.11
35.35
39.71
43.38
45.83
46.86
46.59
45.29
43.21
40.43
36.91
32.57
27.38
21.44
15.02
8.48
2.22
-3.48
-8.56
-13.17
-17.68
-22.52
-28.05
-34.62
-42.38
-51.24
-60.71
-69.66
-76.43
-79.14
-76.28
-67.32
-53.03
-35.36
-16.8
0.37
14.62
25.38
32.8
37.36
39.6
39.97
38.92
37.04
35.01
33.57
33.29
34.44
36.89
40.21
43.78
47.03
49.47
50.8
50.89
49.69
47.21
43.55
38.89
33.57
27.98
22.48
17.27
12.3
7.34
2.11
-3.56
-9.61
-15.77
-21.64
-26.97
-31.7
-36.16
-41.03
-47.13
-55.1
-64.98
-75.93
-86.13
-93.25
-95.08
-90.3
-78.97
-62.59
-43.52
-24.33
-7.08
7.05
17.71
25.17
29.93
32.49
33.28
32.71
31.28
29.61
28.38
28.23
29.5
32.16
35.75
39.62
43.05
45.47
46.62
46.45
45.08
42.68
39.42
35.43
30.8
25.61
19.98
14.12
8.34
2.99
-1.68
-5.58
-8.9
-12.0
-15.32
-19.21
-23.97
-29.79
-36.77
-44.82
-53.37
-61.25
-66.73
-67.95
-63.57
-53.33
-38.31
-20.59
-2.63
13.41
26.21
35.28
40.75
43.02
42.57
39.98
35.97
31.44
27.43
24.79
23.99
24.99
27.31
30.27
33.24
35.77
37.65
38.85
39.33
39.0
37.65
35.11
31.33
26.53
21.22
16.04
11.54
7.85
4.68
1.42
-2.5
-7.33
-12.87
-18.55
-23.79
-28.27
-32.11
-35.83
-40.12
-45.71
-53.17
-62.64
-73.61
-84.78
-94.12
-99.35
-98.6
-91.09
-77.5
-59.69
-40.24
-21.56
-5.41
7.35
16.66
22.88
26.57
28.24
28.36
27.41
25.93
24.55
23.86
24.32
26.09
29.01
32.64
36.48
40.01
42.87
44.75
45.44
44.79
42.7
39.33
34.93
29.93
24.7
19.49
14.44
9.57
4.9
0.49
-3.61
-7.37
-10.81
-14.01
-17.13
-20.39
-24.16
-28.93
-35.17
-43.07
-52.2
-61.35
-68.65
-72.04
-69.98
-62.04
-49.13
-33.2
-16.6
-1.36
11.23
20.72
27.18
30.88
32.08
31.1
28.42
24.83
21.36
18.98
18.38
19.73
22.69
26.54
30.5
33.91
36.39
37.79
38.12
37.45
35.79
33.15
29.6
25.29
20.52
15.63
10.89
6.41
2.06
-2.37
-7.1
-12.16
-17.4
-22.54
-27.33
-31.68
-35.73
-39.87
-44.71
-50.86
-58.73
-68.15
-78.16
-86.96
-92.33
-92.24
-85.66
-72.95
-55.8
-36.7
-18.07
-1.66
11.73
22.05
29.62
34.77
37.7
38.57
37.75
35.85
33.79
32.51
32.75
34.78
38.3
42.61
46.81
50.17
52.34
53.34
53.48
53.06
52.19
50.71
48.31
44.75
40.03
34.43
28.54
23.03
18.38
14.73
11.77
8.9
5.44
1.01
-4.37
-10.26
-16.04
-21.19
-25.58
-29.48
-33.5
-38.35
-44.69
-52.88
-62.82
-73.79
-84.4
-92.7
-96.6
-94.5
-85.77
-71.1
-52.3
-31.85
-12.2
4.78
18.05
27.37
33.02
35.55
35.52
33.61
30.57
27.3
24.72
23.58
24.31
26.84
30.75
35.34
39.9
43.86
46.81
48.49
48.76
47.54
44.88
40.96
36.08
30.64
25.05
19.65
14.63
9.95
5.41
0.75
-4.18
-9.35
-14.48
-19.22
-23.35
-26.96
-30.5
-34.65
-40.17
-47.58
-56.85
-67.19
-77.02
-84.18
-86.53
-82.65
-72.35
-56.9
-38.59
-19.99
-3.18
10.64
21.23
28.82
33.76
36.26
36.48
34.79
31.84
28.63
26.26
25.59
27.01
30.28
34.71
39.34
43.36
46.28
48.02
48.76
48.68
47.79
45.9
42.79
38.41
33.01
27.14
21.42
16.33
12.12
8.72
5.78
2.83
-0.6
-4.85
-9.96
-15.67
-21.45
-26.7
-31.06
-34.53
-37.54
-40.83
-45.26
-51.58
-60.2
-70.97
-82.99
-94.53
-103.29
-106.95
-103.84
-93.58
-77.25
-57.11
-35.9
-16.11
0.57
13.37
22.3
27.8
30.51
31.14
30.36
28.87
27.36
26.43
26.51
27.76
30.02
32.89
35.89
38.63
40.95
42.89
44.49
45.62
45.9
44.8
41.91
37.17
31.03
24.29
17.89
12.53
8.48
5.48
2.87
-0.08
-3.86
-8.54
-13.72
-18.77
-23.2
-26.83
-29.99
-33.34
-37.62
-43.44
-51.01
-59.99
-69.37
-77.56
-82.56
-82.58
-76.61
-64.82
-48.58
-30.03
-11.42
5.43
19.41
30.05
37.27
41.16
41.94
40.07
36.33
31.75
27.57
24.85
24.32
26.1
29.77
34.49
39.26
43.25
46.01
47.49
47.86
47.29
45.77
43.12
39.21
34.13
28.36
22.58
17.45
13.27
9.86
6.66
2.96
-1.69
-7.31
-13.5
-19.56
-24.88
-29.2
-32.67
-35.87
-39.57
-44.6
-51.56
-60.64
-71.44
-82.7
-92.41
-98.18
-97.84
-90.27
-75.83
-56.43
-34.91
-14.14
3.76
17.78
27.9
34.59
38.41
39.86
39.38
37.58
35.26
33.3
32.43
33.01
35.04
38.12
41.72
45.31
48.42
50.79
52.3
52.97
52.85
51.91
50.0
46.95
42.69
37.4
31.52
25.69
20.51
16.29
12.97
10.17
7.35
4.04
0.03
-4.55
-9.34
-13.9
-17.93
-21.4
-24.6
-28.04
-32.38
-38.22
-45.88
-55.22
-65.45
-75.12
-82.31
-85.09
-82.06
-72.85
-58.3
-40.29
-21.15
-3.04
12.48
24.69
33.46
38.92
41.34
40.99
38.37
34.3
29.94
26.5
24.93
25.56
28.07
31.68
35.55
39.06
41.92
44.0
45.23
45.41
44.27
41.6
37.47
32.23
26.49
20.88
15.94
11.84
8.4
5.17
1.66
-2.45
-7.16
-12.19
-17.1
-21.5
-25.28
-28.59
-31.88
-35.7
-40.67
-47.29
-55.66
-65.17
-74.4
-81.25
-83.52
-79.66
-69.42
-54.0
-35.69
-17.07
-0.28
13.39
23.55
30.41
34.35
35.79
35.16
32.97
29.98
27.13
25.3
25.14
26.76
29.75
33.37
36.79
39.44
41.11
41.92
42.11
41.83
41.04
39.56
37.15
33.72
29.36
24.36
19.18
14.31
10.12
6.76
4.05
1.59
-1.1
-4.35
-8.19
-12.38
-16.52
-20.36
-23.88
-27.35
-31.16
-35.73
-41.36
-48.23
-56.27
-65.06
-73.61
-80.4
-83.63
-81.76
-74.14
-61.3
-44.93
-27.31
-10.7
3.33
14.06
21.49
26.01
28.05
28.04
26.36
23.63
20.65
18.38
17.59
18.61
21.23
24.77
28.43
31.61
34.1
35.93
37.22
37.88
37.57
35.91
32.66
27.99
22.44
16.79
11.74
7.66
4.5
1.82
-0.96
-4.33
-8.48
-13.25
-18.19
-22.76
-26.62
-29.71
-32.45
-35.53
-39.82
-46.0
-54.26
-64.05
-73.96
-81.98
-85.98
-84.34
-76.52
-63.31
-46.56
-28.61
-11.64
2.88
14.32
22.73
28.48
31.97
33.54
33.5
32.28
30.44
28.7
27.72
27.97
29.58
32.26
35.43
38.38
40.54
41.61
41.68
41.03
39.94
38.56
36.76
34.33
31.04
26.92
22.21
17.35
12.83
8.97
5.89
3.37
1.04
-1.58
-4.82
-8.79
-13.28
-17.9
-22.25
-26.12
-29.6
-33.07
-37.05
-42.13
-48.72
-56.92
-66.35
-75.95
-84.12
-88.99
-88.89
-82.93
-71.37
-55.58
-37.7
-20.07
-4.64
7.46
15.91
21.08
23.63
24.28
23.63
22.2
20.52
19.2
18.82
19.8
22.17
25.61
29.48
33.2
36.38
38.91
40.79
41.98
42.26
41.3
38.83
34.93
29.99
24.67
19.61
15.28
11.74
8.76
5.87
2.63
-1.22
-5.6
-10.16
-14.48
-18.26
-21.53
-24.69
-28.42
-33.42
-40.23
-48.99
-59.23
-69.84
-79.03
-84.72
-85.07
-79.08
-67.07
-50.69
-32.42
-14.77
0.4
12.26
20.9
26.84
30.63
32.63
33.07
32.3
30.87
29.53
29.03
29.84
32.05
35.33
39.11
42.76
45.79
48.0
49.42
50.2
50.44
50.07
48.8
46.29
42.39
37.25
31.37
25.47
20.16
15.81
12.39
9.58
6.89
3.84
0.06
-4.52
-9.77
-15.3
-20.67
-25.54
-29.83
-33.8
-37.99
-43.03
-49.53
-57.85
-67.97
-79.29
-90.52
-99.72
-104.72
-103.67
-95.72
-81.46
-62.77
-42.33
-22.71
-5.79
7.57
17.34
23.93
27.82
29.4
29.12
27.54
25.46
23.8
23.33
24.51
27.36
31.43
36.06
40.58
44.49
47.57
49.78
51.13
51.51
50.67
48.35
44.48
39.32
33.51
27.82
22.93
19.09
16.06
13.24
9.96
5.77
0.64
-5.07
-10.77
-15.94
-20.36
-24.24
-28.13
-32.83
-39.09
-47.41
-57.75
-69.34
-80.63
-89.5
-93.7
-91.55
-82.48
-67.38
-48.3
-27.9
-8.62
7.86
20.88
30.5
37.18
41.34
43.28
43.31
41.92
39.89
38.2
37.74
39.1
42.34
47.0
52.27
57.29
61.38
64.2
65.74
66.16
65.63
64.17
61.62
57.86
52.85
46.82
40.25
33.7
27.64
22.35
17.81
13.77
9.86
5.68
0.93
-4.55
-10.67
-17.17
-23.64
-29.72
-35.25
-40.29
-45.17
-50.41
-56.61
-64.37
-74.07
-85.53
-97.69
-108.52
-115.39
-115.86
-108.53
-93.68
-73.22
-50.1
-27.31
-7.12
9.32
21.78
30.58
36.16
38.87
39.11
37.4
34.53
31.48
29.26
28.64
29.92
32.85
36.76
40.85
44.52
47.56
50.04
52.1
53.56
53.96
52.63
49.15
43.65
36.89
29.96
23.87
19.16
15.63
12.62
9.24
4.89
-0.59
-6.82
-13.13
-18.85
-23.61
-27.48
-30.97
-34.84
-39.97
-47.1
-56.56
-67.97
-80.09
-90.85
-97.72
-98.42
-91.71
-77.85
-58.61
-36.7
-14.97
4.37
20.06
31.79
39.77
44.46
46.31
45.8
43.55
40.42
37.43
35.62
35.73
38.03
42.22
47.55
53.03
57.8
61.32
63.43
64.29
64.1
62.99
60.9
57.72
53.38
48.06
42.13
36.14
30.53
25.61
21.49
18.0
14.84
11.59
7.83
3.23
-2.35
-8.78
-15.72
-22.73
-29.44
-35.7
-41.68
-47.8
-54.72
-63.1
-73.41
-85.55
-98.62
-110.78
-119.53
-122.39
-117.71
-105.3
-86.6
-64.27
-41.31
-20.27
-2.7
10.89
20.66
27.05
30.54
31.51
30.51
28.29
25.86
24.27
24.26
26.1
29.51
33.83
38.29
42.35
45.76
48.5
50.54
51.67
51.51
49.6
45.75
40.17
33.49
26.65
20.49
15.54
11.86
9.02
6.34
3.17
-0.86
-5.7
-10.94
-16.02
-20.49
-24.29
-27.78
-31.76
-37.2
-44.92
-55.17
-67.35
-79.91
-90.57
-96.89
-96.93
-89.86
-76.24
-57.86
-37.18
-16.67
1.74
16.96
28.57
36.62
41.34
43.02
42.13
39.41
35.93
32.91
31.37
31.89
34.41
38.31
42.72
46.8
50.04
52.25
53.56
54.18
54.17
53.43
51.71
48.68
44.24
38.57
32.22
25.89
20.23
15.53
11.6
7.83
3.49
-1.88
-8.28
-15.2
-21.89
-27.69
-32.41
-36.31
-40.13
-44.76
-51.06
-59.6
-70.43
-82.84
-95.24
-105.27
-110.32
-108.3
-98.34
-81.22
-59.21
-35.28
-12.28
7.77
23.86
35.92
44.32
49.57
52.16
52.61
51.55
49.74
48.02
47.13
47.53
49.31
52.15
55.55
58.93
61.88
64.2
65.85
66.77
66.78
65.57
62.8
58.3
52.24
45.15
37.85
31.17
25.71
21.57
18.36
15.33
11.69
6.93
1.06
-5.42
-11.72
-17.23
-21.71
-25.5
-29.32
-34.07
-40.58
-49.32
-60.24
-72.57
-84.75
-94.64
-99.83
-98.42
-89.6
-73.97
-53.55
-31.16
-9.68
8.73
22.9
32.69
38.59
41.34
41.66
40.18
37.54
34.55
32.16
31.27
32.44
35.64
40.23
45.22
49.69
53.09
55.36
56.75
57.4
57.19
55.67
52.36
47.11
40.27
32.63
25.15
18.49
12.86
7.95
3.14
-2.09
-7.98
-14.37
-20.8
-26.76
-31.98
-36.6
-41.2
-46.65
-53.82
-63.26
-74.84
-87.57
-99.59
-108.42
-111.64
-107.59
-95.96
-78.0
-56.17
-33.39
-12.16
5.95
20.45
31.48
39.44
44.66
47.38
47.94
47.02
45.5
44.34
44.3
45.66
48.28
51.69
55.31
58.65
61.41
63.48
64.8
65.25
64.6
62.54
58.83
53.53
47.02
39.96
33.09
26.97
21.83
17.5
13.5
9.26
4.29
-1.64
-8.33
-15.31
-21.91
-27.63
-32.32
-36.34
-40.41
-45.46
-52.26
-61.25
-72.27
-84.38
-95.83
-104.24
-107.14
-102.73
-90.65
-72.23
-50.17
-27.7
-7.53
8.84
21.08
29.65
35.17
38.05
38.6
37.24
34.67
31.89
29.87
29.3
30.39
32.92
36.4
40.32
44.14
47.41
49.74
50.79
50.29
48.1
44.32
39.18
33.14
26.75
20.49
14.71
9.48
4.65
-0.06
-4.88
-9.87
-14.91
-19.77
-24.27
-28.4
-32.44
-36.93
-42.63
-50.24
-60.14
-71.86
-83.99
-94.22
-99.91
-98.95
-90.45
-75.19
-55.29
-33.65
-12.98
4.83
18.95
29.44
36.78
41.51
43.94
44.38
43.19
41.05
38.88
37.64
37.99
40.05
43.39
47.24
50.86
53.76
55.83
57.15
57.79
57.67
56.53
54.04
49.99
44.41
37.68
30.46
23.58
17.7
13.11
9.6
6.46
2.86
-1.81
-7.65
-14.21
-20.74
-26.57
-31.42
-35.54
-39.55
-44.27
-50.49
-58.76
-69.19
-81.18
-93.29
-103.3
-108.7
-107.39
-98.43
-82.47
-61.6
-38.76
-16.84
2.0
16.69
27.12
33.71
37.09
37.79
36.33
33.35
29.74
26.6
24.95
25.4
27.92
31.91
36.44
40.67
44.12
46.68
48.41
49.33
49.21
47.73
44.62
39.88
33.87
27.27
20.87
15.31
10.88
7.39
4.28
0.87
-3.31
-8.31
-13.7
-18.8
-23.1
-26.53
-29.59
-33.19
-38.3
-45.66
-55.39
-66.83
-78.47
-88.07
-93.19
-91.89
-83.39
-68.44
-49.2
-28.51
-9.0
7.53
20.38
29.7
35.97
39.68
41.14
40.65
38.69
36.04
33.66
32.45
32.99
35.28
38.81
42.77
46.33
49.01
50.71
51.62
51.98
51.83
50.89
48.68
44.82
39.29
32.5
25.3
18.62
13.17
9.16
6.24
3.65
0.47
-3.92
-9.68
-16.4
-23.26
-29.5
-34.66
-38.82
-42.57
-46.79
-52.41
-60.13
-70.19
-82.16
-94.69
-105.63
-112.33
-112.4
-104.54
-89.14
-68.26
-45.07
-22.73
-3.6
11.28
21.97
29.13
33.49
35.58
35.79
34.57
32.59
30.71
29.75
30.29
32.38
35.53
39.02
42.1
44.37
45.87
46.89
47.68
48.15
47.87
46.24
42.88
37.92
31.97
25.9
20.48
16.08
12.58
9.52
6.3
2.44
-2.24
-7.56
-13.06
-18.2
-22.59
-26.22
-29.54
-33.35
-38.54
-45.81
-55.34
-66.54
-78.0
-87.62
-93.09
-92.49
-84.96
-71.0
-52.44
-31.84
-11.75
5.94
20.28
31.11
38.64
43.12
44.77
43.89
41.05
37.18
33.41
30.76
29.85
30.73
32.96
35.84
38.65
40.94
42.54
43.43
43.55
42.73
40.55
36.67
31.0
23.9
16.18
8.84
2.63
-2.19
-6.0
-9.51
-13.42
-18.07
-23.37
-28.91
-34.25
-39.13
-43.55
-47.86
-52.6
-58.47
-66.1
-75.8
-87.21
-99.04
-109.17
-115.06
-114.52
-106.5
-91.48
-71.38
-49.0
-27.14
-7.87
7.75
19.63
28.14
33.8
37.02
38.2
37.86
36.76
35.77
35.63
36.7
38.87
41.69
44.61
47.27
49.54
51.44
52.95
53.99
54.29
53.53
51.43
47.88
42.98
37.14
30.97
25.16
20.2
16.21
12.88
9.6
5.77
1.14
-4.14
-9.58
-14.63
-19.01
-22.77
-26.4
-30.56
-36.01
-43.35
-52.8
-63.95
-75.57
-85.68
-91.88
-92.11
-85.28
-71.79
-53.48
-33.07
-13.31
3.73
17.04
26.58
32.8
36.28
37.47
36.68
34.38
31.26
28.27
26.37
26.24
28.06
31.49
35.84
40.36
44.39
47.5
49.45
50.07
49.22
46.85
43.03
37.99
32.13
25.86
19.48
13.16
6.9
0.69
-5.44
-11.34
-16.79
-21.62
-25.82
-29.68
-33.73
-38.7
-45.27
-53.83
-64.14
-75.23
-85.3
-92.11
-93.55
-88.3
-76.38
-59.21
-39.2
-19.03
-0.82
14.19
25.68
33.87
39.14
41.78
42.11
40.66
38.27
36.02
34.89
35.49
37.83
41.4
45.41
49.15
52.21
54.48
56.07
57.02
57.19
56.22
53.71
49.43
43.6
36.86
30.06
23.98
18.95
14.76
10.79
6.29
0.77
-5.77
-12.87
-19.86
-26.11
-31.35
-35.76
-39.91
-44.55
-50.43
-58.13
-67.88
-79.39
-91.62
-102.76
-110.52
-112.63
-107.63
-95.43
-77.4
-56.03
-34.13
-14.04
2.82
15.99
25.62
32.1
35.8
37.1
36.51
34.77
32.77
31.41
31.29
32.68
35.44
39.14
43.25
47.23
50.56
52.82
53.67
52.93
50.62
46.95
42.25
36.98
31.51
26.12
20.93
15.92
10.97
5.98
0.93
-4.09
-8.9
-13.37
-17.47
-21.38
-25.47
-30.3
-36.44
-44.27
-53.72
-63.97
-73.4
-79.8
-81.02
-75.64
-63.57
-46.19
-25.94
-5.61
12.52
27.1
37.82
45.01
49.2
50.85
50.3
47.97
44.55
41.04
38.51
37.79
39.13
42.13
45.9
49.51
52.31
54.08
54.97
55.18
54.72
53.31
50.53
46.07
40.04
33.02
25.91
19.61
14.66
11.03
8.12
5.02
0.93
-4.49
-10.99
-17.85
-24.27
-29.71
-34.2
-38.29
-42.87
-48.83
-56.88
-67.15
-79.15
-91.52
-102.18
-108.67
-108.87
-101.69
-87.55
-68.33
-46.78
-25.69
-7.16
7.78
18.94
26.66
31.42
33.67
33.94
32.88
31.28
30.04
29.88
31.22
34.05
37.96
42.24
46.2
49.35
51.56
52.95
53.72
53.89
53.18
51.17
47.54
42.37
36.15
29.72
23.86
18.95
14.9
11.23
7.34
2.9
-2.08
-7.3
-12.3
-16.78
-20.76
-24.59
-28.87
-34.33
-41.56
-50.78
-61.52
-72.56
-81.94
-87.43
-87.1
-80.03
-66.66
-48.75
-28.81
-9.39
7.55
21.01
30.79
37.16
40.53
41.27
39.86
36.99
33.63
30.93
29.85
30.85
33.74
37.74
41.83
45.19
47.41
48.55
48.89
48.63
47.73
45.88
42.73
38.05
32.04
25.25
18.49
12.52
7.71
3.95
0.64
-2.94
-7.35
-12.68
-18.57
-24.45
-29.79
-34.43
-38.62
-42.93
-48.13
-54.94
-63.82
-74.75
-86.9
-98.55
-107.24
-110.5
-106.6
-95.33
-78.11
-57.54
-36.55
-17.47
-1.6
10.75
19.83
26.03
29.64
30.88
30.12
27.99
25.38
23.28
22.43
23.18
25.41
28.63
32.21
35.6
38.48
40.74
42.36
43.23
43.17
41.86
39.06
34.79
29.42
23.6
18.09
13.49
9.98
7.26
4.71
1.6
-2.51
-7.6
-13.21
-18.66
-23.41
-27.31
-30.67
-34.21
-38.83
-45.31
-54.09
-64.93
-76.74
-87.63
-95.17
-97.12
-92.12
-80.18
-62.75
-42.26
-21.31
-2.08
14.11
26.75
35.81
41.52
44.17
44.16
42.14
39.03
35.9
33.83
33.54
35.24
38.59
42.8
46.97
50.36
52.7
54.06
54.72
54.84
54.27
52.59
49.4
44.54
38.33
31.49
24.89
19.14
14.44
10.44
6.48
1.93
-3.53
-9.77
-16.31
-22.55
-28.06
-32.76
-36.98
-41.29
-46.4
-53.03
-61.73
-72.68
-85.31
-98.17
-108.86
-114.64
-113.19
-103.58
-86.63
-64.77
-41.25
-19.11
-0.41
14.1
24.63
31.91
36.62
39.2
40.0
39.39
38.03
36.73
36.3
37.22
39.5
42.7
46.13
49.22
51.68
53.56
55.05
56.26
57.04
57.02
55.74
52.87
48.44
42.78
36.51
30.33
24.81
20.22
16.45
13.0
9.26
4.69
-0.9
-7.22
-13.72
-19.75
-24.98
-29.5
-33.85
-38.83
-45.26
-53.7
-64.26
-76.4
-88.78
-99.42
-105.95
-106.33
-99.41
-85.44
-66.09
-43.93
-21.7
-1.62
14.99
27.66
36.45
41.66
43.65
42.9
40.17
36.51
33.16
31.22
31.36
33.67
37.61
42.37
47.09
51.17
54.29
56.38
57.38
57.13
55.36
51.88
46.77
40.45
33.61
27.04
21.22
16.18
11.55
6.71
1.14
-5.25
-12.16
-18.97
-25.04
-29.98
-33.94
-37.53
-41.73
-47.57
-55.81
-66.53
-78.89
-91.02
-100.4
-104.47
-101.35
-90.6
-73.38
-52.14
-29.86
-9.16
8.32
22.05
32.29
39.59
44.34
46.7
46.85
45.25
42.8
40.7
40.07
41.56
45.1
50.0
55.24
59.92
63.5
65.91
67.37
68.12
68.17
67.28
65.01
61.08
55.48
48.7
41.53
34.84
29.24
24.92
21.55
18.55
15.29
11.32
6.5
0.99
-4.88
-10.79
-16.54
-22.08
-27.6
-33.43
-40.07
-48.09
-57.95
-69.73
-82.75
-95.42
-105.35
-110.03
-107.56
-97.45
-80.84
-60.16
-38.33
-17.94
-0.64
12.89
22.64
28.92
32.1
32.64
31.1
28.25
25.0
22.22
20.63
20.7
22.55
25.93
30.22
34.62
38.31
40.7
41.61
41.18
39.73
37.54
34.76
31.33
27.15
22.19
16.57
10.53
4.44
-1.32
-6.46
-10.86
-14.64
-18.14
-21.83
-26.22
-31.79
-38.93
-47.77
-58.02
-68.74
-78.27
-84.43
-85.2
-79.35
-67.03
-49.85
-30.29
-11.04
5.86
19.31
29.07
35.44
38.9
39.94
39.16
37.23
34.99
33.27
32.72
33.68
36.12
39.67
43.78
47.93
51.68
54.69
56.66
57.33
56.37
53.58
48.99
42.9
35.92
28.76
22.05
16.11
10.84
5.89
0.77
-4.84
-10.95
-17.24
-23.22
-28.43
-32.72
-36.4
-40.15
-44.94
-51.63
-60.65
-71.59
-83.07
-92.89
-98.55
-97.95
-90.14
-75.73
-56.67
-35.76
-15.73
1.43
14.79
24.39
30.77
34.58
36.35
36.49
35.45
33.84
32.4
31.83
32.56
34.64
37.68
41.08
44.16
46.48
47.79
48.06
47.32
45.57
42.72
38.77
33.83
28.3
22.68
17.45
12.84
8.7
4.59
0.07
-5.07
-10.67
-16.3
-21.54
-26.22
-30.52
-34.9
-39.93
-46.11
-53.79
-62.89
-72.8
-82.19
-89.11
-91.48
-87.75
-77.5
-61.76
-42.72
-22.96
-4.74
10.53
22.34
30.8
36.2
38.86
39.07
37.29
34.27
31.06
28.75
28.23
29.86
33.37
37.98
42.7
46.59
49.09
49.92
49.08
46.66
42.8
37.77
31.98
25.98
20.24
15.01
10.14
5.24
-0.1
-6.06
-12.43
-18.72
-24.4
-29.23
-33.3
-37.11
-41.39
-46.89
-54.28
-63.78
-74.94
-86.41
-96.05
-101.42
-100.49
-92.47
-78.05
-59.35
-39.11
-19.9
-3.41
9.69
19.55
26.65
31.42
34.2
35.25
35.03
34.22
33.69
34.23
36.3
39.82
44.21
48.63
52.25
54.6
55.66
55.75
55.25
54.35
52.92
50.6
47.05
42.18
36.3
30.04
24.13
19.12
15.14
11.84
8.6
4.75
-0.13
-6.0
-12.44
-18.85
-24.74
-29.99
-34.86
-39.92
-45.8
-53.09
-62.18
-73.13
-85.43
-97.84
-108.38
-114.69
-114.71
-107.42
-93.31
-74.28
-53.09
-32.38
-14.12
0.75
12.1
20.16
25.25
27.66
27.75
26.17
23.82
21.78
20.98
22.03
25.03
29.58
34.97
40.41
45.2
48.87
51.09
51.71
50.63
47.85
43.57
38.16
32.16
26.09
20.35
15.02
10.0
5.06
0.01
-5.18
-10.39
-15.48
-20.37
-25.11
-29.98
-35.44
-42.08
-50.42
-60.69
-72.46
-84.43
-94.53
-100.35
-99.83
-92.03
-77.49
-58.11
-36.61
-15.65
2.84
17.93
29.54
37.97
43.53
46.43
46.91
45.59
43.47
41.84
41.77
43.8
47.71
52.72
57.89
62.47
66.11
68.75
70.42
71.05
70.43
68.26
64.38
58.92
52.31
45.26
38.51
32.63
27.74
23.52
19.29
14.38
8.43
1.61
-5.5
-12.17
-17.91
-22.71
-26.99
-31.53
-37.22
-44.92
-55.21
-68.05
-82.49
-96.53
-107.4
-112.26
-109.15
-97.71
-79.42
-57.07
-33.93
-12.72
4.9
18.37
27.96
34.19
37.61
38.7
37.95
36.0
