0
-49.48
-55.88
-61.24
-65.51
-68.98
-72.21
-76.1
-81.69
-89.81
-100.63
-113.12
-124.85
-132.37
-132.19
-121.94
-101.37
-72.55
-39.24
-5.67
24.6
49.41
67.97
80.39
87.27
89.33
87.42
82.61
76.11
69.17
62.88
57.94
54.67
53.08
52.91
53.79
55.38
57.4
59.6
61.78
63.61
64.67
64.52
62.84
59.55
54.84
49.05
42.54
35.54
28.27
20.93
13.87
7.43
1.81
-3.11
-7.77
-12.77
-18.59
-25.32
-32.63
-39.94
-46.68
-52.64
-57.94
-63.04
-68.48
-74.88
-82.82
-92.76
-104.76
-117.95
-130.21
-138.29
-138.62
-128.54
-107.44
-77.25
-41.95
-6.29
25.62
51.24
69.8
81.77
88.1
89.77
87.64
82.63
75.86
68.62
62.08
57.1
54.03
52.76
52.97
54.26
56.34
58.98
62.01
65.11
67.89
69.88
70.62
69.77
67.22
63.07
57.63
51.21
44.07
36.33
28.08
19.48
10.87
2.73
-4.54
-10.81
-16.3
-21.6
-27.35
-33.89
-41.15
-48.6
-55.56
-61.49
-66.27
-70.2
-73.99
-78.57
-84.9
-93.71
-105.0
-117.63
-129.08
-135.83
-134.25
-122.03
-99.08
-67.86
-32.59
2.08
32.47
56.59
74.11
85.58
91.78
93.34
90.78
84.83
76.64
67.64
59.21
52.35
47.52
44.68
43.58
43.88
45.29
47.53
50.24
53.01
55.34
56.74
56.77
55.08
51.45
45.84
38.45
29.77
20.5
11.44
3.21
-3.89
-9.96
-15.46
-20.98
-27.0
-33.69
-40.86
-48.01
-54.54
-60.0
-64.29
-67.74
-71.04
-75.13
-81.04
-89.51
-100.61
-113.25
-125.05
-132.68
-132.72
-122.85
-102.76
-74.43
-41.53
-8.29
21.76
46.43
64.97
77.6
84.94
87.61
86.13
81.21
73.73
64.9
56.0
48.25
42.57
39.39
38.67
39.95
42.56
45.84
49.24
52.44
55.16
57.15
58.0
57.27
54.59
49.8
43.08
34.89
25.93
16.9
8.41
0.81
-5.92
-12.13
-18.41
-25.35
-33.31
-42.16
-51.33
-59.99
-67.45
-73.48
-78.4
-83.0
-88.23
-95.04
-104.08
-115.47
-128.55
-141.49
-151.36
-154.63
-148.17
-130.48
-102.47
-67.33
-29.64
6.06
36.51
60.22
77.22
88.28
94.32
96.06
94.12
89.23
82.4
74.81
67.64
61.82
57.85
55.82
55.49
56.46
58.26
60.5
62.83
64.97
66.61
67.44
67.07
65.12
61.33
55.59
48.11
39.32
29.94
20.71
12.28
4.98
-1.32
-7.13
-13.17
-20.03
-27.96
-36.7
-45.61
-53.96
-61.22
-67.24
-72.37
-77.29
-82.9
-90.14
-99.78
-111.98
-125.76
-138.69
-147.2
-147.41
-136.57
-114.13
-82.17
-44.83
-6.91
27.51
55.97
77.64
92.87
102.37
106.89
107.12
103.81
97.93
90.71
83.37
77.01
72.38
69.75
68.95
69.53
70.92
72.66
74.5
76.3
77.88
78.93
78.96
77.39
73.82
68.11
60.48
51.46
41.71
31.93
22.66
14.21
6.53
-0.7
-8.05
-16.0
-24.75
-34.14
-43.63
-52.55
-60.3
-66.68
-71.94
-76.8
-82.26
-89.41
-99.13
-111.63
-126.06
-140.26
-150.94
-154.36
-147.48
-129.06
-100.27
-64.53
-26.44
9.54
40.21
64.05
80.97
91.63
96.84
97.23
93.45
86.38
77.3
67.8
59.46
53.45
50.21
49.5
50.58
52.67
55.2
57.92
60.73
63.41
65.44
65.97
64.14
59.38
51.75
41.93
31.07
20.4
10.82
2.6
-4.62
-11.64
-19.26
-27.88
-37.25
-46.53
-54.69
-60.97
-65.26
-68.21
-71.0
-75.03
-81.52
-91.05
-103.26
-116.45
-127.69
-133.33
-130.02
-115.94
-91.55
-59.68
-24.54
9.52
39.27
63.11
80.76
92.61
99.04
100.24
96.42
88.3
77.26
65.17
54.03
45.33
39.79
37.31
37.24
38.75
41.18
44.13
47.4
50.79
53.83
55.78
55.77
53.03
47.33
39.06
29.21
19.02
9.58
1.39
-5.76
-12.67
-20.25
-29.13
-39.26
-49.93
-60.06
-68.64
-75.2
-79.93
-83.64
-87.52
-92.86
-100.76
-111.78
-125.46
-139.95
-151.97
-157.46
-152.77
-136.08
-108.21
-72.55
-34.0
2.67
34.02
58.45
75.95
87.22
93.09
94.2
91.23
85.08
77.03
68.58
61.1
55.58
52.39
51.38
52.0
53.63
55.72
57.98
60.37
62.88
65.29
67.04
67.26
64.99
59.7
51.5
41.29
30.4
20.17
11.35
3.9
-2.94
-10.18
-18.56
-28.24
-38.7
-49.06
-58.46
-66.39
-72.82
-78.22
-83.4
-89.43
-97.43
-108.23
-121.87
-136.98
-150.68
-158.96
-157.89
-144.97
-120.22
-86.34
-47.85
-9.65
24.29
51.73
72.1
85.86
93.89
97.04
96.08
91.85
85.46
78.18
71.32
65.93
62.58
61.27
61.51
62.57
63.79
64.83
65.68
66.54
67.52
68.36
68.43
66.88
63.03
56.66
48.12
38.3
28.27
18.9
10.64
3.37
-3.47
-10.61
-18.6
-27.59
-37.25
-46.89
-55.7
-63.12
-69.02
-73.8
-78.33
-83.73
-91.18
-101.47
-114.55
-129.03
-142.09
-149.91
-148.69
-135.97
-111.62
-78.12
-39.82
-1.57
32.56
60.23
80.78
94.7
102.91
106.2
105.2
100.58
93.27
84.51
75.76
68.32
63.03
60.09
59.18
59.67
60.92
62.53
64.38
66.46
68.65
70.55
71.44
70.48
67.02
60.86
52.35
42.32
31.79
21.7
12.67
4.84
-2.13
-8.85
-16.02
-24.03
-32.8
-41.73
-49.93
-56.57
-61.31
-64.52
-67.21
-70.69
-76.25
-84.74
-96.23
-109.75
-123.18
-133.38
-136.87
-130.74
-113.74
-86.86
-53.22
-17.2
16.83
45.63
67.59
82.53
91.12
94.2
92.54
86.87
78.13
67.59
56.85
47.44
40.47
36.38
34.9
35.41
37.25
40.0
43.48
47.48
51.52
54.68
55.85
54.11
49.16
41.55
32.41
23.06
14.47
6.93
0.06
-6.96
-14.85
-23.98
-34.13
-44.6
-54.48
-63.0
-69.89
-75.44
-80.63
-86.77
-95.15
-106.37
-119.82
-133.33
-143.53
-146.59
-139.56
-121.41
-93.5
-59.23
-22.99
11.15
40.36
63.35
80.02
90.84
96.36
97.05
93.44
86.38
77.21
67.54
58.96
52.58
48.8
47.32
47.39
48.31
49.67
51.44
53.74
56.4
58.82
59.95
58.73
54.47
47.24
37.79
27.29
16.88
7.28
-1.33
-9.23
-17.03
-25.38
-34.71
-45.03
-55.94
-66.58
-76.02
-83.61
-89.29
-93.68
-98.06
-103.93
-112.58
-124.53
-138.94
-153.45
-164.42
-167.75
-160.19
-140.5
-110.12
-72.81
-33.51
3.18
34.09
57.93
74.85
85.73
91.48
92.82
90.4
85.09
78.11
70.84
64.54
59.97
57.26
56.0
55.56
55.41
55.32
55.39
55.78
56.51
57.24
57.31
55.9
52.27
46.1
37.56
27.35
16.5
6.04
-3.26
-11.17
-18.03
-24.6
-31.68
-39.73
-48.6
-57.59
-65.75
-72.25
-76.83
-79.78
-81.9
-84.18
-87.66
-93.29
-101.65
-112.52
-124.42
-134.51
-138.99
-134.37
-118.72
-92.62
-59.08
-22.49
12.76
43.56
68.42
87.18
100.23
108.02
110.88
109.25
104.04
96.65
88.73
81.84
77.01
74.56
74.2
75.26
77.05
79.09
81.13
83.12
84.95
86.38
86.94
86.09
83.28
78.2
70.87
61.65
51.27
40.58
30.39
21.13
12.81
4.99
-2.97
-11.61
-21.1
-31.18
-41.26
-50.65
-58.85
-65.68
-71.43
-76.7
-82.35
-89.37
-98.57
-110.34
-124.16
-138.28
-149.68
-154.66
-149.91
-133.72
-106.79
-72.16
-34.27
2.38
34.48
60.34
79.65
92.81
100.28
102.36
99.43
92.28
82.39
71.58
61.77
54.35
49.88
48.07
48.11
49.07
50.41
52.03
54.1
56.66
59.29
60.99
60.55
57.08
50.49
41.61
31.88
22.7
14.96
8.62
2.97
-3.03
-10.15
-18.6
-27.94
-37.28
-45.62
-52.19
-56.76
-59.77
-62.27
-65.71
-71.52
-80.52
-92.42
-105.43
-116.44
-121.64
-117.66
-102.7
-77.24
-44.02
-7.26
28.55
59.82
84.42
101.71
112.05
116.23
115.09
109.49
100.47
89.4
77.91
67.6
59.7
54.74
52.49
52.16
52.81
53.72
54.65
55.77
57.35
59.28
60.9
61.03
58.51
52.63
43.59
32.49
20.85
10.13
1.06
-6.4
-12.96
-19.56
-26.92
-35.26
-44.24
-53.2
-61.44
-68.49
-74.3
-79.27
-84.2
-90.08
-97.92
-108.28
-120.86
-134.08
-145.05
-150.07
-145.71
-130.04
-103.48
-68.94
-30.87
6.01
38.04
63.23
81.16
92.38
97.78
98.21
94.52
87.69
78.95
69.7
61.35
54.96
51.09
49.66
50.07
51.41
52.89
54.06
54.89
55.62
56.39
56.89
56.39
53.95
48.94
41.34
31.81
21.53
11.67
2.98
-4.38
-10.88
-17.32
-24.5
-32.87
-42.37
-52.36
-61.93
-70.28
-76.99
-82.29
-86.91
-91.91
-98.4
-107.23
-118.73
-132.24
-145.91
-156.62
-160.62
-154.61
-136.95
-108.49
-72.51
-33.75
3.04
34.39
58.71
76.1
87.56
94.23
96.84
95.82
91.6
84.96
77.16
69.67
63.74
60.07
58.61
58.74
59.68
60.89
62.18
63.61
65.17
66.63
67.4
66.84
64.42
59.94
53.57
45.75
37.09
28.25
19.84
12.26
5.54
-0.64
-6.92
-13.93
-22.03
-31.05
-40.38
-49.17
-56.72
-62.76
-67.53
-71.67
-76.08
-81.75
-89.58
-100.15
-113.21
-127.29
-139.51
-146.04
-143.22
-128.87
-103.29
-69.42
-31.87
4.5
35.99
60.77
78.63
90.3
96.63
98.29
95.81
89.92
81.73
72.7
64.27
57.58
53.13
50.88
50.36
50.98
52.26
53.91
55.81
57.83
59.72
60.93
60.76
58.54
53.86
46.81
38.01
28.46
19.25
11.18
4.52
-1.11
-6.48
-12.43
-19.44
-27.43
-35.8
-43.71
-50.51
-55.99
-60.43
-64.5
-69.09
-75.15
-83.5
-94.49
-107.47
-120.51
-130.41
-133.51
-126.89
-109.58
-83.0
-50.67
-16.89
14.45
40.84
61.21
75.58
84.33
87.88
86.57
80.96
71.99
61.06
49.84
40.0
32.86
29.04
28.42
30.24
33.43
37.01
40.32
43.15
45.51
47.31
48.22
47.67
45.05
40.06
32.87
24.19
14.94
6.08
-1.82
-8.72
-15.07
-21.59
-28.9
-37.2
-46.23
-55.33
-63.84
-71.34
-77.79
-83.5
-89.03
-95.08
-102.44
-111.85
-123.63
-137.13
-150.29
-159.74
-161.57
-152.66
-131.94
-100.97
-63.58
-24.59
11.56
41.93
65.38
82.11
92.97
98.84
100.34
98.06
92.68
85.28
77.17
69.69
63.89
60.26
58.68
58.66
59.56
60.84
62.23
63.6
64.88
65.86
66.17
65.27
62.65
57.95
51.16
42.64
33.12
23.47
14.46
6.54
-0.31
-6.48
-12.6
-19.22
-26.67
-34.89
-43.48
-51.82
-59.33
-65.63
-70.71
-74.97
-79.15
-84.3
-91.52
-101.58
-114.35
-128.31
-140.46
-146.84
-143.77
-129.12
-103.31
-69.27
-31.5
5.35
37.72
63.72
82.92
95.71
102.73
104.6
102.03
95.98
87.77
78.9
70.75
64.36
60.2
58.29
58.24
59.54
61.7
64.34
67.21
70.06
72.52
74.1
74.31
72.81
69.48
64.53
58.28
51.1
43.27
34.97
26.4
17.81
9.52
1.87
-5.01
-11.26
-17.35
-23.87
-31.28
-39.64
-48.56
-57.28
-65.05
-71.46
-76.67
-81.46
-87.01
-94.58
-105.05
-118.33
-133.04
-146.38
-154.6
-154.0
-142.15
-118.9
-86.6
-49.41
-12.05
21.6
49.21
70.07
84.51
93.21
96.8
95.83
91.01
83.43
74.46
65.59
57.94
52.2
48.46
46.4
45.64
45.84
46.86
48.64
51.04
53.7
55.98
57.05
56.11
52.63
46.56
38.38
29.01
19.55
10.94
3.63
-2.57
-8.34
-14.58
-21.93
-30.47
-39.66
-48.56
-56.29
-62.38
-66.98
-70.78
-74.77
-79.98
-87.24
-96.92
-108.65
-120.96
-131.27
-136.22
-132.57
-118.35
-93.75
-61.36
-25.41
9.53
39.9
63.81
81.04
92.26
98.29
99.69
96.78
90.07
80.59
69.86
59.6
51.26
45.61
42.65
41.79
42.26
43.44
45.03
46.97
49.28
51.78
54.03
55.29
54.79
51.92
46.44
38.67
29.39
19.68
10.56
2.66
-3.89
-9.57
-15.12
-21.3
-28.52
-36.71
-45.38
-53.79
-61.29
-67.53
-72.59
-76.98
-81.51
-87.23
-95.15
-105.79
-118.71
-132.1
-142.84
-147.21
-141.98
-125.66
-99.17
-65.73
-29.77
4.39
33.62
56.47
72.86
83.46
89.1
90.51
88.32
83.25
76.26
68.41
60.83
54.48
49.98
47.52
46.97
47.91
49.87
52.48
55.48
58.65
61.66
64.03
65.1
64.31
61.31
56.13
49.13
40.86
31.93
22.95
14.38
6.54
-0.56
-7.21
-13.97
-21.38
-29.73
-38.78
-47.88
-56.21
-63.22
-68.9
-73.74
-78.61
-84.42
-92.01
-101.9
-114.13
-127.82
-140.85
-149.96
-151.47
-142.51
-122.25
-92.43
-56.92
-20.48
12.77
40.27
61.24
76.1
85.68
90.71
91.73
89.3
84.24
77.71
70.97
65.17
61.01
58.75
58.24
59.07
60.73
62.76
64.77
66.41
67.46
67.71
66.96
65.05
61.8
57.12
51.07
43.91
36.15
28.38
21.1
14.56
8.64
2.97
-2.98
-9.66
-17.28
-25.75
-34.69
-43.55
-51.7
-58.68
-64.3
-68.73
-72.62
-76.94
-82.86
-91.35
-102.72
-116.1
-129.19
-138.53
-140.42
-132.1
-112.87
-84.46
-50.58
-15.7
16.2
42.58
62.55
76.42
85.01
89.1
89.19
85.73
79.34
71.12
62.48
54.89
49.49
46.68
46.12
47.0
48.41
49.8
51.03
52.25
53.58
54.79
55.27
54.25
51.1
45.65
38.29
29.88
21.44
13.81
7.4
2.01
-3.02
-8.57
-15.34
-23.52
-32.67
-41.88
-50.16
-56.89
-62.05
-66.2
-70.34
-75.58
-82.8
-92.49
-104.36
-117.15
-128.57
-135.59
-135.19
-125.38
-106.02
-79.01
-47.8
-16.27
12.34
36.14
54.51
67.63
75.87
79.49
78.7
73.98
66.33
57.26
48.46
41.43
37.03
35.35
35.88
37.77
40.2
42.61
44.8
46.77
48.47
49.67
49.87
48.39
44.73
38.74
30.86
21.96
13.14
5.31
-1.19
-6.62
-11.75
-17.44
-24.23
-32.1
-40.5
-48.58
-55.62
-61.29
-65.75
-69.57
-73.59
-78.77
-85.99
-95.78
-107.76
-120.33
-130.56
-134.81
-129.95
-114.48
-89.34
-57.65
-23.71
8.38
35.84
57.42
73.14
83.51
89.09
90.31
87.74
82.27
75.13
67.66
61.03
56.01
52.85
51.44
51.39
52.23
53.56
55.12
56.82
58.62
60.41
61.82
62.13
60.49
56.26
49.28
40.17
30.08
20.35
11.98
5.2
-0.52
-6.2
-12.8
-20.77
-29.8
-39.07
-47.56
-54.54
-59.86
-63.92
-67.59
-71.92
-78.01
-86.64
-97.93
-110.94
-123.45
-132.26
-133.91
-125.87
-107.49
-80.41
-48.11
-14.84
15.62
40.85
59.98
73.35
81.78
86.09
86.9
84.68
80.09
74.11
67.94
62.79
59.44
58.1
58.36
59.48
60.74
61.73
62.46
63.2
64.11
65.06
65.47
64.52
61.53
56.17
48.7
39.84
30.5
21.56
13.54
6.56
0.32
-5.74
-12.19
-19.42
-27.46
-35.93
-44.19
-51.61
-57.78
-62.76
-67.04
-71.4
-76.76
-84.0
-93.63
-105.42
-118.0
-128.77
-134.39
-131.67
-118.8
-96.18
-66.45
-33.71
-2.23
24.81
45.86
60.89
70.64
75.94
77.38
75.39
70.49
63.61
56.02
49.04
43.68
40.33
38.76
38.39
38.66
39.26
40.16
41.44
43.01
44.39
44.81
43.38
39.53
33.21
25.0
15.92
7.14
-0.44
-6.42
-10.99
-14.84
-18.8
-23.55
-29.3
-35.71
-42.14
-47.85
-52.4
-55.77
-58.45
-61.25
-65.09
-70.8
-78.74
-88.48
-98.59
-106.68
-109.82
-105.43
-92.17
-70.56
-42.88
-12.52
17.01
43.01
63.94
79.27
89.12
93.85
93.9
89.92
82.9
74.2
65.33
57.65
52.06
48.84
47.73
48.11
49.3
50.79
52.36
54.01
55.73
57.28
58.06
57.22
53.96
47.95
39.55
29.76
19.89
11.04
3.68
-2.46
-8.17
-14.35
-21.51
-29.55
-37.87
-45.68
-52.33
-57.63
-61.85
-65.71
-70.1
-75.95
-83.94
-94.06
-105.31
-115.5
-121.57
-120.43
-110.05
-90.32
-63.28
-32.46
-1.74
25.79
48.4
65.62
77.74
85.22
88.45
87.83
84.04
78.08
71.2
64.6
59.16
55.27
52.9
51.7
51.25
51.18
51.34
51.7
52.29
53.05
53.61
53.39
51.59
47.61
41.32
33.18
24.18
15.41
7.71
1.31
-4.18
-9.52
-15.52
-22.62
-30.73
-39.29
-47.5
-54.64
-60.33
-64.69
-68.25
-71.97
-76.85
-83.75
-92.97
-103.74
-114.16
-121.31
-122.05
-113.95
-96.29
-70.44
-39.52
-7.45
22.13
46.82
65.57
78.5
86.31
89.79
89.69
86.71
81.67
75.6
69.57
64.53
61.14
59.54
59.42
60.22
61.33
62.34
63.14
63.81
64.44
64.87
64.66
63.17
59.8
54.29
46.8
37.91
28.44
19.27
11.06
4.12
-1.63
-6.69
-11.76
-17.41
-23.87
-30.85
-37.67
-43.6
-48.23
-51.65
-54.42
-57.39
-61.46
-67.39
-75.65
-86.22
-98.23
-109.76
-117.94
-119.61
-112.32
-95.3
-69.93
-39.42
-7.8
21.23
45.21
63.16
75.18
81.98
84.28
82.74
78.1
71.27
63.5
56.07
50.11
46.18
44.27
43.88
44.35
45.13
45.94
46.71
47.46
48.13
48.46
48.09
46.57
43.56
38.91
32.8
25.72
18.37
11.42
5.29
-0.06
-5.02
-10.19
-16.07
-22.78
-30.02
-37.19
-43.62
-48.9
-52.98
-56.27
-59.49
-63.49
-69.1
-76.83
-86.59
-97.46
-107.66
-114.71
-116.05
-109.77
-95.34
-73.91
-48.05
-20.99
4.3
25.72
42.33
54.02
61.09
63.94
62.98
58.79
52.27
44.6
37.1
30.92
26.83
25.03
25.23
26.77
28.86
30.89
32.51
33.68
34.49
34.91
34.66
33.23
30.13
25.09
18.3
10.44
2.46
-4.61
-10.03
-13.6
-15.75
-17.42
-19.8
-23.81
-29.72
-37.03
-44.65
-51.47
-56.79
-60.69
-63.82
-67.2
-71.81
-78.37
-87.23
-98.01
-109.45
-119.25
-124.4
-122.01
-110.3
-89.47
-61.78
-30.95
-0.98
24.94
45.12
59.3
68.16
72.65
73.67
71.89
67.96
62.66
56.87
51.47
47.14
44.2
42.67
42.38
43.1
44.61
46.67
48.98
51.06
52.43
52.65
51.47
48.85
44.86
39.63
33.3
26.12
18.48
10.97
4.19
-1.43
-5.79
-9.31
-12.65
-16.56
-21.57
-27.75
-34.76
-41.99
-48.8
-54.79
-59.92
-64.54
-69.21
-74.61
-81.41
-90.08
-100.68
-112.48
-123.72
-131.71
-133.44
-126.54
-110.2
-85.69
-56.13
-25.46
2.59
25.47
42.05
52.32
56.89
56.48
51.93
44.39
35.51
27.39
22.16
21.27
25.07
32.63
42.17
51.81
60.24
67.02
72.37
76.67
79.94
81.75
81.41
78.44
72.93
65.6
57.39
49.18
41.43
34.26
27.45
20.87
14.47
8.35
2.68
-2.45
-7.11
-11.55
-16.15
-21.3
-27.2
-33.73
-40.39
-46.49
-51.45
-55.13
-58.1
-61.54
-66.86
-75.07
-86.22
-98.87
-110.26
-116.89
-115.63
-104.68
-84.35
-57.01
-26.34
3.74
30.12
51.04
66.08
75.65
80.49
81.35
78.88
73.86
67.22
60.11
53.68
48.84
46.03
45.17
45.74
47.01
48.38
49.56
50.55
51.48
52.33
52.81
52.37
50.37
46.4
40.47
32.95
24.55
16.1
8.3
1.57
-4.02
-8.82
-13.45
-18.56
-24.59
-31.48
-38.72
-45.5
-51.15
-55.39
-58.5
-61.23
-64.52
-69.27
-76.07
-84.86
-94.8
-104.02
-109.93
-109.76
-101.5
-84.67
-60.67
-32.41
-3.41
23.23
45.49
62.56
74.47
81.53
84.14
82.66
77.69
70.23
61.57
53.09
46.0
41.0
38.32
37.64
38.38
39.89
41.57
43.05
44.14
44.79
44.91
44.3
42.64
39.59
34.92
28.68
21.34
13.6
6.23
-0.22
-5.63
-10.28
-14.76
-19.64
-25.26
-31.58
-38.2
-44.56
-50.13
-54.67
-58.27
-61.39
-64.78
-69.35
-75.94
-85.01
-96.21
-108.12
-118.2
-123.35
-120.73
-108.82
-88.01
-60.63
-30.18
-0.29
26.19
47.66
63.63
74.37
80.4
82.31
80.75
76.51
70.54
63.86
57.44
52.1
48.33
46.3
45.94
46.9
48.77
51.12
53.61
55.92
57.73
58.67
58.34
56.42
52.81
47.63
41.27
34.22
27.01
20.04
13.59
7.74
2.36
-2.84
-8.25
-14.22
-20.87
-28.0
-35.23
-42.08
-48.23
-53.65
-58.56
-63.39
-68.65
-74.97
-83.0
-93.11
-104.99
-117.15
-126.91
-130.88
-126.1
-111.15
-86.97
-56.6
-24.26
6.06
31.56
51.11
64.89
73.7
78.43
79.73
78.16
74.37
69.21
63.66
58.66
54.9
52.73
52.16
52.95
54.71
56.98
59.36
61.45
62.95
63.65
63.41
62.09
59.61
55.85
50.82
44.61
37.52
30.0
22.54
15.56
9.27
3.62
-1.67
-6.94
-12.51
-18.57
-25.06
-31.76
-38.28
-44.23
-49.36
-53.68
-57.5
-61.46
-66.34
-72.9
-81.59
-92.18
-103.44
-113.11
-118.25
-116.05
-104.85
-84.77
-57.98
-28.03
1.2
26.63
46.52
60.61
69.47
73.95
74.68
72.12
66.72
59.27
50.93
43.03
36.77
32.8
31.14
31.28
32.52
34.27
36.29
38.57
41.09
43.61
45.58
46.26
44.95
41.33
35.53
28.15
20.01
11.97
4.63
-1.8
-7.53
-13.06
-18.98
-25.66
-33.01
-40.57
-47.64
-53.61
-58.22
-61.67
-64.54
-67.63
-71.82
-77.91
-86.33
-96.78
-107.87
-117.12
-121.38
-117.87
-105.15
-83.86
-56.56
-26.89
1.57
26.25
45.82
60.05
69.21
73.74
74.16
71.1
65.48
58.46
51.26
44.95
40.26
37.51
36.66
37.35
39.06
41.24
43.43
45.38
47.01
48.3
49.16
49.33
48.47
46.19
42.3
36.85
30.21
22.95
15.65
8.81
2.71
-2.64
-7.46
-12.11
-16.99
-22.42
-28.46
-34.88
-41.21
-46.96
-51.8
-55.87
-59.71
-64.2
-70.33
-78.79
-89.71
-102.2
-114.37
-123.38
-126.15
-120.24
-104.77
-80.9
-51.6
-20.76
7.93
31.91
50.07
62.53
70.02
73.37
73.26
70.37
65.46
59.56
53.76
49.02
45.94
44.7
45.07
46.66
48.98
51.59
54.11
56.23
57.66
58.18
57.64
56.0
53.32
49.71
45.26
40.09
34.29
28.04
21.57
15.16
9.03
3.25
-2.28
-7.78
-13.54
-19.78
-26.51
-33.57
-40.61
-47.23
-53.11
-58.14
-62.51
-66.7
-71.47
-77.69
-86.03
-96.51
-108.06
-118.4
-124.44
-123.07
-112.3
-92.06
-64.41
-32.96
-1.76
25.82
47.81
63.69
74.03
79.84
82.07
81.47
78.63
74.17
68.85
63.48
58.87
55.55
53.73
53.25
53.78
54.89
56.26
57.72
59.1
60.15
60.51
59.76
57.63
54.06
49.25
43.6
37.46
31.07
24.56
18.03
11.68
5.77
0.51
-4.11
-8.34
-12.61
-17.27
-22.43
-27.93
-33.37
-38.4
-42.8
-46.63
-50.18
-53.97
-58.74
-65.26
-74.1
-85.18
-97.37
-108.31
-114.92
-114.26
-104.61
-86.22
-61.32
-33.34
-5.8
18.6
38.46
53.44
63.75
69.67
71.4
69.18
63.64
55.84
47.23
39.28
33.16
29.48
28.24
28.98
31.0
33.63
36.36
38.95
41.28
43.21
44.4
44.31
42.33
38.06
31.6
23.61
15.15
7.31
0.79
-4.37
-8.73
-13.2
-18.52
-25.0
-32.32
-39.8
-46.62
-52.28
-56.64
-60.04
-63.23
-67.13
-72.69
-80.6
-90.94
-102.74
-113.88
-121.35
-122.06
-113.85
-96.34
-71.23
-41.83
-12.01
14.94
36.99
53.52
64.86
71.67
74.6
74.05
70.47
64.55
57.29
49.94
43.66
39.28
37.08
36.8
37.85
39.55
41.44
43.32
45.17
47.02
48.64
49.53
49.02
46.54
41.89
35.36
27.65
19.6
11.95
5.13
-0.84
-6.17
-11.27
-16.54
-22.28
-28.61
-35.39
-42.25
-48.73
-54.48
-59.39
-63.79
-68.31
-73.77
-80.91
-90.08
-100.92
-112.04
-121.12
-125.22
-121.65
-108.88
-87.19
-58.84
-27.37
3.34
30.26
51.63
67.06
77.06
82.42
83.93
82.25
78.05
72.19
65.66
59.52
54.66
51.58
50.33
50.59
51.84
53.58
55.43
57.15
58.57
59.5
59.65
58.75
56.54
52.9
47.82
41.46
34.09
26.08
17.93
10.12
3.03
-3.14
-8.49
-13.33
-18.08
-23.02
-28.27
-33.76
-39.31
-44.69
-49.73
-54.4
-58.78
-63.18
-68.13
-74.41
-82.73
-93.3
-105.37
-116.85
-124.61
-125.34
-116.66
-98.17
-71.67
-40.68
-9.28
19.07
42.28
59.67
71.59
78.78
82.0
81.86
79.04
74.33
68.68
63.08
58.39
55.15
53.5
53.23
53.93
55.15
56.55
57.97
59.31
60.44
61.1
60.92
59.57
56.86
52.82
47.69
41.77
35.35
28.65
21.9
15.32
9.13
3.46
-1.73
-6.7
-11.78
-17.3
-23.36
-29.75
-36.08
-41.85
-46.73
-50.69
-54.09
-57.59
-62.03
-68.25
-76.77
-87.44
-99.08
-109.42
-115.4
-114.09
-103.65
-84.2
-57.93
-28.44
0.34
25.37
45.03
59.14
68.28
73.2
74.41
72.21
67.06
59.75
51.46
43.5
36.99
32.57
30.32
29.95
30.96
32.88
35.36
38.1
40.88
43.35
45.04
45.37
43.74
39.77
33.51
25.55
16.96
8.95
2.36
-2.65
-6.71
-10.94
-16.41
-23.58
-32.14
-41.1
-49.29
-55.82
-60.5
-63.8
-66.66
-70.19
-75.32
-82.64
-92.11
-102.82
-112.85
-119.47
-119.76
-111.55
-94.33
-69.58
-40.44
-10.71
16.22
38.22
54.55
65.5
71.8
74.1
72.95
68.92
62.86
55.85
49.06
43.45
39.57
37.48
36.88
37.33
38.45
39.98
41.71
43.49
45.13
46.38
46.95
46.54
44.78
41.44
36.39
29.82
22.26
14.5
7.31
1.22
-3.77
-8.16
-12.75
-18.23
-24.89
-32.41
-40.11
-47.22
-53.27
-58.28
-62.64
-67.05
-72.28
-79.09
-88.0
-98.96
-111.01
-122.02
-129.0
-128.84
-119.43
-100.52
-74.04
-43.41
-12.61
15.1
37.77
54.83
66.59
73.74
76.95
76.81
73.95
69.24
63.72
58.58
54.74
52.73
52.51
53.58
55.28
57.02
58.48
59.6
60.45
60.99
60.99
60.09
57.92
54.27
49.16
42.85
35.68
28.05
20.34
12.93
6.09
-0.04
-5.53
-10.67
-15.87
-21.53
-27.85
-34.68
-41.63
-48.11
-53.68
-58.2
-61.99
-65.72
-70.3
-76.56
-85.03
-95.56
-107.03
-117.31
-123.49
-122.68
-112.87
-93.87
-67.49
-37.11
-6.65
20.62
42.78
59.37
70.88
78.11
81.74
82.25
80.11
76.01
70.9
65.85
61.71
59.01
57.78
57.71
58.4
59.45
60.6
61.72
62.68
63.31
63.32
62.41
60.35
57.08
52.7
47.42
41.45
35.01
28.25
21.41
14.76
8.55
2.91
-2.22
-7.12
-12.12
-17.46
-23.2
-29.12
-34.89
-40.14
-44.65
-48.46
-51.89
-55.52
-60.2
-66.73
-75.6
-86.46
-97.85
-107.24
-111.59
-108.33
-96.27
-76.13
-50.41
-22.57
4.06
27.04
45.18
58.33
66.84
71.16
71.6
68.51
62.49
54.53
45.98
38.23
32.41
29.03
28.0
28.73
30.45
32.52
34.58
36.54
38.39
40.03
41.09
40.97
39.08
35.04
28.99
21.57
13.72
6.38
0.07
-5.26
-10.15
-15.35
-21.42
-28.58
-36.51
-44.55
-51.91
-57.95
-62.36
-65.37
-67.72
-70.57
-75.14
-82.28
-91.99
-103.07
-113.21
-119.38
-118.71
-109.37
-91.22
-66.04
-36.97
-7.72
18.48
39.53
54.69
64.3
69.27
70.59
69.1
65.45
60.28
54.3
48.34
43.24
39.66
37.9
37.78
38.78
40.26
41.74
43.05
44.28
45.51
46.63
47.18
46.48
43.92
39.26
32.76
25.07
17.07
9.54
3.02
-2.38
-6.89
-11.06
-15.56
-20.92
-27.34
-34.6
-42.11
-49.17
-55.29
-60.35
-64.69
-68.98
-74.11
-80.94
-90.03
-101.27
-113.47
-124.22
-130.35
-128.74
-117.52
-96.83
-69.04
-37.98
-7.72
18.62
39.5
54.79
65.15
71.37
73.95
73.21
69.61
64.0
57.64
51.83
47.59
45.35
44.96
45.91
47.61
49.68
51.89
54.15
56.35
58.27
59.59
59.96
59.08
56.73
52.8
47.36
40.69
33.25
25.62
18.25
11.36
4.85
-1.62
-8.45
-15.92
-24.06
-32.63
-41.25
-49.47
-56.93
-63.42
-68.95
-73.82
-78.67
-84.38
-91.87
-101.67
-113.3
-125.0
-133.8
-136.3
-129.72
-113.1
-87.69
-56.7
-24.19
6.13
31.8
51.86
66.42
76.12
81.56
83.28
81.77
77.8
72.39
66.73
61.93
58.74
57.45
57.83
59.35
61.35
63.31
64.96
66.24
67.17
67.68
67.5
66.19
63.41
59.01
53.13
46.16
38.63
31.06
23.84
17.27
11.45
6.29
1.46
-3.45
-8.81
-14.77
-21.15
-27.57
-33.55
-38.86
-43.48
-47.7
-52.02
-57.12
-63.78
-72.69
-84.0
-96.81
-108.89
-116.98
-117.68
-108.68
-89.76
-63.03
-32.31
-1.8
25.1
46.55
62.16
72.48
78.28
80.15
78.56
74.07
67.56
60.27
53.48
48.27
45.14
44.09
44.69
46.37
48.6
51.04
53.44
55.54
56.98
57.31
56.03
52.78
47.48
40.37
32.12
23.56
15.56
8.68
3.0
-1.91
-6.77
-12.3
-18.79
-26.01
-33.31
-39.93
-45.32
-49.43
-52.74
-56.13
-60.64
-67.25
-76.51
-88.17
-100.87
-112.14
-118.86
-118.11
-108.14
-89.18
-63.36
-34.15
-5.19
20.64
41.78
57.8
68.9
75.42
77.61
75.72
70.31
62.43
53.51
45.07
38.31
33.88
31.8
31.63
32.8
34.8
37.3
40.1
43.0
45.66
47.44
47.6
45.46
40.71
33.62
25.02
16.02
7.6
0.27
-6.17
-12.31
-18.89
-26.34
-34.58
-43.07
-51.05
-57.9
-63.45
-67.9
-71.96
-76.56
-82.76
-91.38
-102.53
-115.16
-126.89
-134.39
-134.27
-124.33
-104.38
-76.49
-44.27
-11.78
17.64
42.04
60.72
73.86
81.89
85.32
84.7
80.84
74.88
68.13
61.89
57.04
53.96
52.48
52.11
52.3
52.69
53.23
54.11
55.56
57.51
59.44
60.45
59.56
56.14
50.19
42.42
33.93
25.8
18.68
12.55
6.84
0.71
-6.55
-15.27
-25.18
-35.6
-45.6
-54.38
-61.53
-67.26
-72.33
-77.92
-85.34
-95.51
-108.41
-122.73
-135.75
-143.84
-143.52
-132.57
-111.04
-81.24
-47.12
-13.0
17.67
42.87
62.07
75.59
84.09
88.15
88.29
85.21
79.87
73.51
67.43
62.73
60.08
59.57
60.77
62.94
65.33
67.42
69.01
70.14
70.84
70.83
69.58
66.48
61.13
53.64
44.66
35.12
25.96
17.73
10.58
4.17
-2.13
-9.01
-16.96
-26.13
-36.12
-46.14
-55.29
-62.87
-68.78
-73.51
-78.06
-83.61
-91.25
-101.58
-114.33
-128.07
-140.14
-147.06
-145.48
-133.31
-110.64
-79.91
-45.17
-10.79
19.76
44.52
63.06
75.77
83.23
85.93
84.34
79.17
71.63
63.28
55.73
50.15
47.01
46.03
46.48
47.69
49.32
51.45
54.33
57.93
61.7
64.59
65.41
63.36
58.3
50.87
42.14
33.22
24.83
17.13
9.72
1.87
-7.03
-17.25
-28.41
-39.61
-49.71
-57.77
-63.48
-67.3
-70.28
-73.77
-79.0
-86.75
-97.03
-108.77
-119.78
-126.96
-127.06
-117.67
-98.23
-70.39
-37.58
-3.94
26.88
52.52
72.07
85.54
93.37
95.96
93.72
87.33
77.97
67.26
56.99
48.63
43.04
40.32
39.97
41.25
43.47
46.25
49.36
52.6
55.54
57.46
57.5
55.0
49.72
41.99
32.61
22.63
12.98
4.28
-3.4
-10.46
-17.63
-25.61
-34.72
-44.68
-54.68
-63.71
-71.02
-76.51
-80.83
-85.15
-90.86
-99.17
-110.64
-124.82
-139.98
-153.09
-160.3
-157.96
-143.82
-117.97
-83.08
-43.66
-4.7
29.66
57.06
76.93
89.94
97.17
99.6
98.0
93.11
85.96
77.91
70.43
64.79
61.61
60.84
61.83
63.71
65.75
67.49
68.8
69.74
70.29
70.26
69.24
66.67
62.08
55.26
46.43
36.27
25.74
15.79
6.96
-0.68
-7.66
-14.7
-22.43
-31.12
-40.49
-49.92
-58.67
-66.21
-72.42
-77.69
-82.84
-88.96
-97.16
-108.19
-121.93
-136.94
-150.43
-158.62
-157.79
-145.49
-121.57
-88.36
-50.08
-11.5
23.3
51.85
73.33
88.13
97.18
101.38
101.51
98.32
92.73
85.92
79.17
73.67
70.16
68.84
69.3
70.78
72.46
73.72
74.36
74.47
74.22
73.6
72.28
69.66
65.12
58.34
49.51
39.28
28.65
18.53
9.6
2.0
-4.55
-10.69
-17.13
-24.42
-32.69
-41.61
-50.43
-58.34
-64.78
-69.69
-73.6
-77.47
-82.46
-89.66
-99.74
-112.56
-126.79
-139.71
-147.61
-146.65
-134.23
-110.08
-76.61
-38.27
-0.18
33.42
60.06
79.18
91.49
98.1
100.01
97.94
92.65
85.12
76.72
68.87
62.76
59.02
57.65
58.08
59.55
61.27
62.75
63.77
64.34
64.55
64.41
63.73
62.13
59.1
54.27
47.62
39.59
30.95
22.62
15.19
8.74
2.74
