0
-46.46
-39.56
-30.82
-21.33
-12.05
-3.52
4.06
10.72
16.57
21.65
25.9
29.19
31.38
32.39
32.29
31.36
30.03
28.73
27.69
26.97
26.43
25.91
25.34
24.77
24.27
23.87
23.38
22.52
20.95
18.48
15.14
11.2
7.09
3.25
-0.03
-2.66
-4.82
-6.8
-8.97
-11.62
-14.97
-19.13
-24.12
-29.79
-35.7
-41.11
-45.02
-46.5
-45.0
-40.59
-33.93
-26.01
-17.82
-9.96
-2.65
4.27
11.01
17.71
24.23
30.22
35.24
38.88
40.96
41.6
41.2
40.28
39.31
38.58
38.11
37.77
37.35
36.71
35.75
34.39
32.54
30.13
27.12
23.63
19.94
16.43
13.49
11.27
9.68
8.32
6.7
4.36
1.17
-2.66
-6.7
-10.42
-13.47
-15.8
-17.66
-19.53
-21.93
-25.3
-29.85
-35.6
-42.15
-48.78
-54.41
-57.8
-57.95
-54.37
-47.3
-37.69
-26.89
-16.24
-6.72
1.18
7.48
12.45
16.37
19.42
21.59
22.78
22.98
22.24
20.82
19.09
17.44
16.18
15.45
15.28
15.61
16.34
17.31
18.34
19.14
19.37
18.77
17.27
14.95
12.05
8.87
5.59
2.3
-1.03
-4.43
-7.86
-11.19
-14.27
-16.99
-19.35
-21.57
-23.95
-26.94
-30.93
-36.08
-42.17
-48.49
-53.94
-57.2
-57.21
-53.42
-46.05
-35.99
-24.51
-12.88
-2.06
7.4
15.35
21.79
26.8
30.42
32.69
33.7
33.65
32.84
31.61
30.26
29.05
28.17
27.72
27.72
28.07
28.6
29.0
28.96
28.19
26.54
24.08
20.96
17.42
13.64
9.73
5.7
1.53
-2.77
-7.09
-11.26
-15.08
-18.41
-21.26
-23.91
-26.79
-30.54
-35.62
-42.17
-49.8
-57.53
-63.98
-67.71
-67.63
-63.27
-55.01
-43.87
-31.27
-18.56
-6.72
3.78
12.92
20.88
27.81
33.71
38.45
41.83
43.79
44.39
43.85
42.53
40.85
39.18
37.83
36.96
36.53
36.3
35.98
35.28
34.01
32.07
29.46
26.19
22.41
18.29
14.11
10.19
6.67
3.47
0.32
-3.15
-7.25
-12.03
-17.29
-22.58
-27.48
-31.68
-35.1
-37.91
-40.53
-43.55
-47.57
-53.03
-59.86
-67.3
-73.9
-77.86
-77.62
-72.41
-62.63
-49.6
-35.18
-21.01
-8.18
2.87
12.2
19.94
26.2
31.07
34.69
37.36
39.42
41.09
42.41
43.25
43.45
43.06
42.23
41.25
40.33
39.57
38.93
38.31
37.63
36.81
35.75
34.28
32.21
29.39
25.8
21.58
17.0
12.37
8.01
4.12
0.78
-2.09
-4.78
-7.64
-11.02
-15.13
-19.95
-25.23
-30.55
-35.52
-39.88
-43.64
-47.15
-50.96
-55.72
-61.88
-69.43
-77.81
-85.85
-92.0
-94.74
-92.96
-86.34
-75.42
-61.5
-46.24
-31.23
-17.66
-6.12
3.31
10.91
17.08
22.18
26.48
30.1
33.14
35.67
37.76
39.51
40.95
42.12
42.98
43.51
43.77
43.89
44.03
44.28
44.58
44.7
44.35
43.31
41.57
39.33
36.87
34.42
32.04
29.66
27.13
24.36
21.38
18.28
15.2
12.19
9.22
6.19
2.97
-0.55
-4.43
-8.63
-12.99
-17.27
-21.23
-24.76
-28.03
-31.51
-35.75
-41.22
-47.96
-55.4
-62.4
-67.47
-69.21
-66.73
-60.0
-49.75
-37.33
-24.27
-11.87
-0.93
8.25
15.78
21.9
26.84
30.75
33.7
35.79
37.22
38.22
39.04
39.77
40.37
40.71
40.67
40.24
39.62
39.06
38.77
38.79
38.88
38.66
37.71
35.81
32.96
29.41
25.53
21.63
17.9
14.31
10.72
6.98
3.02
-1.08
-5.14
-8.95
-12.33
-15.28
-18.06
-21.05
-24.74
-29.47
-35.35
-42.07
-48.88
-54.7
-58.34
-58.79
-55.54
-48.75
-39.27
-28.34
-17.25
-6.99
1.95
9.5
15.84
21.14
25.48
28.78
30.99
32.06
32.1
31.35
30.12
28.78
27.59
26.68
26.07
25.7
25.57
25.69
26.03
26.4
26.43
25.68
23.88
21.08
17.65
14.18
11.14
8.67
6.55
4.35
1.71
-1.6
-5.49
-9.71
-13.94
-17.98
-21.73
-25.32
-28.99
-33.04
-37.71
-42.96
-48.41
-53.35
-56.78
-57.78
-55.68
-50.38
-42.31
-32.37
-21.67
-11.25
-1.82
6.29
13.09
18.73
23.38
27.12
29.98
32.02
33.39
34.28
34.88
35.29
35.48
35.33
34.77
33.76
32.44
30.98
29.55
28.23
26.93
25.47
23.66
21.42
18.82
16.09
13.47
11.05
8.77
6.41
3.76
0.72
-2.58
-5.92
-9.02
-11.71
-13.98
-15.97
-17.91
-20.16
-23.16
-27.24
-32.55
-38.8
-45.22
-50.69
-53.99
-54.21
-51.01
-44.74
-36.26
-26.73
-17.23
-8.45
-0.73
6.01
11.99
17.41
22.27
26.44
29.79
32.28
34.11
35.52
36.73
37.72
38.32
38.4
38.0
37.38
36.97
37.02
37.52
38.16
38.44
37.89
36.26
33.53
29.88
25.6
21.06
16.56
12.4
8.73
5.58
2.8
0.16
-2.57
-5.57
-8.85
-12.34
-15.87
-19.27
-22.38
-25.14
-27.65
-30.18
-33.1
-36.79
-41.43
-46.84
-52.41
-57.2
-60.17
-60.47
-57.72
-52.12
-44.36
-35.45
-26.29
-17.51
-9.4
-1.95
4.86
10.95
16.13
20.19
23.1
25.05
26.39
27.46
28.47
29.45
30.26
30.75
30.82
30.44
29.68
28.68
27.55
26.42
25.34
24.25
22.99
21.39
19.32
16.8
13.93
10.94
7.95
5.07
2.33
-0.3
-2.83
-5.37
-7.99
-10.8
-13.85
-17.18
-20.74
-24.47
-28.34
-32.35
-36.59
-41.13
-45.97
-50.88
-55.44
-58.91
-60.49
-59.48
-55.55
-48.91
-40.26
-30.56
-20.76
-11.53
-3.23
4.0
10.07
14.9
18.44
20.82
22.3
23.31
24.18
25.12
26.1
26.96
27.62
28.04
28.28
28.4
28.33
27.89
26.81
24.92
22.21
18.9
15.35
11.92
8.82
5.99
3.18
0.11
-3.41
-7.3
-11.33
-15.14
-18.51
-21.37
-23.85
-26.14
-28.49
-31.17
-34.42
-38.38
-42.96
-47.68
-51.67
-53.89
-53.42
-49.85
-43.39
-34.84
-25.28
-15.78
-7.06
0.52
7.0
12.59
17.46
21.65
25.05
27.52
29.02
29.78
30.18
30.54
31.02
31.55
31.94
32.08
32.04
32.06
32.29
32.69
32.9
32.48
31.1
28.66
25.37
21.61
17.73
13.97
10.41
6.92
3.28
-0.75
-5.33
-10.4
-15.62
-20.51
-24.63
-27.77
-30.11
-32.16
-34.55
-37.8
-42.15
-47.42
-53.01
-57.96
-61.21
-61.86
-59.37
-53.85
-45.93
-36.56
-26.71
-17.12
-8.2
-0.1
7.18
13.71
19.53
24.59
28.84
32.1
34.23
35.22
35.24
34.67
33.96
33.44
33.24
33.24
33.26
33.15
32.8
32.22
31.41
30.28
28.7
26.55
23.79
20.53
16.97
13.39
10.03
6.99
4.23
1.52
-1.41
-4.76
-8.52
-12.51
-16.41
-19.95
-22.98
-25.52
-27.73
-29.92
-32.41
-35.55
-39.63
-44.7
-50.44
-56.14
-60.81
-63.37
-62.97
-59.24
-52.35
-43.03
-32.36
-21.45
-11.17
-2.06
5.79
12.52
18.32
23.3
27.42
30.64
32.97
34.53
35.5
35.98
35.98
35.44
34.4
32.99
31.5
30.17
29.08
28.17
27.27
26.2
24.84
23.19
21.18
18.72
15.72
12.08
7.83
3.12
-1.77
-6.56
-10.93
-14.69
-17.75
-20.26
-22.52
-24.92
-27.91
-31.82
-36.84
-42.92
-49.65
-56.2
-61.37
-63.81
-62.52
-57.16
-48.3
-37.24
-25.51
-14.33
-4.29
4.66
12.81
20.43
27.47
33.62
38.55
42.09
44.33
45.54
46.1
46.26
46.12
45.62
44.72
43.45
41.99
40.62
39.56
38.8
38.08
37.0
35.18
32.46
28.93
24.91
20.73
16.63
12.71
8.87
4.94
0.69
-3.98
-9.03
-14.19
-19.08
-23.39
-27.05
-30.27
-33.49
-37.22
-41.82
-47.38
-53.68
-60.16
-65.93
-69.85
-70.73
-67.73
-60.64
-50.08
-37.35
-23.99
-11.34
-0.19
9.2
16.97
23.33
28.48
32.52
35.57
37.74
39.18
40.05
40.48
40.56
40.39
40.09
39.72
39.32
38.88
38.42
37.93
37.31
36.41
35.02
32.96
30.18
26.84
23.21
19.6
16.15
12.82
9.42
5.77
1.83
-2.26
-6.23
-9.82
-12.93
-15.71
-18.53
-21.84
-26.1
-31.52
-38.06
-45.3
-52.55
-58.85
-63.1
-64.29
-61.7
-55.24
-45.51
-33.8
-21.62
-10.33
-0.67
7.33
14.08
20.07
25.47
30.08
33.5
35.46
36.03
35.61
34.79
34.01
33.52
33.25
33.03
32.68
32.15
31.39
30.33
28.87
26.82
24.13
20.92
17.48
14.17
11.24
8.7
6.2
3.3
-0.38
-4.9
-9.97
-15.06
-19.66
-23.51
-26.72
-29.69
-32.98
-37.07
-42.3
-48.6
-55.44
-61.71
-65.98
-66.84
-63.4
-55.69
-44.67
-31.93
-19.14
-7.5
2.39
10.48
16.96
22.04
25.95
28.9
31.21
33.24
35.23
37.3
39.31
41.04
42.24
42.7
42.34
41.2
39.47
37.48
35.59
34.05
32.91
31.96
30.77
28.89
26.1
22.46
18.32
14.27
10.78
8.08
6.02
4.11
1.76
-1.49
-5.74
-10.68
-15.72
-20.37
-24.31
-27.62
-30.7
-34.11
-38.39
-43.93
-50.72
-58.34
-65.85
-71.96
-75.34
-74.96
-70.43
-62.11
-51.03
-38.55
-25.95
-14.23
-3.88
5.04
12.75
19.54
25.58
30.84
35.12
38.25
40.21
41.19
41.57
41.71
41.85
42.02
42.13
42.1
41.94
41.7
41.43
41.07
40.51
39.54
38.07
36.11
33.73
31.04
28.14
25.13
22.02
18.78
15.34
11.65
7.78
3.88
0.19
-3.14
-6.08
-8.79
-11.5
-14.44
-17.72
-21.35
-25.23
-29.14
-32.83
-36.15
-39.15
-42.22
-45.93
-50.72
-56.55
-62.65
-67.6
-69.79
-68.08
-62.2
-52.82
-41.21
-28.76
-16.59
-5.37
4.65
13.43
20.96
27.2
32.06
35.44
37.4
38.23
38.38
38.34
38.43
38.72
39.05
39.17
38.98
38.54
37.99
37.41
36.78
35.95
34.82
33.38
31.69
29.81
27.7
25.26
22.4
19.09
15.43
11.55
7.58
3.64
-0.19
-3.8
-7.12
-10.15
-12.97
-15.71
-18.48
-21.33
-24.2
-26.99
-29.65
-32.21
-34.82
-37.67
-40.96
-44.81
-49.13
-53.59
-57.57
-60.31
-61.05
-59.28
-54.78
-47.71
-38.56
-28.07
-17.09
-6.53
2.82
10.44
16.18
20.17
22.77
24.37
25.27
25.64
25.59
25.22
24.66
24.08
23.62
23.44
23.6
24.09
24.81
25.47
25.74
25.37
24.21
22.36
19.99
17.3
14.43
11.5
8.62
5.92
3.42
1.0
-1.58
-4.59
-8.1
-11.91
-15.54
-18.57
-20.78
-22.37
-23.85
-25.83
-28.81
-32.98
-38.12
-43.61
-48.54
-51.85
-52.59
-50.22
-44.78
-36.84
-27.42
-17.55
-8.15
0.16
7.11
12.69
17.01
20.32
22.87
24.84
26.31
27.27
27.72
27.69
27.29
26.61
25.7
24.59
23.32
22.09
21.15
20.72
20.78
21.01
20.92
20.04
18.16
15.38
12.09
8.76
5.72
3.12
0.87
-1.27
-3.59
-6.28
-9.35
-12.63
-15.83
-18.71
-21.17
-23.29
-25.33
-27.56
-30.24
-33.56
-37.61
-42.29
-47.27
-51.83
-55.06
-56.03
-54.11
-49.15
-41.6
-32.27
-22.11
-11.98
-2.53
5.8
12.8
18.43
22.74
25.83
27.83
28.92
29.35
29.42
29.49
29.84
30.54
31.42
32.2
32.6
32.44
31.71
30.49
28.93
27.18
25.4
23.71
22.19
20.83
19.55
18.23
16.81
15.17
13.29
11.1
8.58
5.78
2.84
-0.1
-2.9
-5.57
-8.25
-11.09
-14.11
-17.31
-20.6
-23.97
-27.57
-31.65
-36.44
-41.98
-48.02
-53.96
-58.99
-62.16
-62.66
-60.05
-54.33
-46.07
-36.18
-25.7
-15.42
-5.82
2.95
10.95
18.14
24.37
29.41
33.02
35.17
36.09
36.21
36.02
35.96
36.32
37.17
38.45
39.94
41.32
42.23
42.28
41.24
39.12
36.23
33.05
30.11
27.73
25.97
24.6
23.26
21.64
19.54
16.9
13.73
10.16
6.35
2.51
-1.1
-4.28
-7.01
-9.43
-11.78
-14.31
-17.16
-20.37
-23.85
-27.39
-30.85
-34.1
-37.2
-40.35
-43.86
-47.91
-52.4
-56.79
-60.18
-61.63
-60.41
-56.33
-49.74
-41.36
-32.02
-22.42
-13.01
-4.07
4.18
11.51
17.66
22.36
25.53
27.29
27.96
27.95
27.76
27.7
27.95
28.51
29.19
29.82
30.22
30.29
29.96
29.2
28.01
26.38
24.4
22.23
20.07
18.02
16.11
14.17
12.04
9.53
6.62
3.44
0.14
-3.19
-6.52
-9.9
-13.35
-16.76
-19.96
-22.72
-24.9
-26.61
-28.11
-29.76
-31.91
-34.8
-38.45
-42.65
-46.92
-50.51
-52.5
-52.05
-48.58
-42.11
-33.24
-22.95
-12.3
-2.11
7.21
15.6
23.09
29.67
35.15
39.26
41.8
42.8
42.56
41.63
40.6
39.92
39.75
39.96
40.17
40.0
39.29
38.08
36.61
35.01
33.28
31.23
28.66
25.43
21.67
17.65
13.65
9.92
6.55
3.47
0.52
-2.53
-5.94
-9.89
-14.38
-19.19
-23.93
-28.21
-31.79
-34.71
-37.29
-40.02
-43.4
-47.86
-53.55
-60.17
-66.95
-72.68
-75.98
-75.64
-71.07
-62.5
-50.9
-37.7
-24.32
-11.91
-1.06
8.11
15.79
22.25
27.67
32.14
35.64
38.17
39.84
40.83
41.34
41.51
41.39
41.02
40.44
39.79
39.21
38.78
38.45
37.99
37.17
35.84
33.98
31.7
29.16
26.45
23.6
20.58
17.37
14.03
10.71
7.57
4.71
2.05
-0.63
-3.66
-7.24
-11.4
-15.9
-20.41
-24.61
-28.36
-31.7
-34.87
-38.21
-42.11
-46.99
-53.08
-60.24
-67.72
-74.22
-78.11
-77.99
-73.15
-63.89
-51.37
-37.21
-22.95
-9.69
2.06
12.31
21.32
29.4
36.71
43.24
48.8
53.18
56.25
58.14
59.16
59.66
59.89
59.91
59.59
58.8
57.49
55.73
53.71
51.53
49.19
46.57
43.52
39.95
35.89
31.48
26.89
22.35
18.06
14.15
10.73
7.78
5.21
2.83
0.45
-2.15
-5.14
-8.6
-12.49
-16.69
-20.95
-25.05
-28.81
-32.28
-35.67
-39.36
-43.75
-49.2
-55.91
-63.7
-71.85
-79.11
-83.78
-84.29
-79.74
-70.29
-57.25
-42.57
-28.16
-15.29
-4.36
4.95
13.22
20.92
28.11
34.49
39.64
43.19
45.06
45.46
44.85
43.8
42.74
41.83
41.01
40.16
39.19
38.19
37.34
36.69
36.06
35.07
33.32
30.59
26.93
22.63
18.08
13.59
9.36
5.45
1.86
-1.51
-4.8
-8.21
-11.85
-15.73
-19.71
-23.53
-27.01
-30.05
-32.81
-35.61
-38.87
-42.99
-48.22
-54.51
-61.35
-67.72
-72.28
-73.66
-70.83
-63.48
-52.14
-38.09
-22.95
-8.28
4.85
15.94
25.04
32.45
38.43
43.05
46.2
47.84
48.15
47.6
46.82
46.38
46.51
47.03
47.55
47.62
47.06
45.92
44.52
43.15
41.93
40.68
39.04
36.67
33.35
29.21
24.56
19.82
15.32
11.12
7.09
2.99
-1.35
-6.01
-10.88
-15.84
-20.72
-25.47
-30.04
-34.41
-38.64
-42.82
-47.2
-52.05
-57.69
-64.26
-71.52
-78.83
-85.02
-88.69
-88.54
-83.81
-74.57
-61.79
-47.01
-31.93
-17.88
-5.5
5.2
14.61
23.1
30.82
37.63
43.26
47.57
50.6
52.59
53.86
54.66
55.14
55.35
55.29
55.04
54.74
54.59
54.68
54.87
54.8
53.96
51.91
48.51
44.03
39.04
34.16
29.81
25.97
22.35
18.57
14.44
10.03
5.62
1.48
-2.26
-5.63
-8.77
-11.86
-15.06
-18.45
-22.12
-26.16
-30.54
-35.19
-39.94
-44.62
-49.14
-53.55
-58.07
-63.05
-68.72
-75.07
-81.53
-86.99
-89.98
-89.11
-83.56
-73.47
-59.9
-44.47
-28.85
-14.27
-1.34
9.94
19.82
28.57
36.27
42.83
48.13
52.11
54.88
56.67
57.81
58.57
59.09
59.37
59.39
59.1
58.58
57.98
57.48
57.15
56.86
56.32
55.16
53.09
50.07
46.3
42.16
38.04
34.17
30.64
27.32
24.05
20.68
17.16
13.6
10.13
6.93
4.12
1.76
-0.2
-1.9
-3.62
-5.75
-8.69
-12.72
-17.82
-23.68
-29.7
-35.29
-40.04
-43.91
-47.23
-50.54
-54.41
-59.25
-65.11
-71.64
-78.02
-83.06
-85.5
-84.32
-79.04
-69.94
-57.97
-44.45
-30.78
-18.08
-7.07
2.0
9.32
15.33
20.55
25.38
29.93
34.01
37.3
39.53
40.66
40.93
40.77
40.52
40.37
40.3
40.06
39.38
38.02
35.86
32.99
29.61
25.99
22.32
18.68
15.06
11.45
7.93
4.7
1.91
-0.38
-2.3
-4.12
-6.1
-8.32
-10.71
-13.11
-15.44
-17.79
-20.32
-23.17
-26.34
-29.69
-33.03
-36.28
-39.54
-43.12
-47.32
-52.32
-57.98
-63.69
-68.47
-71.1
-70.52
-66.15
-58.2
-47.6
-35.72
-23.94
-13.23
-4.0
3.79
10.38
15.97
20.57
24.13
26.63
28.17
29.0
29.42
29.68
29.9
30.15
30.36
30.5
30.55
30.57
30.7
30.99
31.41
31.72
31.58
30.66
28.81
26.21
23.17
20.05
17.05
14.21
11.43
8.63
5.76
2.84
-0.18
-3.4
-6.92
-10.78
-14.85
-18.87
-22.56
-25.77
-28.53
-31.08
-33.77
-36.97
-40.99
-45.99
-51.91
-58.34
-64.46
-69.1
-71.01
-69.25
-63.54
-54.41
-43.06
-30.93
-19.26
-8.83
0.13
7.73
14.22
19.84
24.68
28.81
32.2
34.82
36.65
37.7
38.06
37.89
37.47
37.06
36.82
36.87
37.14
37.53
37.88
38.02
37.78
37.0
35.54
33.38
30.63
27.59
24.56
21.82
19.45
17.33
15.25
12.95
10.33
7.4
4.26
1.01
-2.27
-5.59
-8.96
-12.33
-15.66
-18.84
-21.79
-24.46
-26.85
-29.07
-31.32
-33.94
-37.28
-41.65
-47.13
-53.32
-59.38
-64.03
-65.92
-64.08
-58.27
-49.15
-38.03
-26.42
-15.51
-5.88
2.48
9.94
16.77
23.02
28.51
32.98
36.31
38.6
40.1
41.08
41.75
42.23
42.53
42.66
42.62
42.49
42.31
42.12
41.85
41.34
40.44
39.01
37.02
34.59
31.87
29.06
26.24
23.48
20.82
18.28
15.9
13.66
11.49
9.25
6.81
4.08
1.03
-2.31
-5.9
-9.65
-13.42
-17.0
-20.23
-23.05
-25.65
-28.37
-31.64
-35.8
-40.95
-46.88
-53.07
-58.73
-63.0
-65.01
-64.18
-60.28
-53.58
-44.77
-34.79
-24.61
-14.99
-6.33
1.3
8.01
13.96
19.17
23.5
26.71
28.62
29.27
28.91
28.01
27.01
26.23
25.8
25.65
25.71
25.9
26.17
26.4
26.41
25.88
24.55
22.34
19.37
16.02
12.66
9.66
7.1
4.84
2.56
-0.15
-3.61
-7.93
-12.88
-17.98
-22.65
-26.48
-29.39
-31.73
-34.16
-37.4
-41.96
-47.95
-54.95
-62.02
-67.88
-71.18
-70.89
-66.63
-58.8
-48.44
-36.95
-25.56
-15.12
-5.92
2.1
9.11
15.18
20.2
23.95
26.26
27.1
26.69
25.43
23.85
22.39
21.31
20.59
20.07
19.62
19.27
19.17
19.47
20.08
20.7
20.78
19.92
17.96
15.11
11.81
8.48
5.39
2.58
-0.17
-3.15
-6.68
-10.95
-15.98
-21.49
-27.06
-32.22
-36.69
-40.55
-44.17
-48.1
-52.9
-58.92
-66.18
-74.29
-82.22
-88.56
-91.67
-90.26
-83.86
-73.11
-59.51
-44.91
-30.85
-18.13
-6.85
3.31
12.74
21.61
29.89
37.36
43.83
49.11
53.11
55.83
57.4
58.07
58.12
57.83
57.46
57.2
57.17
57.39
57.77
58.06
57.98
57.25
55.76
53.56
50.76
47.51
43.86
39.82
35.41
30.74
25.95
21.2
16.54
11.86
6.92
1.49
-4.51
-11.0
-17.69
-24.17
-30.09
-35.3
-39.96
-44.47
-49.42
-55.38
-62.72
-71.39
-80.89
-90.13
-97.57
-101.47
-100.36
-93.51
-81.25
-64.92
-46.51
-27.98
-10.78
4.46
17.71
29.31
39.56
48.58
56.34
62.69
67.51
70.74
72.41
72.66
71.8
70.31
68.65
67.22
66.22
65.7
65.57
65.69
65.86
65.77
65.04
63.33
60.46
56.51
51.87
47.03
42.44
38.36
34.74
31.34
27.83
23.92
19.48
14.56
9.42
4.46
0.02
-3.71
-6.82
-9.68
-12.8
-16.63
-21.36
-26.8
-32.45
-37.71
-42.21
-45.95
-49.4
-53.28
-58.29
-64.89
-73.2
-82.85
-92.96
-102.16
-108.65
-110.61
-106.7
-96.63
-81.38
-62.97
-43.78
-25.84
-10.28
2.76
13.78
23.42
32.07
39.79
46.39
51.63
55.46
57.98
59.48
60.29
60.64
60.61
60.12
59.05
57.39
55.33
53.25
51.52
50.37
49.66
49.01
47.93
46.02
43.08
39.18
34.49
29.24
23.66
18.0
12.5
7.34
2.55
-2.02
-6.6
-11.43
-16.53
-21.74
-26.77
-31.25
-35.03
-38.12
-40.75
-43.43
-46.77
-51.41
-57.8
-65.94
-75.08
-83.73
-89.91
-91.67
-87.7
-77.81
-63.04
-45.28
-26.72
-9.28
5.86
18.36
28.36
36.33
42.61
47.42
50.86
53.11
54.47
55.37
56.19
57.16
58.27
59.32
60.08
60.45
60.46
60.22
59.84
59.32
58.58
57.4
55.55
52.75
48.77
43.55
37.25
30.3
23.31
16.88
11.33
6.65
2.49
-1.71
-6.42
-11.9
-18.04
-24.46
-30.65
-36.24
-41.17
-45.75
-50.6
-56.4
-63.68
-72.56
-82.69
-93.06
-102.13
-108.04
-109.08
-104.18
-93.4
-77.95
-59.92
-41.55
-24.62
-10.04
2.19
12.54
21.6
29.69
36.83
42.85
47.54
50.89
53.05
54.31
54.94
55.1
54.76
53.93
52.69
51.31
50.24
49.78
49.88
50.03
49.42
47.33
43.49
38.25
32.37
26.61
21.36
16.48
11.47
5.76
-0.9
-8.37
-16.18
-23.73
-30.47
-36.14
-40.69
-44.47
-48.11
-52.55
-58.68
-67.08
-77.54
-88.84
-98.91
-105.27
-105.85
-99.64
-87.1
-70.01
-50.81
-31.87
-14.83
-0.35
11.71
21.9
30.71
38.36
44.82
49.93
53.6
55.93
57.2
57.8
58.12
58.4
58.67
58.83
58.73
58.43
58.11
58.05
58.35
58.75
58.69
57.49
54.72
50.35
44.73
38.39
31.83
25.4
19.26
13.51
8.06
2.7
-2.94
-9.21
-16.23
-23.75
-31.25
-38.12
-44.09
-49.34
-54.48
-60.42
-67.92
-77.38
-88.58
-100.44
-111.09
-118.2
-119.61
-114.03
-101.52
-83.62
-62.71
-41.33
-21.39
-3.9
10.98
23.59
34.35
43.6
51.48
58.02
63.23
67.13
69.81
71.39
72.02
71.8
70.84
69.28
67.4
65.58
64.17
63.36
62.96
62.49
61.4
59.22
55.83
51.39
46.26
40.79
35.22
29.73
24.45
19.51
14.99
10.86
7.01
3.19
-0.85
-5.33
-10.38
-16.04
-22.18
-28.57
-34.89
-40.85
-46.24
-51.11
-55.83
-61.03
-67.47
-75.69
-85.66
-96.51
-106.41
-113.0
-114.02
-108.07
-95.2
-76.96
-55.92
-34.76
-15.59
0.54
13.58
24.06
32.61
39.63
45.23
49.42
52.19
53.79
54.65
55.27
56.02
56.99
57.96
58.52
58.34
57.4
55.96
54.47
53.24
52.29
51.33
49.82
47.3
43.47
38.38
32.36
25.98
19.82
14.34
9.66
5.58
1.62
-2.65
-7.45
-12.64
-17.88
-22.81
-27.23
-31.17
-34.84
-38.56
-42.73
-47.84
-54.43
-62.85
-72.97
-83.83
-93.66
-100.21
-101.38
-95.95
-84.04
-67.16
-47.71
-28.26
-10.78
3.79
15.48
24.93
32.76
39.22
44.14
47.22
48.34
47.84
46.43
44.98
44.14
44.12
44.7
45.42
45.8
45.56
44.7
43.38
41.88
40.4
38.89
37.14
34.75
31.41
27.04
21.86
16.39
11.18
6.63
2.77
-0.69
-4.23
-8.28
-13.0
-18.26
-23.67
-28.8
-33.3
-37.12
-40.48
-43.9
-48.08
-53.65
-61.03
-70.17
-80.4
-90.37
-98.21
-101.87
-99.76
-91.25
-77.01
-58.87
-39.31
-20.69
-4.6
8.35
18.44
26.39
32.88
38.4
43.13
47.09
50.3
52.75
54.44
55.35
55.51
55.05
54.2
53.27
52.57
52.31
52.5
52.93
53.2
52.84
51.45
48.87
45.27
41.04
36.65
32.5
28.73
25.24
21.79
18.1
13.98
9.39
4.4
-0.85
-6.18
-11.51
-16.85
-22.36
-28.16
-34.26
-40.47
-46.43
-51.82
-56.55
-60.91
-65.44
-70.83
-77.59
-85.82
-94.99
-103.89
-110.66
-113.21
-109.83
-99.73
-83.54
-63.16
-41.2
-20.17
-1.79
13.27
25.2
34.63
42.17
48.21
52.99
56.66
59.38
61.32
62.64
63.38
63.5
62.93
61.67
59.82
57.62
55.42
53.56
52.23
51.36
50.59
49.36
47.15
43.7
39.19
34.1
29.1
24.66
20.84
17.29
13.4
8.6
2.73
-3.93
-10.67
-16.69
-21.42
-24.78
-27.13
-29.15
-31.55
-34.78
-38.85
-43.49
-48.22
-52.59
-56.35
-59.51
-62.39
-65.5
-69.47
-74.89
-82.01
-90.5
-99.17
-106.08
-108.95
-105.86
-95.93
-79.81
-59.42
-37.44
-16.41
1.94
16.97
28.94
38.45
46.03
51.9
55.98
58.21
58.77
58.14
57.01
56.01
55.52
55.58
56.02
56.55
56.92
57.03
56.83
56.3
55.4
54.03
52.04
49.34
45.86
41.58
36.62
31.24
25.8
20.64
15.99
11.86
8.03
4.18
0.05
-4.52
-9.51
-14.77
-20.11
-25.29
-30.14
-34.51
-38.43
-42.11
-45.98
-50.62
-56.54
-63.96
-72.56
-81.37
-88.83
-93.15
-92.74
-86.7
-75.14
-59.29
-41.05
-22.55
-5.53
9.01
20.84
30.18
37.42
42.78
46.32
48.09
48.32
47.46
46.17
45.05
44.49
44.56
45.05
45.62
45.97
46.0
45.73
45.3
44.74
43.88
42.43
40.01
36.39
31.65
26.15
20.46
15.12
10.39
6.2
2.17
-2.26
-7.54
-13.81
-20.8
-27.88
-34.35
-39.69
-43.79
-47.01
-50.07
-53.78
-58.9
-65.84
-74.51
-84.2
-93.44
-100.3
-102.75
-99.31
-89.6
-74.52
-56.06
-36.58
-18.12
-1.91
11.64
22.74
31.78
39.1
44.87
49.22
52.24
54.11
55.1
55.52
55.67
55.78
55.9
55.93
55.71
55.17
54.44
53.7
53.14
52.8
52.42
51.6
49.94
47.22
43.45
38.86
33.8
28.62
23.64
19.02
14.78
10.7
6.44
1.63
-3.9
-10.08
-16.6
-23.01
-28.95
-34.3
-39.13
-43.71
-48.37
-53.51
-59.47
-66.52
-74.69
-83.51
-91.94
-98.42
-101.18
-98.83
-90.83
-77.73
-61.09
-42.94
-25.24
-9.3
4.27
15.53
24.86
32.63
39.02
44.05
47.73
50.11
51.42
51.99
52.16
52.19
52.23
52.29
52.3
52.18
51.91
51.48
50.91
50.14
49.06
47.46
45.17
42.04
38.12
33.57
28.66
23.62
18.59
13.68
9.04
4.85
1.32
-1.48
-3.75
-5.95
-8.68
-12.37
-17.05
-22.37
-27.67
-32.39
-36.29
-39.53
-42.59
-46.08
-50.53
-56.27
-63.35
-71.48
-79.94
-87.57
-92.89
-94.38
-90.9
-82.13
-68.77
-52.45
-35.21
-18.94
-4.8
6.89
16.49
24.55
31.44
37.21
41.69
44.74
46.49
47.31
47.65
47.87
48.07
48.15
47.98
47.43
46.54
45.4
44.17
42.95
41.77
40.5
38.88
36.6
33.43
29.34
24.58
19.5
14.52
9.85
5.52
1.34
-2.9
-7.41
-12.27
-17.45
-22.78
-28.01
-32.81
-36.97
-40.46
-43.46
-46.44
-49.94
-54.52
-60.46
-67.67
-75.5
-82.74
-87.79
-89.0
-85.26
-76.3
-62.94
-46.83
-29.88
-13.76
0.59
12.87
23.31
32.23
39.8
45.92
50.4
53.06
53.97
53.4
51.86
49.96
48.26
47.09
46.57
46.58
46.88
47.24
47.46
47.38
46.82
45.58
43.43
40.28
36.16
31.27
25.92
20.47
15.22
10.4
6.13
2.35
-1.13
-4.68
-8.72
-13.49
-18.99
-24.9
-30.74
-36.09
-40.73
-44.75
-48.48
-52.44
-57.17
-63.21
-70.85
-79.93
-89.55
-98.08
-103.45
-103.72
-97.75
-85.7
-69.04
-50.03
-31.04
-13.9
0.42
11.9
21.05
28.6
35.14
41.02
46.33
51.0
54.89
57.83
59.67
60.38
60.03
58.87
57.32
55.82
54.75
54.26
54.27
54.43
54.26
53.27
51.08
47.61
43.11
38.11
33.29
29.23
26.19
24.01
22.13
19.91
16.89
12.96
8.41
3.75
-0.56
-4.32
-7.63
-10.88
-14.55
-19.03
-24.45
-30.57
-36.83
-42.64
-47.64
-51.92
-56.04
-60.83
-66.98
-74.87
-84.24
-94.22
-103.37
-109.85
-111.83
-107.97
-97.94
-82.64
-64.03
-44.46
-26.03
-9.9
3.72
15.29
25.41
34.5
42.67
49.88
56.05
61.2
65.4
68.72
71.23
73.03
74.3
75.25
76.06
76.88
77.76
78.67
79.48
79.95
79.72
78.43
75.87
72.08
67.48
62.65
58.19
54.45
51.45
48.97
46.6
43.94
40.64
36.48
31.41
25.63
19.55
13.64
8.22
3.3
-1.5
-6.75
-12.9
-20.1
-28.07
-36.24
-43.91
-50.54
-55.9
-60.12
-63.71
-67.49
-72.37
-79.13
-87.97
-98.36
-108.84
-117.26
-121.27
-119.02
-109.77
-94.24
-74.4
-52.93
-32.34
-14.38
0.26
11.79
20.87
28.21
34.27
39.31
43.44
46.68
49.03
50.42
50.83
50.33
49.18
47.71
46.33
45.25
44.52
44.12
43.95
43.95
44.0
43.85
43.11
41.35
38.37
34.29
29.52
24.56
19.82
15.5
11.62
8.1
4.88
1.9
-1.0
-4.07
-7.65
-11.95
-17.02
-22.64
-28.46
-34.13
-39.47
-44.55
-49.65
-55.29
-62.02
-70.23
-79.89
-90.25
-99.79
-106.37
-107.86
-102.72
-90.67
-72.88
-51.68
-29.89
-9.95
6.61
19.43
28.96
36.0
41.27
45.21
48.03
49.96
51.31
52.41
53.51
54.63
55.61
56.27
56.51
56.42
56.18
55.96
55.78
55.55
55.13
54.37
53.13
51.3
48.81
45.66
41.94
37.81
33.42
28.87
24.2
19.5
14.94
10.69
6.89
3.43
0.02
-3.81
-8.52
-14.3
-21.0
-28.13
-35.07
-41.31
-46.7
-51.46
-56.16
-61.57
-68.42
-77.08
-87.31
-98.07
-107.46
-113.18
-113.17
-106.33
-93.03
-75.01
-54.94
-35.51
-18.67
-5.32
4.62
11.82
17.13
21.24
24.58
27.32
29.43
30.74
31.06
30.23
28.3
25.44
21.99
18.38
15.09
12.57
11.2
11.22
12.64
15.21
18.46
21.75
24.55
26.55
27.82
28.72
29.57
30.45
30.98
30.61
28.97
26.25
23.24
21.0
20.3
21.27
23.24
25.2
26.2
25.71
23.67
20.26
15.71
10.17
3.83
-3.07
-10.19
-17.23
-24.05
-30.82
-37.84
-45.47
-53.74
-62.22
-69.87
-75.22
-76.75
-73.35
-64.73
-51.58
-35.42
-18.16
-1.5
13.41
26.14
36.77
45.62
52.95
58.83
63.25
66.3
68.25
69.64
71.07
72.97
75.43
78.12
80.46
81.88
82.1
81.26
79.88
78.52
77.47
76.55
75.09
72.26
67.43
60.55
52.15
43.13
34.4
26.52
19.61
13.46
7.7
2.11
-3.37
-8.55
-13.16
-17.09
-20.54
-23.99
-28.08
-33.27
-39.54
-46.35
-52.9
-58.49
-62.92
-66.5
-69.94
-74.02
-79.31
-85.94
-93.61
-101.43
-108.03
-111.7
-110.78
-104.26
-92.27
-76.08
-57.78
-39.63
-23.3
-9.53
1.74
11.03
18.82
25.29
30.34
33.74
35.44
35.73
35.22
34.65
34.59
35.23
36.41
37.67
38.58
38.91
38.68
38.06
37.21
36.17
34.89
33.22
31.05
28.36
25.2
21.69
17.94
14.04
9.98
5.71
1.1
-3.88
-9.17
-14.6
-19.9
-24.8
-29.06
-32.61
-35.49
-37.98
-40.53
-43.77
-48.35
-54.76
-63.03
-72.59
-82.19
-90.08
-94.36
-93.45
-86.6
-74.14
-57.53
-38.91
-20.52
-4.05
9.61
20.41
28.78
35.2
40.02
43.34
45.23
45.82
45.43
44.42
43.14
41.81
40.55
39.39
38.39
37.61
37.09
36.83
36.8
36.79
36.63
36.04
34.86
33.01
30.53
27.59
24.34
20.93
17.44
13.87
10.25
6.57
2.84
-0.99
-5.08
-9.6
-14.67
-20.27
-26.14
-31.89
-37.07
-41.37
-44.7
-47.28
-49.64
-52.53
-56.75
-62.96
-71.29
-81.2
-91.31
-99.66
-104.13
-103.08
-95.84
-83.02
-66.31
-48.06
-30.57
-15.49
-3.43
5.89
13.34
19.78
25.77
31.34
36.24
40.12
42.81
44.32
44.84
44.57
43.69
42.41
40.97
39.72
38.94
38.83
39.32
40.16
40.91
41.12
40.45
38.8
36.38
33.61
30.97
28.81
27.18
25.89
24.65
23.22
21.54
19.69
17.77
15.78
13.65
11.21
8.32
4.85
0.71
-4.12
-9.62
-15.62
-21.86
-28.06
-34.05
-39.86
-45.79
-52.31
-59.88
-68.74
-78.68
-88.94
-98.14
-104.53
-106.37
-102.51
-92.77
-78.11
-60.24
-41.1
-22.25
-4.59
11.53
26.03
38.81
49.65
58.3
64.7
69.08
71.88
73.61
74.64
75.1
75.0
74.25
72.89
71.07
69.04
67.08
65.35
63.81
62.24
60.32
57.78
54.54
50.71
46.5
42.16
37.78
33.32
28.61
