0
-3.02
-1.21
0.12
1.17
2.18
3.27
4.42
5.45
6.19
6.49
6.36
5.91
5.36
4.88
4.58
4.48
4.53
4.65
4.75
4.73
4.53
4.11
3.49
2.72
1.85
0.93
-0.02
-0.94
-1.75
-2.34
-2.63
-2.62
-2.45
-2.31
-2.38
-2.73
-3.28
-3.87
-4.37
-4.73
-5.02
-5.36
-5.86
-6.59
-7.56
-8.66
-9.67
-10.29
-10.17
-9.1
-7.12
-4.51
-1.75
0.72
2.66
4.09
5.17
5.99
6.49
6.52
5.97
4.95
3.77
2.83
2.43
2.64
3.29
4.08
4.74
5.13
5.21
5.08
4.83
4.54
4.27
3.99
3.7
3.35
2.94
2.46
1.94
1.39
0.82
0.24
-0.32
-0.8
-1.18
-1.46
-1.68
-1.89
-2.1
-2.3
-2.48
-2.71
-3.17
-4.04
-5.42
-7.22
-9.12
-10.67
-11.44
-11.15
-9.81
-7.59
-4.88
-2.08
0.46
2.51
3.97
4.87
5.34
5.5
5.47
5.31
5.07
4.76
4.41
4.06
3.75
3.53
3.41
3.44
3.58
3.8
4.0
4.1
4.05
3.86
3.57
3.2
2.72
2.07
1.23
0.22
-0.82
-1.77
-2.52
-3.07
-3.51
-3.91
-4.33
-4.75
-5.18
-5.64
-6.21
-6.94
-7.85
-8.91
-10.04
-11.12
-11.92
-12.18
-11.63
-10.13
-7.77
-4.91
-2.06
0.35
2.11
3.3
4.1
4.68
5.06
5.14
4.83
4.13
3.25
2.45
1.96
1.88
2.12
2.54
2.95
3.27
3.44
3.5
3.46
3.34
3.11
2.73
2.19
1.56
0.94
0.43
0.03
-0.36
-0.86
-1.57
-2.4
-3.15
-3.56
-3.49
-3.04
-2.52
-2.28
-2.62
-3.59
-5.02
-6.61
-7.99
-8.9
-9.15
-8.68
-7.52
-5.82
-3.78
-1.63
0.41
2.15
3.48
4.39
4.92
5.19
5.33
5.44
5.5
5.46
5.22
4.78
4.24
3.78
3.6
3.77
4.24
4.81
5.31
5.58
5.52
5.1
4.35
3.35
2.3
1.39
0.79
0.55
0.53
0.55
0.42
0.05
-0.53
-1.25
-1.99
-2.72
-3.37
-3.9
-4.26
-4.49
-4.7
-5.15
-6.01
-7.33
-8.9
-10.27
-10.93
-10.55
-9.07
-6.78
-4.1
-1.51
0.65
2.28
3.45
4.3
4.94
5.4
5.65
5.64
5.42
5.09
4.83
4.77
4.93
5.21
5.49
5.62
5.6
5.43
5.23
5.05
4.9
4.74
4.52
4.15
3.56
2.79
1.91
1.11
0.57
0.41
0.6
0.92
1.09
0.87
0.21
-0.72
-1.66
-2.38
-2.85
-3.21
-3.68
-4.42
-5.5
-6.85
-8.33
-9.82
-11.14
-12.12
-12.48
-11.99
-10.49
-8.03
-4.94
-1.71
1.19
3.42
4.9
5.81
6.38
6.81
7.15
7.31
7.18
6.73
6.09
5.5
5.18
5.2
5.46
5.79
5.98
5.98
5.86
5.7
5.58
5.44
5.2
4.8
4.24
3.55
2.82
2.13
1.49
0.91
0.38
-0.14
-0.7
-1.34
-2.1
-2.94
-3.8
-4.56
-5.16
-5.54
-5.77
-5.95
-6.26
-6.86
-7.86
-9.3
-11.02
-12.72
-13.96
-14.35
-13.64
-11.82
-9.2
-6.25
-3.45
-1.12
0.62
1.91
2.91
3.75
4.39
4.72
4.66
4.3
3.85
3.57
3.64
4.0
4.45
4.7
4.64
4.34
4.03
3.93
4.12
4.48
4.77
4.79
4.49
3.96
3.37
2.83
2.33
1.83
1.25
0.59
-0.09
-0.71
-1.24
-1.69
-2.12
-2.58
-3.15
-3.89
-4.89
-6.22
-7.86
-9.66
-11.3
-12.38
-12.52
-11.55
-9.49
-6.68
-3.56
-0.63
1.76
3.45
4.5
5.07
5.36
5.51
5.6
5.64
5.68
5.74
5.85
6.03
6.25
6.5
6.76
6.96
7.02
6.89
6.51
5.95
5.33
4.78
4.29
3.76
3.05
2.06
0.89
-0.22
-1.0
-1.29
-1.14
-0.79
-0.51
-0.52
-0.84
-1.41
-2.08
-2.74
-3.32
-3.82
-4.32
-5.0
-6.03
-7.54
-9.45
-11.42
-12.9
-13.35
-12.47
-10.38
-7.53
-4.56
-2.03
-0.15
1.13
2.06
2.9
3.78
4.64
5.34
5.69
5.62
5.23
4.73
4.37
4.33
4.67
5.26
5.91
6.41
6.66
6.63
6.39
6.03
5.62
5.18
4.76
4.32
3.88
3.5
3.22
3.17
3.37
3.75
4.09
4.1
3.59
2.52
1.13
-0.23
-1.23
-1.71
-1.8
-1.84
-2.27
-3.45
-5.55
-8.37
-11.39
-13.87
-15.09
-14.62
-12.5
-9.24
-5.6
-2.26
0.39
2.28
3.58
4.46
5.04
5.33
5.36
5.22
5.09
5.1
5.33
5.7
6.16
6.58
6.94
7.23
7.45
7.62
7.75
7.87
7.94
7.88
7.59
6.99
6.08
4.96
3.78
2.65
1.63
0.68
-0.23
-1.07
-1.78
-2.33
-2.7
-2.97
-3.26
-3.63
-4.16
-4.84
-5.67
-6.67
-7.91
-9.44
-11.26
-13.28
-15.25
-16.82
-17.55
-17.12
-15.45
-12.73
-9.48
-6.31
-3.69
-1.76
-0.36
0.83
2.08
3.41
4.65
5.56
5.96
5.92
5.65
5.43
5.49
5.9
6.55
7.25
7.79
8.03
7.93
7.54
6.97
6.3
5.58
4.83
4.1
3.51
3.12
2.93
2.81
2.53
1.89
0.79
-0.64
-2.13
-3.44
-4.41
-5.06
-5.56
-6.13
-7.01
-8.38
-10.27
-12.51
-14.74
-16.39
-16.93
-16.02
-13.68
-10.28
-6.42
-2.66
0.58
3.16
5.08
6.45
7.35
7.85
8.0
7.87
7.59
7.29
7.11
7.14
7.38
7.79
8.28
8.74
9.09
9.3
9.37
9.26
8.92
8.25
7.18
5.77
4.17
2.64
1.43
0.66
0.26
0.05
-0.21
-0.72
-1.47
-2.39
-3.31
-4.12
-4.75
-5.3
-5.9
-6.73
-7.98
-9.7
-11.83
-14.13
-16.22
-17.62
-17.91
-16.84
-14.4
-10.9
-6.91
-3.04
0.18
2.52
4.08
5.18
6.08
6.93
7.62
7.99
7.97
7.66
7.34
7.33
7.75
8.53
9.43
10.18
10.58
10.66
10.5
10.29
10.14
10.09
10.04
9.83
9.27
8.26
6.87
5.33
3.94
2.91
2.24
1.73
1.09
0.18
-0.99
-2.19
-3.21
-3.96
-4.56
-5.28
-6.39
-8.02
-10.09
-12.43
-14.71
-16.62
-17.84
-18.11
-17.29
-15.4
-12.71
-9.63
-6.61
-3.97
-1.75
0.19
2.05
3.92
5.71
7.18
8.05
8.2
7.77
7.1
6.56
6.48
6.89
7.68
8.58
9.37
9.92
10.18
10.13
9.74
8.99
7.93
6.7
5.52
4.58
3.93
3.49
3.08
2.56
1.88
1.11
0.29
-0.54
-1.41
-2.38
-3.41
-4.42
-5.34
-6.2
-7.17
-8.46
-10.18
-12.25
-14.43
-16.31
-17.44
-17.48
-16.2
-13.65
-10.14
-6.19
-2.37
0.86
3.33
5.17
6.58
7.73
8.58
8.95
8.76
8.12
7.35
6.83
6.81
7.29
8.07
8.87
9.47
9.82
9.95
9.95
9.83
9.55
9.03
8.2
7.12
5.89
4.65
3.49
2.39
1.27
0.02
-1.39
-2.83
-4.07
-4.91
-5.26
-5.29
-5.31
-5.63
-6.49
-7.97
-10.0
-12.39
-14.9
-17.21
-18.93
-19.66
-19.13
-17.27
-14.32
-10.75
-7.08
-3.81
-1.14
0.95
2.66
4.25
5.86
7.51
9.08
10.39
11.26
11.68
11.75
11.69
11.71
11.93
12.35
12.91
13.51
14.05
14.46
14.64
14.51
14.02
13.2
12.17
11.09
10.11
9.3
8.64
8.07
7.55
6.99
6.28
5.27
3.84
1.98
-0.17
-2.32
-4.19
-5.62
-6.61
-7.31
-7.94
-8.73
-9.85
-11.46
-13.58
-16.05
-18.48
-20.26
-20.78
-19.66
-16.94
-13.06
-8.74
-4.62
-1.09
1.76
4.11
6.15
7.99
9.56
10.72
11.33
11.43
11.22
11.01
11.09
11.62
12.54
13.62
14.53
15.04
15.05
14.65
14.04
13.37
12.73
12.1
11.43
10.68
9.82
8.86
7.8
6.72
5.67
4.75
4.01
3.45
2.95
2.39
1.64
0.69
-0.43
-1.61
-2.78
-3.92
-5.03
-6.13
-7.29
-8.62
-10.34
-12.62
-15.47
-18.6
-21.48
-23.41
-23.86
-22.63
-19.89
-16.14
-11.96
-7.9
-4.3
-1.32
1.04
2.85
4.26
5.37
6.27
7.02
7.61
8.12
8.59
9.09
9.6
10.11
10.53
10.8
10.95
11.06
11.19
11.36
11.45
11.34
10.88
10.02
8.8
7.34
5.83
4.44
3.34
2.6
2.19
1.92
1.57
0.93
-0.1
-1.4
-2.77
-4.03
-5.1
-6.08
-7.18
-8.65
-10.64
-13.1
-15.83
-18.4
-20.3
-21.0
-20.15
-17.69
-13.93
-9.46
-4.98
-1.09
1.87
3.87
5.1
5.87
6.48
7.11
7.8
8.5
9.1
9.59
9.99
10.43
11.03
11.79
12.58
13.17
13.36
13.11
12.57
11.95
11.46
11.12
10.87
10.53
9.99
9.22
8.28
7.21
6.05
4.9
3.83
2.93
2.25
1.68
1.05
0.18
-1.01
-2.43
-3.89
-5.19
-6.25
-7.13
-7.94
-8.88
-10.14
-11.83
-14.02
-16.57
-19.19
-21.43
-22.8
-22.92
-21.67
-19.15
-15.69
-11.69
-7.55
-3.62
-0.14
2.77
5.1
6.94
8.37
9.45
10.15
10.47
10.5
10.41
10.44
10.74
11.32
12.04
12.71
13.19
13.43
13.47
13.36
13.14
12.81
12.35
11.77
11.06
10.23
9.28
8.21
7.11
6.08
5.22
4.55
4.02
3.56
3.05
2.4
1.58
0.56
-0.63
-1.93
-3.23
-4.46
-5.58
-6.62
-7.65
-8.75
-10.04
-11.61
-13.56
-15.9
-18.46
-20.81
-22.33
-22.43
-20.85
-17.81
-13.92
-9.94
-6.46
-3.7
-1.56
0.18
1.61
2.74
3.44
3.71
3.71
3.7
3.92
4.47
5.34
6.38
7.44
8.45
9.36
10.16
10.82
11.29
11.54
11.55
11.35
11.02
10.6
10.11
9.57
8.98
8.38
7.88
7.58
7.51
7.62
7.75
7.75
7.51
7.13
6.75
6.55
6.59
6.74
6.75
6.43
5.76
4.91
4.13
3.59
3.29
3.09
2.82
2.42
1.97
1.61
1.42
1.34
1.24
1.01
0.65
0.3
0.07
0.03
0.06
0.05
-0.12
-0.43
-0.79
-1.09
-1.26
-1.29
-1.22
-1.1
-1.0
-1.05
-1.39
-2.08
-3.12
-4.33
-5.46
-6.31
-6.85
-7.2
-7.59
-8.26
-9.31
-10.7
-12.25
-13.74
-15.01
-16.01
-16.85
-17.73
-18.88
-20.46
-22.51
-24.83
-27.04
-28.64
-29.12
-28.12
-25.52
-21.56
-16.72
-11.67
-7.03
-3.28
-0.58
1.22
2.43
3.4
4.4
5.5
6.64
7.67
8.48
9.04
9.41
9.7
10.02
10.41
10.83
11.18
11.35
11.31
11.06
10.66
10.18
9.58
8.81
7.79
6.54
5.21
4.0
3.04
2.32
1.67
0.88
-0.15
-1.36
-2.55
-3.56
-4.36
-5.13
-6.07
-7.39
-9.14
-11.28
-13.72
-16.29
-18.72
-20.63
-21.6
-21.28
-19.61
-16.88
-13.58
-10.24
-7.2
-4.52
-2.15
-0.03
1.84
3.35
4.39
4.96
5.1
4.96
4.7
4.48
4.43
4.68
5.24
6.04
6.89
7.58
7.94
7.94
7.63
7.15
6.61
6.01
5.31
4.42
3.27
1.86
0.31
-1.21
-2.56
-3.65
-4.59
-5.57
-6.78
-8.32
-10.14
-12.13
-14.16
-16.15
-17.93
-19.26
-19.75
-19.02
-16.92
-13.64
-9.67
-5.66
-2.09
0.83
3.16
5.09
6.75
8.09
8.96
9.24
8.97
8.37
7.77
7.49
7.69
8.33
9.22
10.09
10.66
10.84
10.68
10.32
9.91
9.51
9.04
8.37
7.39
6.1
4.58
2.98
1.44
-0.01
-1.38
-2.7
-4.02
-5.3
-6.49
-7.58
-8.62
-9.69
-10.99
-12.71
-14.92
-17.54
-20.19
-22.29
-23.2
-22.47
-20.03
-16.26
-11.78
-7.3
-3.33
-0.09
2.41
4.29
5.65
6.58
7.15
7.43
7.56
7.67
7.84
8.13
8.52
8.95
9.37
9.73
10.06
10.4
10.82
11.32
11.88
12.35
12.56
12.36
11.72
10.67
9.35
7.89
6.36
4.8
3.22
1.65
0.17
-1.15
-2.25
-3.18
-4.02
-4.92
-5.97
-7.24
-8.73
-10.45
-12.4
-14.55
-16.78
-18.81
-20.27
-20.74
-19.93
-17.81
-14.6
-10.81
-7.02
-3.68
-1.01
1.04
2.73
4.28
5.74
6.93
7.6
7.59
6.96
6.06
5.32
5.06
5.35
5.97
6.64
7.12
7.32
7.34
7.27
7.17
6.98
6.57
5.87
4.89
3.79
2.77
2.02
1.58
1.33
1.02
0.43
-0.54
-1.75
-2.96
-3.93
-4.63
-5.22
-6.02
-7.34
-9.35
-11.92
-14.75
-17.37
-19.25
-19.92
-19.11
-16.81
-13.29
-9.08
-4.74
-0.74
2.67
5.5
7.86
9.84
11.46
12.66
13.41
13.74
13.78
13.67
13.54
13.53
13.65
13.93
14.3
14.64
14.82
14.74
14.38
13.79
13.05
12.22
11.31
10.3
9.18
8.0
6.84
5.83
4.99
4.32
3.72
3.05
2.18
1.0
-0.46
-2.13
-3.76
-5.13
-6.1
-6.68
-7.1
-7.68
-8.73
-10.42
-12.69
-15.32
-17.98
-20.23
-21.68
-21.97
-20.92
-18.58
-15.21
-11.3
-7.4
-3.93
-1.11
1.11
2.93
4.63
6.36
8.15
9.83
11.2
12.06
12.37
12.29
12.05
11.94
12.06
12.42
12.89
13.39
13.86
14.27
14.59
14.67
14.39
13.68
12.66
11.57
10.7
10.22
10.13
10.29
10.52
10.65
10.57
10.24
9.64
8.8
7.79
6.74
5.77
4.9
4.05
3.06
1.79
0.23
-1.47
-3.08
-4.44
-5.52
-6.45
-7.45
-8.75
-10.51
-12.77
-15.42
-18.24
-20.83
-22.75
-23.57
-22.99
-20.97
-17.79
-13.96
-10.07
-6.59
-3.69
-1.32
0.76
2.77
4.8
6.75
8.41
9.59
10.21
10.37
10.31
10.25
10.33
10.58
10.93
11.26
11.46
11.48
11.27
10.86
10.26
9.53
8.74
7.96
7.23
6.58
5.96
5.31
4.64
3.99
3.42
2.97
2.6
2.22
1.74
1.11
0.35
-0.46
-1.27
-2.02
-2.69
-3.26
-3.73
-4.08
-4.39
-4.74
-5.24
-6.02
-7.21
-8.89
-11.04
-13.49
-15.87
-17.63
-18.18
-17.18
-14.65
-11.0
-6.94
-3.17
-0.24
1.71
2.82
3.44
3.94
4.59
5.43
6.35
7.12
7.55
7.56
7.29
6.98
6.83
6.94
7.24
7.6
7.96
8.29
8.63
8.98
9.22
9.18
8.75
7.9
6.81
5.72
4.83
4.25
3.94
3.77
3.56
3.17
2.54
1.69
0.78
-0.01
-0.52
-0.76
-0.86
-1.04
-1.47
-2.13
-2.89
-3.55
-4.03
-4.4
-4.84
-5.53
-6.54
-7.83
-9.35
-11.07
-13.0
-15.08
-16.99
-18.27
-18.41
-17.11
-14.49
-11.05
-7.52
-4.46
-2.17
-0.52
0.79
2.05
3.37
4.66
5.68
6.29
6.48
6.41
6.26
6.21
6.31
6.51
6.74
6.97
7.24
7.59
8.0
8.34
8.46
8.23
7.64
6.8
5.92
5.15
4.52
4.03
3.67
3.48
3.55
3.88
4.38
4.77
4.74
4.13
2.99
1.6
0.35
-0.5
-0.92
-1.07
-1.23
-1.62
-2.35
-3.39
-4.58
-5.75
-6.7
-7.31
-7.57
-7.63
-7.74
-8.18
-9.16
-10.69
-12.57
-14.5
-16.1
-17.01
-16.95
-15.77
-13.49
-10.33
-6.74
-3.23
-0.28
1.87
3.2
3.9
4.25
4.47
4.68
4.91
5.12
5.28
5.34
5.31
5.25
5.2
5.21
5.24
5.2
4.99
4.55
3.91
3.23
2.67
2.33
2.21
2.16
2.03
1.72
1.25
0.72
0.24
-0.07
-0.23
-0.32
-0.49
-0.85
-1.43
-2.11
-2.76
-3.2
-3.4
-3.41
-3.39
-3.46
-3.7
-4.11
-4.59
-5.1
-5.59
-6.05
-6.55
-7.13
-7.85
-8.76
-9.93
-11.36
-12.95
-14.5
-15.7
-16.22
-15.84
-14.48
-12.28
-9.53
-6.57
-3.77
-1.42
0.34
1.5
2.24
2.76
3.28
3.9
4.59
5.21
5.6
5.7
5.51
5.22
5.01
5.03
5.34
5.85
6.43
6.92
7.21
7.35
7.39
7.4
7.34
7.07
6.44
5.44
4.21
3.08
2.3
2.01
2.12
2.37
2.51
2.38
1.96
1.32
0.57
-0.25
-1.1
-1.99
-2.92
-3.86
-4.82
-5.77
-6.62
-7.28
-7.63
-7.72
-7.7
-7.87
-8.47
-9.58
-11.09
-12.69
-14.03
-14.82
-14.85
-14.05
-12.45
-10.21
-7.56
-4.87
-2.48
-0.61
0.71
1.64
2.41
3.21
4.08
4.95
5.69
6.2
6.43
6.42
6.22
5.94
5.69
5.57
5.67
5.98
6.42
6.84
7.09
7.09
6.84
6.38
5.79
5.15
4.56
4.13
3.91
3.89
3.93
3.83
3.4
2.56
1.38
0.06
-1.14
-2.02
-2.47
-2.51
-2.29
-2.02
-1.91
-2.13
-2.76
-3.68
-4.69
-5.55
-6.08
-6.27
-6.3
-6.43
-6.94
-8.0
-9.55
-11.38
-13.11
-14.25
-14.37
-13.25
-10.93
-7.76
-4.29
-1.11
1.37
2.99
3.85
4.17
4.21
4.11
3.96
3.73
3.46
3.15
2.88
2.72
2.74
2.95
3.29
3.64
3.93
4.09
4.14
4.16
4.18
4.21
4.18
4.06
3.83
3.56
3.35
3.24
3.21
3.19
3.15
3.05
2.93
2.76
2.46
1.91
1.01
-0.21
-1.61
-2.96
-4.06
-4.88
-5.47
-5.95
-6.44
-6.99
-7.66
-8.49
-9.54
-10.83
-12.23
-13.46
-14.18
-14.08
-12.98
-10.97
-8.36
-5.55
-2.93
-0.82
0.69
1.64
2.16
2.36
2.33
2.11
1.81
1.56
1.54
1.88
2.58
3.5
4.44
5.24
5.84
6.25
6.49
6.53
6.34
5.91
5.32
4.74
4.3
4.07
4.02
4.06
4.09
4.01
3.76
3.23
2.43
1.41
0.33
-0.6
-1.26
-1.64
-1.89
-2.2
-2.71
-3.44
-4.29
-5.13
-5.88
-6.52
-7.11
-7.73
-8.52
-9.52
-10.75
-12.03
-13.07
-13.51
-13.05
-11.64
-9.45
-6.85
-4.24
-1.93
-0.06
1.38
2.49
3.32
3.96
4.42
4.7
4.82
4.8
4.74
4.73
4.89
5.31
5.96
6.73
7.44
7.91
8.05
7.83
7.3
6.57
5.76
4.93
4.2
3.59
3.13
2.82
2.64
2.53
2.4
2.14
1.71
1.1
0.38
-0.31
-0.85
-1.16
-1.27
-1.23
-1.16
-1.17
-1.4
-1.95
-2.85
-4.04
-5.4
-6.83
-8.26
-9.68
-11.11
-12.47
-13.57
-14.1
-13.81
-12.59
-10.56
-8.02
-5.35
-2.85
-0.71
1.05
2.48
3.66
4.64
5.41
5.87
6.0
5.87
5.67
5.67
6.09
6.99
8.26
9.62
10.76
11.48
11.71
11.43
10.73
9.73
8.56
7.4
6.42
5.72
5.3
5.08
4.92
4.73
4.43
3.95
3.26
2.32
1.13
-0.25
-1.67
-2.99
-4.06
-4.82
-5.26
-5.44
-5.5
-5.65
-6.13
-7.17
-8.81
-10.94
-13.23
-15.26
-16.66
-17.16
-16.69
-15.31
-13.2
-10.67
-8.03
-5.6
-3.55
-1.9
-0.56
0.62
1.76
2.83
3.73
4.35
4.68
4.78
4.74
4.68
4.67
4.73
4.87
5.08
5.3
5.5
5.62
5.66
5.65
5.64
5.64
5.59
5.42
5.09
4.6
4.06
3.56
3.13
2.72
2.26
1.67
0.95
0.2
-0.5
-1.02
-1.34
-1.49
-1.59
-1.83
-2.4
-3.47
-5.1
-7.18
-9.5
-11.72
-13.47
-14.36
-14.1
-12.57
-9.91
-6.53
-3.04
-0.01
2.16
3.47
4.15
4.6
5.05
5.5
5.78
5.72
5.33
4.83
4.55
4.7
5.25
5.95
6.51
6.71
6.55
6.21
5.9
5.8
5.93
6.2
6.48
6.66
6.68
6.57
6.41
6.26
6.14
6.0
5.69
5.08
4.12
2.93
1.68
0.54
-0.45
-1.39
-2.39
-3.51
-4.61
-5.47
-5.95
-6.07
-6.11
-6.47
-7.49
-9.21
-11.35
-13.37
-14.67
-14.8
-13.62
-11.32
-8.28
-5.01
-1.92
0.71
2.76
4.25
5.26
5.95
6.43
6.78
7.0
7.02
6.8
6.31
5.72
5.23
5.05
5.23
5.68
6.21
6.64
6.94
7.18
7.48
7.89
8.23
8.22
7.66
6.52
5.03
3.58
2.51
1.95
1.75
1.6
1.23
0.54
-0.36
-1.25
-1.95
-2.42
-2.8
-3.26
-3.93
-4.86
-5.99
-7.26
-8.59
-9.97
-11.34
-12.61
-13.57
-14.0
-13.67
-12.53
-10.7
-8.48
-6.23
-4.18
-2.44
-0.95
0.4
1.71
2.95
4.05
4.89
5.4
5.56
5.44
5.18
4.93
4.84
4.98
5.34
5.8
6.23
6.52
6.62
6.58
6.4
6.04
5.47
4.63
3.58
2.42
1.34
0.44
-0.27
-0.85
-1.4
-1.95
-2.47
-2.91
-3.22
-3.42
-3.57
-3.78
-4.13
-4.69
-5.53
-6.66
-8.06
-9.61
-11.08
-12.12
-12.38
-11.62
-9.82
-7.23
-4.28
-1.45
0.95
2.82
4.29
5.55
6.7
7.64
8.14
8.03
7.32
6.29
5.33
4.8
4.81
5.26
5.91
6.53
7.02
7.4
7.72
8.0
8.15
8.07
7.68
7.01
6.18
5.3
4.48
3.76
3.16
2.65
2.19
1.7
1.1
0.34
-0.58
-1.54
-2.39
-3.02
-3.39
-3.58
-3.77
-4.18
-4.99
-6.31
-8.15
-10.35
-12.63
-14.6
-15.86
-16.13
-15.27
-13.35
-10.64
-7.54
-4.44
-1.7
0.48
2.05
3.12
3.95
4.77
5.77
6.92
8.06
8.98
9.52
9.67
9.51
9.17
8.81
8.53
8.42
8.52
8.8
9.18
9.43
9.36
8.85
7.89
6.64
5.34
4.2
3.35
2.85
2.67
2.7
2.8
2.83
2.67
2.29
1.73
1.12
0.58
0.18
-0.1
-0.32
-0.52
-0.78
-1.13
-1.69
-2.52
-3.67
-5.08
-6.7
-8.47
-10.33
-12.16
-13.69
-14.52
-14.27
-12.79
-10.29
-7.28
-4.42
-2.14
-0.57
0.5
1.39
2.34
3.42
4.54
5.56
6.38
6.93
7.22
7.25
7.1
6.88
6.7
6.63
6.67
6.76
6.84
6.87
6.84
6.76
6.6
6.27
5.69
4.84
3.85
2.89
2.16
1.75
1.66
1.79
1.99
2.16
2.25
2.26
2.19
2.08
2.0
1.99
2.13
2.4
2.79
3.2
3.5
3.65
3.6
3.38
3.03
2.6
2.18
1.81
1.53
1.36
1.24
1.12
0.98
0.8
0.6
0.41
0.24
0.08
-0.14
-0.45
-0.85
-1.3
-1.75
-2.13
-2.42
-2.64
-2.82
-2.95
-2.97
-2.79
-2.38
-1.82
-1.33
-1.14
-1.4
-2.02
-2.72
-3.25
-3.5
-3.65
-4.01
-4.84
-6.15
-7.63
-8.89
-9.6
-9.7
-9.4
-9.08
-9.08
-9.66
-10.85
-12.59
-14.59
-16.46
-17.68
-17.74
-16.35
-13.54
-9.74
-5.64
-1.94
0.9
2.75
3.81
4.43
4.96
5.55
6.21
6.83
7.29
7.54
7.68
7.79
7.97
8.17
8.29
8.21
7.9
7.43
7.0
6.79
6.83
7.03
7.19
7.17
6.88
6.35
5.69
4.96
4.22
3.52
2.9
2.43
2.1
1.78
1.33
0.59
-0.45
-1.7
-2.96
-4.03
-4.84
-5.39
-5.78
-6.09
-6.44
-6.93
-7.62
-8.47
-9.35
-9.99
-10.11
-9.53
-8.27
-6.48
-4.43
-2.36
-0.43
1.26
2.67
3.76
4.48
4.85
4.87
4.55
3.9
2.98
1.93
0.96
0.27
-0.03
0.06
0.37
0.72
0.96
1.02
0.9
0.65
0.33
0.0
-0.29
-0.54
-0.8
-1.16
-1.69
-2.41
-3.24
-4.06
-4.74
-5.21
-5.48
-5.61
-5.7
-5.81
-6.08
-6.59
-7.38
-8.42
-9.52
-10.39
-10.77
-10.46
-9.44
-7.77
-5.65
-3.28
-0.92
1.19
2.87
3.99
4.58
4.76
4.71
4.56
4.38
4.17
3.98
3.87
3.92
4.18
4.62
5.11
5.5
5.67
5.56
5.17
4.54
3.71
2.79
1.9
1.2
0.78
0.61
0.53
0.34
-0.11
-0.85
-1.79
-2.78
-3.63
-4.23
-4.55
-4.61
-4.53
-4.48
-4.7
-5.35
-6.54
-8.16
-9.92
-11.42
-12.15
-11.82
-10.34
-7.92
-5.0
-2.09
0.43
2.4
3.87
5.01
5.96
6.76
7.33
7.56
7.4
6.91
6.23
5.51
4.92
4.54
4.36
4.32
4.33
4.3
4.18
3.99
3.82
3.75
3.81
3.92
3.92
3.63
2.96
1.94
0.81
-0.15
-0.7
-0.72
-0.33
0.24
0.67
0.73
0.31
-0.49
-1.44
-2.33
-3.04
-3.65
-4.33
-5.34
-6.78
-8.59
-10.5
-12.19
-13.37
-13.82
-13.49
-12.34
-10.42
-7.84
-4.79
-1.61
1.34
3.73
5.46
6.6
7.38
7.99
8.49
8.73
8.56
7.94
7.07
6.33
6.06
6.43
7.23
8.08
8.5
8.19
7.14
5.65
4.12
2.94
2.32
2.22
2.43
2.66
2.72
2.54
2.21
1.9
1.66
1.44
1.08
0.49
-0.32
-1.19
-1.86
-2.2
-2.21
-2.12
-2.22
-2.74
-3.72
-5.08
-6.62
-8.21
-9.79
-11.32
-12.76
-13.94
-14.65
-14.62
-13.74
-12.07
-9.92
-7.67
-5.64
-3.99
-2.64
-1.42
-0.16
1.09
2.19
2.97
3.32
3.35
3.25
3.28
3.58
4.14
4.84
5.51
6.0
6.24
6.22
5.99
5.66
5.32
4.98
4.57
4.03
3.31
2.49
1.77
1.35
1.32
1.58
1.93
2.12
2.02
1.62
1.04
0.38
-0.29
-0.91
-1.46
-1.93
-2.37
-2.93
-3.81
-5.19
-7.02
-9.09
-10.97
-12.22
-12.53
-11.74
-9.88
-7.15
-3.91
-0.62
2.19
4.16
5.13
5.25
4.93
4.51
4.23
4.14
4.16
4.21
4.31
4.53
4.9
5.39
5.88
6.24
6.43
6.48
6.45
6.43
6.46
6.54
6.62
6.61
6.36
5.77
4.81
3.58
2.3
1.22
0.47
0.07
-0.03
0.03
0.13
0.16
-0.01
-0.47
-1.26
-2.33
-3.54
-4.69
-5.63
-6.27
-6.67
-7.0
-7.48
-8.3
-9.55
-11.14
-12.83
-14.21
-14.87
-14.49
-13.01
-10.61
-7.7
-4.69
-1.92
0.47
2.47
4.11
5.42
6.35
6.88
7.06
6.99
6.83
6.7
6.6
6.49
6.3
6.01
5.76
5.67
5.87
6.35
7.02
7.77
8.49
9.11
9.51
9.58
9.18
8.31
7.09
5.79
4.75
4.15
3.99
4.03
3.95
3.55
2.85
2.09
1.55
1.36
1.43
1.51
1.29
0.66
-0.29
-1.34
-2.22
-2.86
-3.33
-3.88
-4.73
-6.0
-7.67
-9.58
-11.51
-13.19
-14.31
-14.64
-13.98
-12.32
-9.86
-6.96
-4.05
-1.46
0.61
2.14
3.2
3.88
4.28
4.49
4.61
4.75
4.94
5.2
5.5
5.76
5.95
6.01
5.94
5.71
5.36
4.94
4.56
4.36
4.37
4.56
4.78
4.86
4.65
4.13
3.39
2.55
1.75
1.11
0.73
0.65
0.84
1.19
1.52
1.65
1.43
0.8
-0.18
-1.41
-2.71
-3.9
-4.85
-5.51
-5.96
-6.37
-7.0
-8.06
-9.62
-11.51
-13.44
-14.95
-15.68
-15.36
-13.93
-11.48
-8.3
-4.83
-1.57
1.06
2.82
3.75
4.14
4.42
4.91
5.7
6.66
7.5
7.98
8.02
7.71
7.26
6.88
6.69
6.7
6.85
7.06
7.27
7.5
7.71
7.84
7.78
7.41
6.69
5.71
4.63
3.69
3.03
2.65
2.44
2.26
2.05
1.79
1.57
1.38
1.22
0.99
0.59
-0.03
-0.89
-1.95
-3.16
-4.4
-5.52
-6.39
-6.97
-7.33
-7.67
-8.27
-9.3
-10.76
-12.5
-14.21
-15.47
-15.9
-15.25
-13.45
-10.75
-7.57
-4.44
-1.77
0.24
1.65
2.7
3.62
4.54
5.53
6.5
7.35
8.01
8.43
8.55
8.4
8.04
7.63
7.31
7.18
7.22
7.36
7.49
7.58
7.66
7.76
7.87
7.9
7.73
7.3
6.62
5.87
5.17
4.62
4.17
3.68
3.03
2.19
1.28
0.49
-0.05
-0.33
-0.45
-0.6
-0.96
-1.62
-2.56
-3.67
-4.78
-5.71
-6.41
-6.88
-7.25
-7.65
-8.21
-9.06
-10.22
-11.65
-13.13
-14.29
-14.69
-13.98
-12.01
-9.0
-5.47
-2.04
0.79
2.79
4.06
4.89
5.53
6.18
6.87
7.56
8.18
8.66
8.92
8.91
8.61
8.1
7.53
7.05
6.81
6.86
7.14
7.53
7.88
8.03
7.86
7.32
6.41
5.23
3.99
2.92
2.17
1.76
1.59
1.45
1.2
0.76
0.16
-0.5
-1.16
-1.76
-2.32
-2.84
-3.37
-3.91
-4.52
-5.2
-5.94
-6.67
-7.37
-8.09
-8.94
-10.06
-11.48
-13.07
-14.6
-15.76
-16.26
-15.91
-14.66
-12.55
-9.78
-6.62
-3.53
-0.87
1.1
2.43
3.38
4.24
5.15
5.97
6.41
6.24
5.49
4.49
3.71
3.49
3.89
4.67
5.48
6.06
6.34
6.43
6.44
6.47
6.42
6.2
5.68
4.83
3.8
2.78
2.04
1.71
1.78
2.03
2.15
1.84
0.96
-0.39
-1.98
-3.47
-4.62
-5.31
-5.61
-5.67
-5.71
-5.99
-6.71
-8.0
-9.82
-11.98
-14.11
-15.76
-16.49
-16.0
-14.24
-11.39
-7.93
-4.39
-1.31
1.07
2.72
3.88
4.8
5.59
6.19
6.47
6.36
5.99
5.59
5.44
5.65
6.14
6.7
7.15
7.37
7.46
7.51
7.62
7.79
7.96
8.02
7.9
7.57
7.05
6.41
5.75
5.17
4.7
4.32
3.91
3.41
2.76
1.99
1.18
0.45
-0.2
-0.82
-1.5
-2.31
-3.22
-4.13
-4.9
-5.49
-6.0
-6.59
-7.51
-8.88
-10.64
-12.58
-14.35
-15.57
-15.95
-15.32
-13.71
-11.31
-8.43
-5.49
-2.85
-0.8
0.53
1.23
1.52
1.68
1.96
2.46
3.16
3.93
4.68
5.36
6.04
6.78
7.57
8.33
8.92
9.29
9.52
9.79
10.21
10.78
11.3
11.47
11.12
10.22
8.99
7.66
6.42
5.31
4.26
3.23
2.26
1.46
0.97
0.79
0.8
0.79
0.54
-0.03
-0.84
-1.76
-2.64
-3.44
-4.21
-5.05
-6.04
-7.22
-8.55
-10.01
-11.62
-13.35
-15.1
-16.59
-17.43
-17.22
-15.72
-13.05
-9.64
-6.11
-3.0
-0.65
0.92
1.88
2.48
2.81
2.91
2.77
2.49
2.27
2.32
2.8
3.65
4.63
5.47
5.98
6.1
5.95
5.74
5.66
5.82
6.18
6.6
6.87
6.8
6.33
5.51
4.52
3.59
2.85
2.33
1.97
1.7
1.43
1.12
0.69
0.07
-0.83
-1.99
-3.27
-4.45
-5.37
-6.02
-6.52
-7.09
-7.95
-9.17
-10.7
-12.35
-13.84
-14.85
-15.09
-14.37
-12.71
-10.4
-7.85
-5.46
-3.44
-1.74
-0.2
1.35
2.9
4.3
5.37
6.01
6.29
6.39
6.48
6.67
6.98
7.38
7.85
8.37
8.94
9.51
9.99
10.3
10.38
10.22
9.84
9.29
8.63
7.88
7.08
6.24
5.36
4.47
3.63
2.92
2.38
2.02
1.82
1.7
1.57
1.34
0.93
0.27
-0.69
-1.92
-3.28
-4.63
-5.8
-6.85
-7.92
-9.27
-11.04
-13.18
-15.39
-17.24
-18.3
-18.25
-17.05
-14.83
-11.96
-8.89
-6.0
-3.55
-1.62
-0.07
1.28
2.62
4.01
5.42
6.74
7.87
8.75
9.34
9.59
9.52
9.17
8.74
8.47
8.57
9.14
10.07
11.13
12.01
12.46
12.33
11.66
10.59
9.37
8.22
7.34
6.8
6.53
6.37
6.09
5.49
4.5
3.18
1.72
0.36
-0.65
-1.2
-1.3
-1.16
-1.08
-1.35
-2.1
-3.28
-4.64
-5.95
-7.09
-8.15
-9.36
-10.95
-12.98
-15.26
-17.43
-19.04
-19.67
-19.12
-17.36
-14.66
-11.41
-8.06
-4.97
-2.36
-0.24
1.46
2.83
3.93
4.77
5.37
5.79
6.17
6.61
7.15
7.78
8.42
8.99
9.49
9.97
10.49
11.03
11.48
11.68
11.54
11.08
10.45
9.81
9.29
8.88
8.43
7.8
6.97
6.02
5.1
4.39
3.9
3.57
3.21
2.67
1.85
0.75
-0.53
-1.88
-3.11
-4.13
-4.89
-5.49
-6.13
-7.05
-8.4
-10.24
-12.46
-14.87
-17.17
-19.06
-20.19
-20.3
-19.2
-16.91
-13.66
-9.88
-6.06
-2.69
-0.04
1.85
3.1
3.94
4.57
5.12
5.6
5.96
6.12
6.08
5.94
5.82
5.91
6.28
6.91
7.68
8.44
9.05
9.48
9.76
9.9
9.85
9.51
8.74
7.53
6.01
4.43
3.08
2.17
1.71
1.5
1.28
0.8
-0.02
-1.11
-2.29
-3.42
-4.41
-5.3
-6.19
-7.17
-8.25
-9.46
-10.77
-12.22
-13.82
-15.52
-17.11
-18.25
-18.51
-17.58
-15.43
-12.31
-8.74
-5.26
-2.31
-0.04
1.62
2.88
3.97
4.96
5.89
6.65
7.19
7.56
7.87
8.28
8.88
9.62
10.34
10.83
10.91
10.59
10.01
9.38
8.9
8.61
8.45
8.29
8.05
7.62
7.02
6.21
5.19
4.0
2.77
