0
-18.11
-22.16
-25.55
-28.62
-31.96
-36.2
-41.83
-49.04
-57.45
-66.04
-73.19
-76.99
-75.72
-68.39
-55.23
-37.65
-17.9
1.59
18.84
32.73
43.0
50.0
54.31
56.44
56.75
55.56
53.25
50.36
47.52
45.25
43.83
43.19
43.08
43.19
43.33
43.46
43.55
43.46
42.92
41.57
39.17
35.78
31.71
27.45
23.38
19.65
16.12
12.51
8.57
4.25
-0.19
-4.34
-7.84
-10.55
-12.68
-14.74
-17.29
-20.75
-25.2
-30.33
-35.62
-40.59
-44.97
-48.87
-52.72
-57.18
-62.89
-70.26
-79.12
-88.52
-96.74
-101.58
-101.06
-94.02
-80.67
-62.53
-41.98
-21.51
-3.06
12.31
24.34
33.24
39.36
43.04
44.61
44.47
43.08
40.95
38.6
36.45
34.86
34.06
34.11
34.84
35.93
37.0
37.72
37.9
37.49
36.46
34.78
32.4
29.32
25.64
21.58
17.37
13.21
9.19
5.35
1.71
-1.69
-4.84
-7.82
-10.75
-13.85
-17.25
-20.94
-24.8
-28.6
-32.16
-35.42
-38.51
-41.68
-45.29
-49.68
-55.12
-61.73
-69.24
-76.84
-83.18
-86.51
-85.19
-78.2
-65.6
-48.65
-29.41
-10.14
7.3
21.84
33.15
41.4
46.91
49.99
50.93
50.07
47.93
45.11
42.26
39.9
38.37
37.73
37.87
38.49
39.21
39.68
39.69
39.17
38.23
37.03
35.63
33.95
31.74
28.74
24.82
20.1
15.01
10.1
5.83
2.37
-0.51
-3.32
-6.61
-10.75
-15.76
-21.33
-26.93
-32.06
-36.4
-39.96
-42.95
-45.83
-49.24
-53.84
-60.15
-68.21
-77.27
-85.74
-91.48
-92.39
-87.13
-75.6
-58.98
-39.34
-19.01
0.05
16.54
29.9
40.04
47.14
51.49
53.46
53.52
52.23
50.2
48.02
46.16
44.86
44.17
43.99
44.21
44.72
45.42
46.25
47.03
47.54
47.53
46.75
45.06
42.41
38.88
34.7
30.22
25.77
21.57
17.64
13.82
9.89
5.75
1.52
-2.56
-6.3
-9.77
-13.31
-17.33
-22.09
-27.52
-33.25
-38.76
-43.68
-47.93
-51.74
-55.6
-60.15
-66.05
-73.7
-83.01
-93.12
-102.29
-108.27
-108.95
-103.08
-90.76
-73.44
-53.39
-33.01
-14.17
2.07
15.34
25.69
33.28
38.24
40.76
41.16
39.99
37.95
35.75
33.91
32.73
32.19
32.12
32.28
32.5
32.73
32.98
33.29
33.6
33.68
33.21
31.75
28.98
24.87
19.71
14.12
8.79
4.25
0.67
-2.21
-4.86
-7.77
-11.24
-15.34
-19.91
-24.7
-29.4
-33.77
-37.64
-41.02
-44.16
-47.57
-51.9
-57.66
-64.93
-73.09
-80.7
-85.8
-86.42
-81.23
-69.97
-53.58
-33.94
-13.31
6.25
23.27
36.98
47.18
54.0
57.72
58.72
57.54
54.92
51.74
48.86
46.98
46.36
46.86
47.99
49.16
49.89
49.99
49.56
48.81
47.93
46.86
45.3
42.88
39.29
34.5
28.86
22.9
17.19
12.11
7.76
3.95
0.3
-3.6
-8.06
-13.22
-18.96
-24.95
-30.71
-35.81
-40.1
-43.8
-47.48
-51.87
-57.62
-65.06
-73.96
-83.36
-91.68
-96.95
-97.25
-91.26
-78.79
-60.91
-39.7
-17.68
2.87
20.49
34.59
45.31
53.1
58.41
61.52
62.64
62.02
60.15
57.72
55.5
54.09
53.75
54.3
55.29
56.22
56.69
56.57
55.86
54.63
52.91
50.64
47.76
44.25
40.21
35.75
30.97
25.95
20.72
15.39
10.13
5.17
0.62
-3.63
-7.89
-12.52
-17.71
-23.36
-29.06
-34.35
-38.93
-42.85
-46.53
-50.56
-55.57
-61.99
-69.98
-79.2
-88.75
-97.08
-102.21
-102.24
-95.97
-83.38
-65.75
-45.24
-24.3
-4.95
11.54
24.69
34.52
41.33
45.49
47.4
47.59
46.62
45.07
43.4
41.94
40.88
40.3
40.21
40.58
41.3
42.17
42.87
43.08
42.51
40.95
38.32
34.7
30.27
25.32
20.19
15.21
10.58
6.28
2.14
-2.15
-6.75
-11.66
-16.61
-21.24
-25.29
-28.79
-32.14
-36.09
-41.39
-48.51
-57.24
-66.52
-74.54
-79.14
-78.44
-71.45
-58.46
-40.97
-21.18
-1.41
16.52
31.55
43.31
51.87
57.44
60.24
60.57
58.81
55.65
51.96
48.6
46.26
45.15
45.06
45.49
45.91
46.0
45.73
45.24
44.63
43.78
42.31
39.78
35.89
30.73
24.77
18.74
13.26
8.66
4.82
1.28
-2.55
-7.13
-12.59
-18.7
-25.0
-30.94
-36.11
-40.4
-44.11
-47.84
-52.46
-58.7
-66.89
-76.62
-86.57
-94.7
-98.71
-96.72
-87.88
-72.73
-53.02
-31.23
-9.83
9.32
25.23
37.7
47.06
53.8
58.32
60.95
61.95
61.67
60.57
59.17
57.95
57.23
57.06
57.29
57.63
57.73
57.36
56.45
54.99
53.04
50.64
47.76
44.33
40.33
35.77
30.74
25.39
19.91
14.5
9.42
4.82
0.77
-2.85
-6.34
-10.04
-14.27
-19.1
-24.33
-29.6
-34.56
-39.01
-43.03
-46.96
-51.24
-56.37
-62.74
-70.55
-79.63
-89.21
-97.88
-103.71
-104.78
-99.72
-88.32
-71.67
-51.83
-31.22
-11.86
4.96
18.82
29.75
37.96
43.55
46.59
47.37
46.48
44.78
43.19
42.34
42.43
43.18
44.08
44.69
44.85
44.67
44.42
44.28
44.2
43.82
42.71
40.47
37.0
32.55
27.6
22.67
18.17
14.15
10.41
6.57
2.35
-2.33
-7.26
-12.05
-16.36
-20.07
-23.33
-26.56
-30.35
-35.28
-41.77
-49.92
-59.25
-68.63
-76.29
-80.19
-78.62
-70.78
-57.18
-39.47
-20.0
-1.04
15.76
29.6
40.38
48.35
53.75
56.74
57.44
56.2
53.61
50.47
47.57
45.44
44.25
43.86
43.95
44.18
44.33
44.19
43.64
42.58
40.94
38.76
36.13
33.14
29.8
26.04
21.76
16.99
11.91
6.87
2.23
-1.82
-5.39
-8.81
-12.51
-16.82
-21.76
-27.06
-32.26
-36.99
-41.08
-44.64
-48.0
-51.62
-55.94
-61.35
-68.13
-76.23
-85.02
-93.18
-98.77
-99.71
-94.45
-82.59
-65.1
-44.13
-22.29
-1.89
15.55
29.44
39.92
47.44
52.46
55.36
56.45
56.11
54.8
53.02
51.27
49.86
48.95
48.48
48.29
48.17
47.93
47.43
46.57
45.31
43.58
41.34
38.52
35.14
31.23
26.93
22.44
17.92
13.52
9.27
5.18
1.25
-2.53
-6.13
-9.62
-13.15
-16.97
-21.29
-26.2
-31.57
-37.07
-42.36
-47.17
-51.43
-55.3
-59.11
-63.34
-68.47
-74.87
-82.55
-90.84
-98.35
-103.11
-103.11
-96.97
-84.59
-67.21
-47.05
-26.59
-7.82
8.14
21.05
31.14
38.75
44.08
47.23
48.37
47.94
46.58
45.01
43.78
43.2
43.25
43.7
44.26
44.68
44.87
44.84
44.69
44.44
43.99
43.05
41.27
38.32
34.14
28.97
23.33
17.88
13.13
9.26
6.01
2.82
-0.93
-5.61
-11.16
-17.1
-22.75
-27.54
-31.26
-34.18
-36.9
-40.2
-44.79
-51.1
-59.13
-68.28
-77.3
-84.37
-87.48
-84.99
-76.2
-61.68
-43.16
-23.04
-3.64
13.31
26.97
37.29
44.61
49.34
51.87
52.51
51.66
49.89
47.84
46.05
44.85
44.21
43.89
43.59
43.17
42.71
42.41
42.4
42.6
42.7
42.2
40.7
38.09
34.56
30.55
26.5
22.69
19.1
15.53
11.73
7.64
3.42
-0.59
-4.09
-6.96
-9.42
-11.9
-14.91
-18.76
-23.45
-28.68
-34.03
-39.11
-43.75
-48.06
-52.35
-57.04
-62.58
-69.29
-77.2
-85.84
-94.02
-99.95
-101.64
-97.49
-86.96
-70.85
-51.12
-30.27
-10.62
6.29
19.86
30.22
37.78
42.92
45.91
46.93
46.34
44.69
42.66
40.92
39.87
39.59
39.86
40.33
40.65
40.66
40.31
39.69
38.87
37.88
36.6
34.85
32.4
29.1
24.92
20.07
14.95
10.01
5.6
1.84
-1.45
-4.61
-8.02
-11.89
-16.22
-20.81
-25.35
-29.58
-33.31
-36.54
-39.43
-42.26
-45.43
-49.38
-54.55
-61.15
-69.03
-77.4
-84.88
-89.62
-89.82
-84.33
-73.02
-56.96
-38.04
-18.47
-0.14
15.74
28.66
38.59
45.68
50.1
52.02
51.75
49.8
46.96
44.1
41.96
40.92
40.9
41.51
42.17
42.5
42.33
41.79
41.11
40.45
39.73
38.66
36.89
34.12
30.32
25.73
20.82
16.1
11.91
8.33
5.11
1.8
-2.08
-6.79
-12.29
-18.24
-24.16
-29.59
-34.31
-38.42
-42.27
-46.47
-51.65
-58.33
-66.59
-75.88
-84.9
-91.73
-94.34
-91.16
-81.7
-66.69
-47.96
-27.83
-8.47
8.58
22.62
33.56
41.73
47.47
51.09
52.78
52.78
51.45
49.32
47.01
45.07
43.88
43.57
43.99
44.89
45.92
46.78
47.23
47.06
46.15
44.44
42.0
38.99
35.58
31.89
27.96
23.81
19.47
15.08
10.85
6.98
3.57
0.55
-2.31
-5.29
-8.59
-12.31
-16.44
-20.89
-25.58
-30.4
-35.28
-40.13
-44.96
-49.91
-55.36
-61.83
-69.69
-78.82
-88.27
-96.35
-100.92
-100.12
-92.97
-79.77
-62.03
-41.94
-21.79
-3.39
12.19
24.58
33.93
40.64
45.14
47.83
49.08
49.23
48.64
47.7
46.8
46.21
46.1
46.43
46.99
47.52
47.78
47.61
46.98
45.88
44.28
42.08
39.18
35.57
31.38
26.9
22.43
18.17
14.14
10.23
6.29
2.29
-1.71
-5.65
-9.55
-13.54
-17.79
-22.31
-26.94
-31.38
-35.33
-38.7
-41.64
-44.54
-47.83
-51.98
-57.37
-64.2
-72.31
-80.93
-88.63
-93.47
-93.49
-87.41
-75.11
-57.8
-37.58
-16.86
2.32
18.72
31.81
41.63
48.41
52.47
54.12
53.81
52.19
50.02
48.03
46.7
46.23
46.43
46.95
47.46
47.78
47.88
47.85
47.72
47.38
46.52
44.77
41.8
37.53
32.16
26.19
20.25
14.94
10.54
6.93
3.66
0.13
-4.14
-9.27
-15.03
-20.89
-26.3
-30.96
-34.83
-38.25
-41.82
-46.2
-51.99
-59.48
-68.42
-77.8
-85.91
-90.65
-90.12
-83.27
-70.29
-52.58
-32.37
-12.04
6.52
22.18
34.58
43.83
50.24
54.11
55.76
55.6
54.15
52.05
49.97
48.39
47.58
47.54
48.08
48.93
49.82
50.52
50.87
50.71
49.98
48.57
46.48
43.7
40.29
36.3
31.87
27.13
22.27
17.5
13.04
9.04
5.56
2.52
-0.39
-3.56
-7.42
-12.24
-17.98
-24.35
-30.85
-36.96
-42.36
-47.04
-51.29
-55.7
-60.97
-67.74
-76.24
-85.94
-95.44
-102.63
-105.17
-101.31
-90.55
-73.85
-53.35
-31.73
-11.36
6.2
20.32
31.14
39.1
44.69
48.24
50.01
50.28
49.42
47.91
46.25
44.87
43.98
43.58
43.5
43.46
43.24
42.67
41.75
40.5
38.94
37.02
34.61
31.58
27.83
23.44
18.6
13.66
8.94
4.68
0.96
-2.33
-5.41
-8.55
-11.95
-15.7
-19.7
-23.75
-27.63
-31.17
-34.36
-37.38
-40.51
-44.14
-48.68
-54.47
-61.6
-69.7
-77.77
-84.23
-87.18
-85.01
-76.88
-63.16
-45.34
-25.63
-6.32
10.85
24.95
35.84
43.84
49.4
52.83
54.33
54.14
52.64
50.38
48.01
46.07
44.87
44.41
44.47
44.74
44.95
44.93
44.65
44.12
43.3
42.01
39.99
36.92
32.66
27.42
21.65
16.02
11.07
6.97
3.5
0.16
-3.57
-7.99
-13.04
-18.41
-23.69
-28.51
-32.74
-36.48
-40.08
-44.14
-49.26
-55.95
-64.31
-73.74
-82.85
-89.7
-92.19
-88.78
-78.99
-63.6
-44.46
-23.96
-4.29
12.95
27.0
37.77
45.58
50.83
53.96
55.32
55.3
54.31
52.82
51.29
50.11
49.47
49.39
49.67
50.04
50.28
50.3
50.13
49.85
49.44
48.69
47.3
45.01
41.75
37.69
33.17
28.52
23.98
19.69
15.62
11.72
7.89
3.93
-0.4
-5.34
-11.01
-17.29
-23.81
-30.09
-35.69
-40.41
-44.37
-47.99
-51.86
-56.68
-63.05
-71.27
-81.04
-91.33
-100.32
-105.77
-105.69
-98.98
-85.91
-68.02
-47.7
-27.36
-8.9
6.7
19.19
28.77
35.79
40.53
43.2
44.07
43.52
42.06
40.28
38.68
37.58
37.08
37.04
37.21
37.29
37.09
36.54
35.76
34.85
33.85
32.66
30.99
28.56
25.19
20.91
16.03
11.05
6.49
2.66
-0.44
-3.12
-5.86
-9.1
-13.09
-17.74
-22.7
-27.45
-31.55
-34.78
-37.21
-39.27
-41.58
-44.86
-49.71
-56.37
-64.52
-73.13
-80.49
-84.58
-83.61
-76.56
-63.65
-46.3
-26.69
-7.17
10.45
25.17
36.73
45.35
51.34
54.92
56.27
55.67
53.6
50.8
48.04
45.99
44.98
44.97
45.62
46.47
47.12
47.34
47.09
46.45
45.52
44.32
42.72
40.54
37.57
33.76
29.26
24.44
19.7
15.41
11.63
8.14
4.51
0.31
-4.65
-10.26
-16.15
-21.82
-26.88
-31.14
-34.68
-37.81
-41.02
-44.96
-50.21
-57.2
-65.85
-75.39
-84.31
-90.62
-92.37
-88.23
-77.95
-62.48
-43.64
-23.63
-4.49
12.32
26.01
36.46
43.95
48.93
51.92
53.29
53.36
52.38
50.73
48.83
47.18
46.15
45.9
46.26
46.87
47.32
47.25
46.5
45.12
43.17
40.75
37.9
34.61
30.9
26.81
22.44
17.92
13.41
9.02
4.82
0.86
-2.84
-6.33
-9.73
-13.21
-16.98
-21.2
-25.94
-31.1
-36.47
-41.75
-46.7
-51.2
-55.36
-59.5
-64.15
-69.91
-77.2
-85.98
-95.45
-103.99
-109.48
-109.87
-103.91
-91.62
-74.32
-54.25
-33.87
-15.21
0.5
12.81
21.9
28.18
32.18
34.36
35.24
35.28
34.95
34.58
34.35
34.33
34.47
34.75
35.18
35.8
36.63
37.59
38.43
38.83
38.44
37.02
34.45
30.84
26.46
21.76
17.23
13.19
9.76
6.69
3.5
-0.25
-4.73
-9.74
-14.77
-19.35
-23.29
-26.77
-30.33
-34.65
-40.29
-47.49
-55.98
-64.89
-72.77
-77.8
-78.24
-72.98
-62.0
-46.41
-28.19
-9.5
7.82
22.72
34.82
44.2
51.02
55.36
57.28
56.96
54.82
51.6
48.2
45.41
43.73
43.27
43.74
44.68
45.6
46.13
46.11
45.56
44.49
42.88
40.61
37.49
33.39
28.35
22.66
16.83
11.37
6.67
2.8
-0.52
-3.81
-7.63
-12.31
-17.8
-23.77
-29.68
-35.07
-39.73
-43.74
-47.52
-51.6
-56.6
-63.05
-71.18
-80.67
-90.44
-98.7
-103.27
-102.21
-94.51
-80.51
-61.8
-40.78
-19.86
-0.89
15.14
27.97
37.74
44.71
49.1
51.15
51.26
49.99
48.11
46.29
45.06
44.59
44.75
45.23
45.67
45.87
45.76
45.4
44.88
44.19
43.19
41.66
39.34
36.07
31.83
26.8
21.31
15.81
10.76
6.42
2.81
-0.34
-3.52
-7.27
-11.89
-17.39
-23.37
-29.3
-34.65
-39.19
-43.08
-46.83
-51.21
-56.94
-64.59
-74.19
-85.12
-95.95
-104.63
-108.96
-107.23
-98.77
-84.23
-65.37
-44.49
-23.86
-5.17
10.66
23.29
32.84
39.55
43.76
45.86
46.29
45.61
44.35
42.97
41.79
40.98
40.56
40.48
40.71
41.23
41.94
42.61
42.86
42.22
40.34
37.11
32.74
27.72
22.54
17.61
13.07
8.87
4.85
0.83
-3.3
-7.55
-11.87
-16.17
-20.41
-24.62
-28.96
-33.78
-39.53
-46.63
-55.19
-64.69
-73.91
-80.95
-83.81
-80.93
-71.8
-57.15
-38.8
-19.01
0.1
17.11
31.37
42.79
51.53
57.7
61.41
62.82
62.27
60.41
58.0
55.8
54.31
53.71
53.85
54.36
54.83
54.94
54.57
53.75
52.63
51.31
49.8
47.94
45.49
42.24
38.1
33.22
27.95
22.69
17.77
13.35
9.31
5.37
1.18
-3.48
-8.69
-14.33
-20.15
-25.87
-31.27
-36.2
-40.68
-44.91
-49.3
-54.46
-61.07
-69.53
-79.63
-90.27
-99.55
-105.1
-104.86
-97.67
-83.8
-64.81
-43.12
-21.31
-1.41
15.36
28.69
38.86
46.35
51.62
54.96
56.54
56.59
55.5
53.84
52.24
51.2
50.91
51.2
51.67
51.91
51.72
51.07
50.11
48.9
47.38
45.36
42.63
39.11
34.86
30.14
25.2
20.32
15.71
11.45
7.6
4.06
0.62
-3.05
-7.27
-12.24
-17.86
-23.76
-29.42
-34.38
-38.44
-41.78
-44.87
-48.37
-52.94
-59.04
-66.82
-75.89
-85.15
-92.89
-97.06
-95.82
-88.18
-74.35
-55.81
-34.84
-13.86
5.25
21.38
34.22
43.89
50.66
54.78
56.53
56.29
54.69
52.46
50.33
48.83
48.11
48.0
48.14
48.2
47.98
47.55
47.05
46.59
46.08
45.17
43.42
40.47
36.25
31.03
25.35
19.78
14.72
10.23
6.09
1.93
-2.61
-7.66
-13.11
-18.62
-23.78
-28.31
-32.18
-35.66
-39.26
-43.56
-49.13
-56.29
-64.97
-74.55
-83.77
-90.88
-93.97
-91.52
-82.87
-68.58
-50.26
-30.13
-10.39
7.31
22.1
33.82
42.69
49.02
53.08
55.1
55.38
54.33
52.57
50.73
49.32
48.6
48.54
48.9
49.39
49.84
50.2
50.5
50.64
50.39
49.38
47.24
43.83
39.36
34.38
29.5
25.19
21.6
18.51
15.54
12.33
8.75
4.92
1.15
-2.34
-5.51
-8.54
-11.85
-15.78
-20.52
-25.96
-31.73
-37.37
-42.51
-47.02
-51.07
-55.05
-59.48
-64.86
-71.6
-79.68
-88.56
-96.95
-103.0
-104.65
-100.32
-89.43
-72.76
-52.2
-30.26
-9.37
8.82
23.52
34.8
43.17
49.24
53.44
56.01
57.15
57.06
56.13
54.79
53.53
52.61
52.06
51.76
51.52
51.28
51.1
51.03
51.0
50.7
49.67
47.54
44.22
40.0
35.41
30.97
26.97
23.35
19.8
15.96
11.65
6.91
2.01
-2.69
-6.95
-10.7
-14.14
-17.6
-21.39
-25.66
-30.32
-35.13
-39.79
-44.14
-48.2
-52.19
-56.51
-61.61
-67.88
-75.46
-83.99
-92.4
-99.0
-101.83
-99.23
-90.46
-76.0
-57.45
-37.07
-17.07
0.85
15.76
27.39
35.92
41.67
45.0
46.28
45.93
44.43
42.35
40.28
38.68
37.84
37.78
38.28
39.0
39.63
39.98
40.0
39.75
39.24
38.34
36.74
34.11
30.27
25.37
19.94
14.62
9.98
6.19
3.01
-0.12
-3.74
-8.14
-13.22
-18.55
-23.65
-28.13
-31.93
-35.26
-38.52
-42.29
-47.09
-53.38
-61.21
-70.08
-78.7
-85.23
-87.65
-84.42
-75.08
-60.43
-42.3
-22.97
-4.48
11.82
25.34
36.06
44.18
49.83
53.11
54.18
53.38
51.32
48.76
46.46
44.94
44.4
44.65
45.3
45.88
46.05
45.68
44.84
43.66
42.28
40.63
38.52
35.68
31.94
27.31
22.07
16.67
11.57
7.01
3.02
-0.62
-4.24
-8.1
-12.38
-17.08
-22.06
-27.08
-31.86
-36.22
-40.07
-43.62
-47.29
-51.72
-57.56
-65.21
-74.52
-84.63
-93.88
-100.22
-101.65
-96.87
-85.76
-69.4
-49.82
-29.37
-10.12
6.54
19.98
30.15
37.32
41.85
44.14
44.62
43.78
42.16
40.3
38.65
37.47
36.84
36.62
36.61
36.59
36.48
36.3
36.07
35.73
35.04
33.59
31.04
27.25
22.43
17.07
11.72
6.76
2.25
-2.03
-6.46
-11.33
-16.69
-22.38
-28.03
-33.22
-37.63
-41.17
-43.99
-46.52
-49.42
-53.47
-59.22
-66.73
-75.23
-83.19
-88.54
-89.3
-84.24
-73.29
-57.61
-39.2
-20.28
-2.69
12.39
24.5
33.67
40.15
44.22
46.19
46.43
45.41
43.71
41.86
40.31
39.29
38.85
38.88
39.23
39.74
40.26
40.62
40.65
40.12
38.82
36.55
33.29
29.09
24.15
18.7
12.94
7.02
1.03
-4.88
-10.56
-15.8
-20.49
-24.64
-28.5
-32.46
-36.99
-42.52
-49.32
-57.36
-66.11
-74.49
-80.89
-83.52
-80.94
-72.51
-58.78
-41.29
-22.21
-3.61
12.97
26.77
37.65
45.79
51.42
54.7
55.82
55.15
53.24
50.86
48.73
47.34
46.78
46.83
47.04
47.05
46.73
46.15
45.51
44.89
44.15
42.95
40.92
37.82
33.73
28.96
23.99
19.26
14.99
11.14
7.45
3.55
-0.9
-6.06
-11.85
-18.0
-24.1
-29.81
-34.98
-39.71
-44.34
-49.4
-55.42
-62.84
-71.75
-81.69
-91.48
-99.27
-102.95
-100.78
-91.99
-77.22
-58.29
-37.73
-17.91
-0.5
13.8
25.05
33.63
39.87
43.92
45.92
46.12
45.08
43.5
42.06
41.16
40.81
40.73
40.6
40.23
39.65
39.06
38.6
38.2
37.55
36.2
33.78
30.17
25.55
20.38
15.17
10.34
6.03
2.12
-1.7
-5.73
-10.17
-14.95
-19.77
-24.27
-28.15
-31.33
-34.09
-36.97
-40.71
-45.93
-52.94
-61.44
-70.42
-78.21
-82.86
-82.64
-76.6
-64.88
-48.72
-30.05
-11.01
6.63
21.74
33.84
42.97
49.34
53.28
55.13
55.25
54.09
52.16
49.99
48.07
46.73
46.1
46.11
46.52
47.03
47.34
47.21
46.43
44.82
42.26
38.72
34.31
29.3
24.0
18.69
13.48
8.33
3.09
-2.32
-7.85
-13.32
-18.53
-23.39
-27.96
-32.45
-37.15
-42.42
-48.62
-56.04
-64.57
-73.49
-81.33
-86.11
-85.91
-79.54
-67.05
-49.82
-30.1
-10.3
7.71
22.88
34.96
44.15
50.72
54.91
56.94
57.16
56.09
54.42
52.79
51.62
51.08
51.06
51.34
51.68
51.86
51.74
51.2
50.17
48.61
46.57
44.08
41.13
37.71
33.77
29.37
24.67
19.96
15.51
11.5
7.87
4.32
0.47
-4.05
-9.39
-15.4
-21.69
-27.78
-33.27
-38.01
-42.22
-46.37
-51.13
-57.09
-64.66
-73.78
-83.82
-93.45
-100.79
-103.8
-100.89
-91.47
-76.28
-57.18
-36.59
-16.79
0.67
15.09
26.49
35.18
41.46
45.55
47.67
48.12
47.38
46.04
44.67
43.66
43.14
42.96
42.84
42.47
41.75
40.75
39.68
38.69
37.72
36.42
34.3
31.0
26.49
21.12
15.5
10.21
5.55
1.45
-2.47
-6.58
-11.09
-15.87
-20.55
-24.71
-28.07
-30.7
-32.94
-35.36
-38.53
-43.0
-49.02
-56.58
-65.14
-73.59
-80.29
-83.37
-81.25
-73.17
-59.62
-42.13
-22.92
-4.16
12.53
26.36
37.2
45.29
50.91
54.27
55.57
55.09
53.3
50.78
48.15
45.89
44.23
43.18
42.57
42.23
42.03
41.92
41.85
41.66
41.06
39.67
37.17
33.43
28.67
23.3
17.86
12.75
8.11
3.82
-0.42
-4.87
-9.62
-14.56
-19.44
-24.02
-28.22
-32.24
-36.47
-41.49
-47.86
-55.9
-65.41
-75.51
-84.59
-90.6
-91.63
-86.49
-75.19
-58.99
-40.01
-20.58
-2.62
12.77
25.27
35.04
42.36
47.43
50.38
51.37
50.72
49.03
47.03
45.39
44.47
44.29
44.54
44.8
44.74
44.25
43.45
42.53
41.58
40.51
39.06
36.95
33.98
30.14
25.6
20.65
15.6
10.75
6.32
2.39
-1.17
-4.64
-8.39
-12.72
-17.75
-23.33
-29.09
-34.58
-39.55
-43.95
-48.05
-52.36
-57.52
-64.1
-72.45
-82.41
-93.08
-102.75
-109.22
-110.32
-104.67
-92.21
-74.29
-53.28
-31.81
-12.03
4.81
18.37
28.83
36.54
41.8
44.83
45.93
45.62
44.53
43.25
42.15
41.31
40.58
39.81
38.98
38.25
37.85
37.85
38.05
38.0
37.2
35.29
32.21
28.19
23.64
18.92
14.25
9.64
4.98
0.11
-5.04
-10.37
-15.67
-20.67
-25.11
-28.94
-32.34
-35.71
-39.6
-44.55
-50.93
-58.76
-67.51
-76.04
-82.66
-85.5
-83.03
-74.58
-60.64
-42.77
-23.13
-3.87
13.37
27.65
38.7
46.55
51.42
53.55
53.3
51.25
48.25
45.22
42.95
41.81
41.69
42.12
42.53
42.61
42.37
42.06
41.9
41.85
41.5
40.24
37.57
33.36
27.9
21.86
15.94
10.65
6.15
2.24
-1.56
-5.77
-10.74
-16.47
-22.65
-28.73
-34.21
-38.81
-42.67
-46.25
-50.34
-55.73
-63.06
-72.32
-82.72
-92.55
-99.53
-101.37
-96.57
-84.93
-67.66
-47.02
-25.58
-5.48
11.92
26.11
37.13
45.26
50.79
54.01
55.25
54.95
53.63
51.88
50.21
48.95
48.28
48.15
48.42
48.86
49.29
49.58
49.66
49.44
48.77
47.41
45.11
41.7
37.17
31.76
25.9
20.09
14.72
9.97
5.77
1.87
-2.03
-6.21
-10.87
-16.06
-21.69
-27.47
-33.01
-37.91
-41.97
-45.36
-48.63
-52.58
-58.06
-65.59
-75.15
-85.97
-96.52
-104.72
-108.42
-105.96
-96.73
-81.4
-61.77
-40.25
-19.19
-0.34
15.35
27.62
36.68
42.86
46.58
48.23
48.27
47.18
45.5
43.69
42.14
41.05
40.5
40.39
40.58
40.94
41.36
41.74
41.85
41.38
39.94
37.28
33.41
28.65
23.54
18.54
13.88
9.44
4.91
-0.0
-5.37
-10.96
-16.39
-21.3
-25.52
-29.16
-32.55
-36.19
-40.71
-46.69
-54.41
-63.53
-72.87
-80.44
-83.95
-81.51
-72.4
-57.34
-38.31
-17.82
1.85
19.13
33.34
44.33
52.23
57.17
59.3
58.93
56.64
53.24
49.65
46.6
44.5
43.37
42.93
42.82
42.69
42.39
41.89
41.18
40.12
38.46
35.85
32.06
27.11
21.31
15.14
9.13
3.58
-1.52
-6.41
-11.41
-16.73
-22.32
-27.92
-33.2
-37.93
-42.18
-46.27
-50.74
-56.22
-63.23
-71.95
-81.99
-92.2
-100.66
-105.12
-103.52
-94.8
-79.35
-58.92
-36.13
-13.67
6.43
23.04
35.94
45.4
51.86
55.74
57.41
57.28
55.87
53.79
51.61
49.81
48.62
48.06
47.95
48.05
48.12
48.07
47.83
47.36
46.48
44.91
42.3
38.39
33.22
27.13
20.73
14.68
9.36
4.74
0.37
-4.33
-9.84
-16.23
-23.12
-29.9
-35.96
-41.07
-45.44
-49.72
-54.76
-61.4
-70.05
-80.46
-91.51
-101.32
-107.62
-108.36
-102.41
-89.88
-72.14
-51.38
-29.97
-9.9
7.57
21.93
33.13
41.38
46.9
49.9
50.68
49.75
47.8
45.71
44.21
43.68
44.05
44.84
45.41
45.28
44.26
42.45
40.18
37.71
35.15
32.42
29.31
25.54
20.88
15.26
8.79
1.82
-5.15
-11.62
-17.28
-22.11
-26.45
-30.83
-35.86
-42.06
-49.67
-58.51
-67.85
-76.37
-82.31
-83.81
-79.52
-69.03
-53.19
-33.9
-13.55
5.69
22.34
35.77
45.96
53.15
57.57
59.41
58.98
56.79
53.66
50.44
47.79
46.03
45.07
44.6
44.27
43.87
43.32
42.58
41.54
39.96
37.54
34.1
29.67
24.56
19.19
13.93
8.92
4.05
-0.93
-6.28
-12.08
-18.16
-24.21
-29.85
-34.89
-39.37
-43.65
-48.33
-54.12
-61.6
-70.92
-81.51
-91.95
-100.15
-103.84
-101.27
-91.76
-75.98
-55.83
-33.81
-12.36
6.73
22.57
35.01
44.34
51.01
55.41
57.88
58.79
58.56
57.7
56.71
55.92
55.45
55.17
54.91
54.53
54.02
53.51
53.04
52.46
51.4
49.34
45.85
40.85
34.66
27.93
21.38
15.47
10.29
5.51
0.65
-4.64
-10.47
-16.59
-22.62
-28.19
-33.16
-37.67
-42.15
-47.22
-53.5
-61.38
-70.72
-80.63
-89.42
-94.92
-95.11
-88.79
-76.06
-58.35
-37.92
-17.21
1.84
18.08
31.13
41.04
48.01
52.27
54.06
53.75
51.93
49.36
46.85
45.04
44.29
44.57
45.54
46.67
47.42
47.44
46.56
44.81
42.38
39.45
36.19
32.67
28.82
24.5
19.57
14.0
7.95
1.77
-4.15
-9.51
-14.27
-18.66
-23.06
-27.92
-33.63
-40.51
-48.65
-57.89
-67.46
-75.93
-81.4
-81.91
-76.2
-64.18
-47.08
-27.1
-6.66
12.21
28.29
41.12
50.74
57.31
61.04
62.22
61.27
58.88
55.86
52.96
50.7
49.25
48.47
48.04
47.67
47.14
46.38
45.44
44.35
43.0
41.13
38.36
34.41
29.27
23.28
17.03
11.14
5.99
1.53
-2.68
-7.2
-12.48
-18.58
-25.22
-31.87
-38.01
-43.39
-48.09
-52.52
-57.34
-63.26
-70.82
-80.09
-90.4
-100.25
-107.44
-109.66
-105.21
-93.65
-76.03
-54.64
-32.26
-11.32
6.63
21.05
32.14
40.37
46.17
49.8
51.48
51.55
50.53
49.05
47.68
46.75
46.29
46.13
46.01
45.74
45.29
44.74
44.12
43.33
42.04
39.82
36.34
31.53
25.69
19.42
13.36
7.95
3.29
-0.87
-4.92
-9.21
-13.86
-18.75
-23.61
-28.22
-32.5
-36.63
-41.03
-46.24
-52.76
-60.75
-69.78
-78.66
-85.59
-88.56
-85.94
-77.08
-62.58
-44.12
-23.98
-4.36
13.12
27.59
38.82
46.94
52.18
54.77
54.99
53.27
50.26
46.76
43.62
41.49
40.67
41.05
42.11
43.18
43.64
43.16
41.69
39.42
36.58
33.27
29.46
25.08
20.13
14.78
9.28
3.82
-1.53
-6.82
-12.13
-17.42
-22.56
-27.38
-31.88
-36.29
-41.08
-46.77
-53.75
-62.02
-71.04
-79.61
-86.1
-88.69
-85.87
-76.99
-62.54
-44.17
-24.17
-4.88
12.0
25.63
36.04
43.63
48.82
51.83
52.73
51.73
49.36
46.45
43.96
42.57
42.55
43.63
45.17
46.5
47.13
46.96
46.15
44.97
43.57
41.87
39.6
36.49
32.38
27.35
21.75
16.0
10.53
5.56
1.05
-3.26
-7.79
-12.88
-18.66
-24.91
-31.14
-36.82
-41.58
-45.42
-48.79
-52.4
-56.98
-63.09
-70.96
-80.35
-90.41
-99.66
-106.14
-107.81
-103.18
-91.87
-74.82
-54.12
-32.39
-11.99
5.52
19.53
30.21
38.06
43.52
46.86
48.23
47.84
46.14
43.76
41.45
39.77
38.96
38.85
39.01
39.04
38.71
38.03
37.14
36.06
34.6
32.4
29.11
24.69
19.45
13.93
8.72
4.11
0.03
-3.9
-8.12
-12.89
-18.15
-23.54
-28.57
-32.85
-36.29
-39.2
-42.21
-46.11
-51.59
-58.88
-67.51
-76.2
-82.99
-85.78
-82.92
-73.75
-58.92
-40.18
-19.86
-0.2
17.16
31.38
42.3
50.05
54.92
57.17
57.12
55.3
52.4
49.19
46.37
44.37
43.29
42.98
43.12
43.41
43.67
43.78
43.63
43.04
41.71
39.3
35.6
30.7
24.97
18.98
13.31
8.27
3.83
-0.38
-4.84
-9.94
-15.77
-22.06
-28.3
-33.98
-38.8
-42.88
-46.77
-51.31
-57.35
-65.36
-75.07
-85.22
-93.76
-98.25
-96.62
-87.92
-72.63
-52.67
-30.71
-9.38
9.38
24.69
36.5
45.26
51.4
55.22
56.89
56.66
55.04
52.72
50.43
48.7
47.72
47.33
47.2
47.01
46.6
45.97
45.17
44.26
43.16
41.65
39.46
36.33
32.14
27.0
21.22
15.31
9.76
4.88
0.67
-3.22
-7.31
-12.08
-17.75
-24.1
-30.62
-36.67
-41.78
-45.8
-49.1
-52.37
-56.47
-62.19
-69.9
-79.33
-89.47
-98.64
-104.75
-105.89
-100.79
-89.28
-72.43
-52.2
-31.01
-11.04
6.15
19.9
30.19
37.44
42.21
44.93
45.94
45.58
44.25
42.45
40.72
39.47
38.89
38.87
39.11
39.35
39.41
39.26
38.87
38.13
36.73
34.33
30.75
26.14
20.95
15.78
11.05
6.82
2.79
-1.49
-6.3
-11.63
-17.08
-22.16
-26.54
-30.27
-33.79
-37.78
-43.0
-49.96
-58.65
-68.36
-77.63
-84.45
-86.75
-83.02
-72.88
-57.22
-38.02
-17.75
1.41
17.98
31.35
41.51
48.73
53.19
55.07
54.62
52.39
49.2
46.05
43.78
42.82
43.09
44.11
45.24
45.96
46.06
45.56
44.65
43.49
42.03
40.05
37.21
33.27
28.27
22.55
16.72
11.39
6.93
3.23
-0.23
-4.16
-9.14
-15.3
-22.23
-29.18
-35.39
-40.45
-44.47
-48.05
-52.08
-57.46
-64.83
-74.31
-85.33
-96.51
-105.76
-110.71
-109.35
-100.68
-85.17
-64.61
-41.67
-19.01
1.34
18.36
31.93
42.42
50.31
55.93
59.49
61.14
61.21
60.2
58.72
57.33
56.43
56.07
56.11
56.28
56.33
56.15
55.74
55.06
53.99
52.34
49.85
46.41
42.05
36.97
31.44
25.78
20.27
15.12
10.48
6.33
2.46
-1.55
-6.15
-11.61
-17.89
-24.57
-31.06
-36.87
-41.8
-46.05
-50.1
-54.53
-59.91
-66.72
-75.22
-85.22
-95.84
-105.4
-111.63
-112.29
-105.96
-92.56
-73.55
-51.42
-28.95
-8.36
9.03
22.85
33.31
40.84
45.81
48.48
49.17
48.29
46.48
44.41
42.7
41.73
41.56
42.03
42.84
43.72
44.45
44.89
44.86
44.18
42.64
40.07
36.43
31.91
26.84
21.6
16.46
11.53
6.67
1.66
-3.64
-9.22
-14.82
-20.06
-24.66
-28.61
-32.26
-36.29
-41.5
-48.5
-57.34
-67.28
-76.78
-83.75
-86.08
-82.32
-72.14
-56.46
-37.19
-16.66
3.0
20.32
34.56
45.59
53.53
58.55
60.85
60.74
58.83
55.96
53.12
51.09
50.25
50.5
51.35
52.24
52.74
52.73
52.28
51.51
50.43
48.84
46.41
42.86
38.07
32.24
25.86
19.6
14.01
9.35
5.47
1.83
-2.24
-7.24
-13.26
-19.97
-26.75
-32.97
-38.23
-42.59
-46.42
-50.42
-55.39
-62.04
-70.71
-81.13
-92.09
-101.59
-107.12
-106.47
-98.42
-83.28
-62.83
-39.74
-16.77
3.94
21.27
35.01
45.44
53.04
58.15
61.02
