0
47.44
45.6
43.08
39.56
34.87
29.13
22.8
16.51
10.93
6.4
2.87
-0.16
-3.42
-7.54
-12.82
-19.1
-25.88
-32.56
-38.69
-44.06
-48.74
-53.01
-57.34
-62.38
-68.77
-76.93
-86.64
-96.76
-105.31
-109.95
-108.71
-100.71
-86.48
-67.68
-46.57
-25.29
-5.54
11.68
25.82
36.71
44.41
49.15
51.4
51.79
51.1
50.09
49.47
49.68
50.86
52.76
54.81
56.39
57.0
56.5
55.08
53.14
50.98
48.68
46.05
42.82
38.79
33.95
28.56
22.98
17.58
12.63
8.17
4.11
0.15
-4.09
-8.91
-14.46
-20.59
-26.93
-32.99
-38.47
-43.34
-47.9
-52.64
-58.03
-64.52
-72.34
-81.5
-91.53
-101.33
-109.13
-112.78
-110.38
-101.05
-85.29
-64.98
-42.73
-21.07
-1.74
14.5
27.61
37.85
45.41
50.31
52.62
52.67
51.2
49.19
47.64
47.2
47.99
49.66
51.53
52.89
53.26
52.45
50.57
47.88
44.6
40.81
36.43
31.25
25.16
18.28
11.01
3.92
-2.51
-8.13
-13.24
-18.4
-24.2
-30.9
-38.33
-45.98
-53.3
-59.97
-66.01
-71.83
-77.97
-84.99
-93.31
-103.22
-114.81
-127.73
-141.0
-152.81
-160.83
-162.63
-156.51
-142.01
-120.12
-92.88
-62.85
-32.31
-2.96
24.19
48.53
69.64
87.17
100.86
110.77
117.3
121.22
123.42
124.7
125.58
126.18
126.29
125.58
123.74
120.63
116.31
110.93
104.66
97.61
89.9
81.63
73.02
64.31
55.71
47.36
39.15
30.94
22.6
14.19
6.01
-1.59
-8.35
-14.33
-19.9
-25.69
-32.4
-40.55
-50.36
-61.53
-73.12
-83.56
-90.82
-92.86
-88.29
-76.86
-59.72
-39.13
-17.75
2.13
19.06
32.56
42.74
49.89
54.25
56.03
55.58
53.58
50.91
48.44
46.82
46.27
46.71
47.86
49.35
50.76
51.68
51.7
50.53
48.04
44.31
39.53
33.98
27.91
21.58
15.27
9.26
3.71
-1.4
-6.32
-11.37
-16.77
-22.5
-28.33
-33.89
-38.97
-43.66
-48.35
-53.74
-60.5
-69.09
-79.34
-90.3
-100.21
-106.85
-108.09
-102.57
-90.15
-72.03
-50.37
-27.66
-6.11
12.72
28.09
39.81
48.06
53.15
55.55
55.83
54.77
53.22
51.98
51.57
52.08
53.18
54.32
54.94
54.73
53.71
52.11
50.18
48.03
45.54
42.42
38.41
33.45
27.72
21.62
15.62
9.99
4.75
-0.36
-5.71
-11.5
-17.65
-23.71
-29.16
-33.67
-37.35
-40.81
-44.96
-50.7
-58.6
-68.69
-80.32
-92.17
-102.37
-108.75
-109.28
-102.72
-89.07
-69.77
-47.35
-24.68
-4.15
12.92
26.25
36.26
43.55
48.47
51.23
51.97
51.13
49.42
47.67
46.57
46.45
47.25
48.58
49.98
51.01
51.37
50.89
49.47
47.1
43.79
39.67
34.9
29.76
24.5
19.36
14.48
9.85
5.41
1.04
-3.38
-7.92
-12.56
-17.22
-21.85
-26.49
-31.42
-37.12
-44.11
-52.56
-61.95
-70.82
-77.11
-78.68
-74.13
-63.3
-47.42
-28.6
-9.23
8.71
24.0
36.09
44.96
50.8
53.84
54.46
53.15
50.63
47.72
45.18
43.59
43.09
43.47
44.18
44.67
44.49
43.44
41.52
38.78
35.26
30.97
26.03
20.64
15.11
9.68
4.4
-0.89
-6.42
-12.27
-18.27
-24.09
-29.38
-34.01
-38.15
-42.18
-46.59
-51.84
-58.35
-66.35
-75.72
-85.7
-94.77
-100.84
-101.76
-96.16
-83.92
-66.35
-45.72
-24.52
-4.78
12.35
26.42
37.41
45.35
50.32
52.48
52.32
50.73
48.77
47.32
46.81
47.16
47.95
48.74
49.26
49.47
49.42
48.99
47.92
45.81
42.35
37.54
31.72
25.45
19.36
13.92
9.22
4.98
0.7
-4.18
-9.94
-16.45
-23.19
-29.5
-34.87
-39.24
-43.03
-47.03
-52.09
-58.81
-67.27
-76.81
-86.03
-93.01
-95.74
-92.69
-83.36
-68.42
-49.6
-29.09
-8.98
9.2
24.59
36.88
46.01
52.02
55.06
55.53
54.12
51.76
49.35
47.56
46.65
46.47
46.63
46.7
46.31
45.29
43.55
41.12
38.06
34.44
30.39
26.04
21.51
16.9
12.28
7.65
3.01
-1.71
-6.63
-11.85
-17.39
-23.12
-28.73
-33.88
-38.32
-42.11
-45.58
-49.38
-54.2
-60.56
-68.58
-77.72
-86.74
-93.81
-96.88
-94.28
-85.26
-70.38
-51.34
-30.56
-10.41
7.43
22.15
33.67
42.22
48.03
51.31
52.27
51.42
49.5
47.35
45.67
44.8
44.66
44.95
45.25
45.28
44.86
43.94
42.49
40.51
37.97
34.87
31.24
27.15
22.72
18.12
13.52
9.02
4.61
0.2
-4.33
-9.02
-13.83
-18.61
-23.23
-27.69
-32.16
-37.08
-42.94
-50.14
-58.62
-67.62
-75.66
-80.8
-81.22
-75.82
-64.66
-48.92
-30.57
-11.7
5.97
21.32
33.83
43.35
49.92
53.65
54.83
53.96
51.83
49.29
47.16
45.94
45.73
46.28
47.13
47.81
47.98
47.39
45.86
43.21
39.36
34.41
28.7
22.74
17.0
11.73
6.84
2.08
-2.87
-8.13
-13.63
-19.19
-24.56
-29.66
-34.51
-39.26
-44.17
-49.62
-56.07
-63.87
-73.06
-83.05
-92.5
-99.44
-101.83
-98.15
-87.99
-72.23
-52.83
-32.19
-12.47
4.91
19.35
30.88
39.78
46.3
50.55
52.64
52.8
51.58
49.66
47.79
46.52
46.1
46.47
47.32
48.24
48.78
48.58
47.36
45.01
41.54
37.13
32.08
26.77
21.5
16.45
11.63
6.88
1.99
-3.19
-8.72
-14.52
-20.39
-26.09
-31.47
-36.51
-41.34
-46.34
-51.98
-58.81
-67.11
-76.57
-86.08
-93.77
-97.44
-95.29
-86.58
-71.94
-53.18
-32.68
-12.69
5.21
20.2
32.03
40.73
46.41
49.32
49.93
48.97
47.32
45.76
44.82
44.61
44.97
45.53
45.9
45.81
45.15
43.92
42.17
39.93
37.15
33.77
29.76
25.2
20.29
15.31
10.51
5.95
1.55
-2.94
-7.74
-12.9
-18.26
-23.5
-28.32
-32.59
-36.49
-40.44
-45.02
-50.81
-58.15
-66.81
-75.88
-83.71
-88.18
-87.39
-80.24
-66.99
-49.23
-29.41
-10.0
7.24
21.52
32.83
41.47
47.62
51.29
52.52
51.69
49.58
47.18
45.33
44.46
44.5
45.07
45.7
46.03
45.8
44.88
43.17
40.62
37.32
33.45
29.22
24.78
20.16
15.34
10.33
5.21
0.15
-4.71
-9.3
-13.64
-17.83
-22.06
-26.54
-31.52
-37.36
-44.33
-52.4
-61.09
-69.26
-75.31
-77.52
-74.6
-66.17
-52.86
-36.23
-18.26
-0.83
14.68
27.53
37.46
44.51
48.89
50.92
51.06
49.89
48.03
46.06
44.4
43.23
42.55
42.2
41.88
41.27
40.05
38.05
35.28
31.89
28.1
24.09
19.93
15.57
10.89
5.81
0.29
-5.63
-11.74
-17.78
-23.4
-28.38
-32.65
-36.39
-40.01
-44.01
-48.85
-54.87
-62.21
-70.73
-79.81
-88.24
-94.24
-95.85
-91.58
-80.98
-64.97
-45.64
-25.53
-6.87
9.02
21.76
31.64
39.14
44.59
48.12
49.84
50.06
49.34
48.33
47.6
47.35
47.49
47.69
47.63
47.16
46.23
44.88
43.06
40.65
37.47
33.43
28.62
23.32
17.88
12.67
7.9
3.52
-0.71
-5.11
-9.94
-15.23
-20.76
-26.1
-30.92
-35.07
-38.8
-42.65
-47.32
-53.38
-61.09
-70.12
-79.45
-87.46
-92.17
-91.81
-85.38
-73.1
-56.38
-37.43
-18.47
-1.18
13.63
25.84
35.6
42.98
47.92
50.4
50.67
49.35
47.29
45.22
43.58
42.41
41.51
40.69
39.85
38.98
38.08
37.0
35.55
33.51
30.8
27.5
23.78
19.86
15.89
11.92
7.94
3.91
-0.27
-4.7
-9.44
-14.43
-19.48
-24.32
-28.74
-32.81
-36.95
-41.82
-48.11
-56.01
-64.98
-73.64
-80.08
-82.39
-79.28
-70.49
-56.9
-40.18
-22.31
-5.06
10.41
23.51
34.07
42.06
47.44
50.24
50.68
49.32
47.04
44.8
43.36
42.97
43.4
44.08
44.4
43.9
42.46
40.2
37.37
34.21
30.9
27.49
23.87
19.88
15.31
10.12
4.43
-1.42
-7.0
-11.97
-16.26
-20.14
-24.14
-28.83
-34.7
-41.95
-50.36
-59.22
-67.27
-72.93
-74.62
-71.25
-62.59
-49.46
-33.49
-16.64
-0.6
13.5
25.19
34.42
41.22
45.57
47.46
47.14
45.26
42.75
40.58
39.36
39.19
39.67
40.16
40.09
39.18
37.37
34.79
31.6
27.91
23.88
19.66
15.34
10.92
6.22
1.03
-4.74
-10.97
-17.26
-23.2
-28.49
-33.16
-37.48
-41.87
-46.73
-52.41
-59.09
-66.74
-74.83
-82.32
-87.58
-88.81
-84.65
-74.74
-59.97
-42.2
-23.64
-6.14
9.18
21.94
32.22
40.14
45.75
49.04
50.13
49.41
47.55
45.3
43.33
42.02
41.43
41.27
41.09
40.47
39.11
36.92
33.88
30.02
25.3
19.76
13.62
7.39
1.72
-2.8
-5.93
-7.89
-9.3
-10.84
-12.98
-15.82
-19.18
-22.86
-26.83
-31.36
-36.87
-43.75
-52.03
-61.21
-70.13
-77.15
-80.5
-78.82
-71.56
-59.25
-43.3
-25.61
-8.01
8.13
22.07
33.47
42.17
48.09
51.18
51.67
50.17
47.64
45.15
43.55
43.18
43.77
44.67
45.08
44.43
42.57
39.73
36.39
32.97
29.71
26.55
23.27
19.53
15.1
9.93
4.21
-1.65
-7.17
-12.01
-16.11
-19.79
-23.61
-28.14
-33.79
-40.64
-48.31
-56.03
-62.7
-67.0
-67.69
-63.91
-55.51
-43.19
-28.35
-12.7
2.23
15.42
26.39
34.98
41.12
44.71
45.74
44.52
41.81
38.67
36.18
35.02
35.26
36.34
37.41
37.69
36.77
34.75
32.03
29.03
25.95
22.65
18.8
14.03
8.27
1.79
-4.83
-10.91
-16.0
-20.07
-23.54
-27.11
-31.51
-37.29
-44.57
-53.06
-62.01
-70.37
-76.75
-79.8
-78.39
-72.0
-61.0
-46.53
-30.3
-14.01
1.05
14.25
25.43
34.64
41.85
46.92
49.73
50.41
49.46
47.65
45.77
44.37
43.59
43.28
43.06
42.51
41.32
39.32
36.46
32.91
28.89
24.65
20.36
15.99
11.38
6.41
1.05
-4.51
-9.99
-15.12
-19.82
-24.19
-28.46
-32.82
-37.45
-42.52
-48.27
-54.97
-62.73
-71.25
-79.6
-86.3
-89.68
-88.38
-81.85
-70.51
-55.59
-38.79
-21.73
-5.65
8.72
21.04
31.21
39.18
44.92
48.44
49.9
49.66
48.31
46.54
44.92
43.84
43.33
43.16
42.96
42.43
41.39
39.83
37.77
35.19
32.05
28.32
24.12
19.76
15.61
11.92
8.68
5.57
2.12
-2.0
-6.79
-11.9
-16.83
-21.14
-24.75
-27.9
-31.12
-35.02
-40.14
-46.75
-54.67
-63.18
-71.0
-76.5
-78.09
-74.72
-66.2
-53.32
-37.61
-20.88
-4.76
9.64
21.77
31.46
38.79
43.91
47.0
48.33
48.28
47.41
46.29
45.49
45.33
45.82
46.67
47.38
47.46
46.62
44.88
42.45
39.67
36.78
33.83
30.71
27.19
23.09
18.36
13.11
7.57
2.07
-3.15
-7.87
-12.1
-16.01
-19.94
-24.29
-29.48
-35.74
-42.98
-50.7
-57.94
-63.43
-65.88
-64.22
-58.01
-47.51
-33.71
-18.08
-2.29
12.2
24.38
33.76
40.37
44.51
46.57
46.98
46.15
44.55
42.73
41.24
40.44
40.37
40.77
41.19
41.17
40.43
38.82
36.37
33.12
29.18
24.76
20.08
15.43
10.92
6.55
2.16
-2.42
-7.23
-12.2
-17.16
-21.99
-26.68
-31.34
-36.06
-40.87
-45.82
-51.0
-56.71
-63.22
-70.49
-77.82
-83.84
-86.8
-85.25
-78.64
-67.51
-53.26
-37.61
-22.04
-7.47
5.64
17.08
26.62
34.04
39.15
41.99
42.88
42.37
41.11
39.76
38.78
38.42
38.67
39.26
39.78
39.91
39.47
38.47
36.98
35.02
32.5
29.2
25.04
20.15
14.91
9.84
5.38
1.65
-1.58
-4.86
-8.69
-13.27
-18.41
-23.59
-28.23
-32.08
-35.28
-38.38
-42.07
-46.94
-53.26
-60.78
-68.83
-76.3
-81.84
-84.11
-82.08
-75.3
-64.12
-49.59
-33.31
-16.91
-1.72
11.43
22.26
30.76
37.09
41.38
43.77
44.56
44.19
43.27
42.38
41.9
41.85
41.98
41.9
41.39
40.48
39.39
38.37
37.43
36.34
34.73
32.3
29.01
25.08
20.84
16.59
12.49
8.54
4.7
0.93
-2.75
-6.32
-9.75
-13.01
-16.12
-19.15
-22.34
-26.06
-30.76
-36.69
-43.71
-51.1
-57.63
-61.86
-62.51
-58.85
-50.9
-39.4
-25.68
-11.28
2.36
14.17
23.6
30.55
35.16
37.73
38.54
37.91
36.34
34.42
32.81
31.96
32.02
32.76
33.76
34.6
35.04
34.95
34.32
33.02
30.95
28.04
24.33
20.07
15.57
11.08
6.73
2.49
-1.71
-5.94
-10.21
-14.55
-18.99
-23.54
-28.15
-32.7
-37.0
-40.96
-44.77
-48.89
-53.92
-60.22
-67.52
-74.77
-80.38
-82.63
-80.36
-73.35
-62.33
-48.68
-33.92
-19.35
-5.81
6.19
16.39
24.56
30.57
34.43
36.32
36.65
36.01
35.02
34.23
33.97
34.28
34.91
35.52
35.76
35.51
34.85
33.95
32.89
31.55
29.63
26.8
22.95
18.28
13.29
8.56
4.52
1.26
-1.46
-4.05
-6.99
-10.59
-14.89
-19.73
-24.76
-29.58
-33.88
-37.59
-40.84
-44.05
-47.76
-52.52
-58.65
-66.01
-73.84
-80.78
-85.13
-85.28
-80.26
-70.13
-55.97
-39.55
-22.77
-7.09
6.63
18.13
27.41
34.49
39.39
42.21
43.22
43.01
42.29
41.67
41.54
41.9
42.48
42.96
43.13
42.92
42.46
41.91
41.36
40.71
39.72
38.04
35.39
31.68
27.1
22.11
17.27
13.03
9.62
6.87
4.37
1.66
-1.55
-5.28
-9.22
-13.12
-16.8
-20.37
-24.12
-28.45
-33.63
-39.82
-46.93
-54.55
-61.88
-67.74
-70.74
-69.68
-63.96
-53.79
-40.18
-24.6
-8.59
6.53
19.85
30.8
39.06
44.56
47.41
47.96
46.75
44.5
41.99
39.97
38.94
39.05
40.09
41.53
42.83
43.57
43.61
42.96
41.65
39.61
36.72
32.91
28.38
23.52
18.8
14.51
10.63
6.89
2.93
-1.49
-6.33
-11.4
-16.44
-21.29
-25.92
-30.41
-34.93
-39.66
-44.86
-50.87
-57.86
-65.65
-73.44
-79.76
-82.82
-81.04
-73.74
-61.36
-45.47
-28.1
-11.18
3.96
16.68
26.77
34.19
38.92
41.06
41.05
39.7
38.1
37.21
37.57
39.13
41.38
43.59
45.13
45.64
45.09
43.66
41.67
39.39
36.96
34.34
31.38
27.94
23.98
19.65
15.22
10.86
6.66
2.5
-1.85
-6.55
-11.66
-17.03
-22.37
-27.34
-31.71
-35.41
-38.71
-42.13
-46.31
-51.87
-59.04
-67.5
-76.28
-83.91
-88.7
-89.21
-84.63
-74.97
-61.18
-44.79
-27.52
-10.92
3.92
16.43
26.45
34.01
39.28
42.5
43.98
44.09
43.27
41.95
40.56
39.44
38.83
38.8
39.24
39.91
40.48
40.66
40.31
39.39
37.95
35.98
33.46
30.37
26.76
22.84
18.87
15.18
12.04
9.56
7.66
6.03
4.16
1.52
-2.23
-7.03
-12.47
-17.86
-22.64
-26.59
-29.93
-33.22
-37.08
-42.0
-48.25
-55.77
-64.14
-72.44
-79.27
-82.89
-81.78
-75.12
-63.21
-47.41
-29.75
-12.24
3.61
16.96
27.58
35.51
40.89
43.9
44.85
44.25
42.86
41.45
40.66
40.78
41.71
43.01
44.22
44.97
45.15
44.92
44.49
43.95
43.2
41.93
39.78
36.55
32.29
27.34
22.2
17.36
13.08
9.38
6.01
2.61
-1.09
-5.21
-9.61
-14.06
-18.38
-22.5
-26.57
-30.86
-35.78
-41.7
-48.77
-56.72
-64.74
-71.5
-75.41
-75.09
-69.86
-59.95
-46.43
-30.86
-14.82
0.46
14.09
25.52
34.34
40.32
43.5
44.23
43.21
41.32
39.45
38.33
38.32
39.37
41.08
42.83
43.99
44.22
43.47
42.04
40.26
38.36
36.27
33.69
30.32
26.04
21.05
15.8
10.83
6.52
2.98
-0.04
-3.01
-6.41
-10.52
-15.31
-20.38
-25.23
-29.48
-33.07
-36.38
-40.04
-44.74
-50.95
-58.74
-67.62
-76.49
-83.74
-87.6
-86.57
-79.95
-68.13
-52.52
-35.13
-18.0
-2.63
10.14
20.13
27.49
32.48
35.33
36.37
36.03
34.93
33.71
32.86
32.63
32.99
33.72
34.53
35.22
35.66
35.82
35.64
35.07
34.02
32.41
30.15
27.22
23.64
19.5
15.05
10.59
6.49
2.97
0.0
-2.68
-5.47
-8.7
-12.45
-16.54
-20.58
-24.21
-27.3
-30.01
-32.71
-35.9
-40.05
-45.42
-51.98
-59.23
-66.18
-71.43
-73.5
-71.25
-64.28
-53.13
-39.07
-23.73
-8.65
5.08
16.88
26.46
33.74
38.69
41.41
42.23
41.68
40.47
39.28
38.58
38.59
39.22
40.2
41.16
41.73
41.7
41.0
39.69
37.93
35.82
33.37
30.54
27.27
23.61
19.71
15.8
12.07
8.54
5.14
1.69
-1.97
-5.84
-9.8
-13.66
-17.22
-20.34
-23.03
-25.45
-27.94
-31.02
-35.2
-40.83
-47.72
-55.08
-61.49
-65.29
-65.05
-60.05
-50.56
-37.71
-23.17
-8.63
4.57
15.67
24.38
30.71
34.81
36.85
37.06
35.86
33.87
31.9
30.68
30.67
31.84
33.72
35.62
36.92
37.3
36.75
35.39
33.34
30.58
27.12
23.06
18.67
14.33
10.33
6.71
3.28
-0.3
-4.24
-8.52
-12.95
-17.26
-21.26
-24.92
-28.37
-31.83
-35.56
-39.88
-45.13
-51.46
-58.66
-65.94
-72.02
-75.34
-74.63
-69.27
-59.57
-46.62
-31.94
-17.1
-3.36
8.49
18.05
25.27
30.3
33.42
34.93
35.21
34.63
33.57
32.46
31.65
31.36
31.59
32.17
32.84
33.37
33.65
33.63
33.28
32.45
30.94
28.51
25.08
20.79
16.03
11.27
6.95
3.23
-0.02
-3.16
-6.63
-10.72
-15.44
-20.52
-25.51
-30.07
-34.07
-37.69
-41.33
-45.5
-50.6
-56.83
-64.06
-71.71
-78.76
-83.85
-85.54
-82.74
-75.07
-63.06
-47.98
-31.55
-15.43
-0.84
11.55
21.59
29.35
34.97
38.59
40.38
40.73
40.22
39.53
39.22
39.56
40.43
41.48
42.33
42.75
42.69
42.23
41.46
40.33
38.7
36.42
33.46
29.95
26.16
22.42
18.99
16.01
13.41
10.93
8.23
5.0
1.11
-3.33
-7.93
-12.26
-16.0
-19.08
-21.78
-24.51
-27.82
-32.13
-37.73
-44.65
-52.57
-60.71
-67.85
-72.51
-73.31
-69.43
-60.84
-48.4
-33.55
-17.92
-2.99
10.24
21.15
29.55
35.49
39.22
41.12
41.65
41.33
40.61
39.9
39.47
39.47
39.93
40.76
41.78
42.74
43.34
43.28
42.37
40.52
37.81
34.46
30.71
26.79
22.79
18.76
14.69
10.53
6.28
1.93
-2.47
-6.87
-11.2
-15.42
-19.55
-23.72
-28.13
-33.14
-39.07
-46.06
-53.83
-61.57
-67.91
-71.24
-70.18
-64.07
-53.28
-39.15
-23.54
-8.21
5.63
17.48
27.28
35.13
41.01
44.8
46.46
46.28
44.85
43.03
41.58
40.96
41.27
42.23
43.39
44.31
44.67
44.28
43.08
41.05
38.16
34.41
29.86
24.69
19.3
14.15
9.64
5.91
2.76
-0.28
-3.76
-7.97
-12.88
-18.13
-23.25
-27.86
-31.82
-35.28
-38.59
-42.28
-46.9
-52.92
-60.46
-69.1
-77.72
-84.63
-88.0
-86.39
-79.3
-67.34
-52.03
-35.27
-18.8
-3.77
9.29
20.22
29.02
35.65
40.04
42.23
42.51
41.47
39.9
38.55
37.94
38.26
39.31
40.66
41.81
42.38
42.2
41.31
39.85
37.93
35.6
32.79
29.44
25.56
21.33
17.04
13.06
9.68
6.98
4.82
2.8
0.42
-2.74
-6.86
-11.77
-16.99
-21.98
-26.37
-30.11
-33.52
-37.02
-41.03
-45.82
-51.47
-57.98
-65.1
-72.29
-78.46
-82.14
-81.8
-76.42
-65.97
-51.52
-34.92
-18.12
-2.67
10.67
21.79
30.84
37.99
43.24
46.55
47.98
47.86
46.77
45.36
44.23
43.75
43.98
44.68
45.43
45.8
45.51
44.54
43.0
41.06
38.75
35.96
32.53
28.46
23.96
19.46
15.42
12.08
9.36
6.83
3.95
0.33
-4.07
-8.99
-13.91
-18.34
-21.96
-24.77
-27.1
-29.48
-32.53
-36.81
-42.61
-49.72
-57.35
-64.2
-68.62
-69.17
-65.01
-56.18
-43.57
-28.69
-13.22
1.35
13.95
24.02
31.4
36.31
39.18
40.56
40.97
40.85
40.5
40.1
39.77
39.61
39.67
39.92
40.23
40.46
40.42
39.98
39.0
37.31
34.74
31.11
26.46
21.05
15.38
9.98
5.27
1.33
-2.08
-5.44
-9.21
-13.66
-18.75
-24.16
-29.43
-34.19
-38.32
-42.01
-45.77
-50.25
-55.9
-62.76
-70.23
-77.15
-81.98
-83.3
-80.13
-72.25
-60.34
-45.72
-30.03
-14.87
-1.37
9.87
18.8
25.67
30.79
34.4
36.57
37.43
37.23
36.44
35.69
35.53
36.23
37.64
39.3
40.61
41.16
40.82
39.75
38.17
36.26
33.97
31.19
27.79
23.84
19.55
15.28
11.38
8.08
5.37
3.07
0.79
-1.87
-5.19
-9.22
-13.74
-18.42
-22.97
-27.23
-31.23
-35.1
-38.93
-42.8
-46.88
-51.53
-57.19
-64.15
-72.07
-79.79
-85.44
-87.05
-83.3
-74.04
-60.44
-44.4
-27.98
-12.68
0.71
12.04
21.45
29.1
35.05
39.27
41.85
43.0
43.09
42.62
42.04
41.69
41.71
42.04
42.5
42.88
43.06
43.01
42.71
42.07
40.92
39.03
36.27
32.68
28.51
24.1
19.77
15.77
12.25
9.24
6.74
4.63
2.66
0.53
-2.06
-5.28
-9.02
-13.0
-16.84
-20.28
-23.31
-26.19
-29.36
-33.26
-38.26
-44.49
-51.8
-59.69
-67.2
-73.03
-75.76
-74.22
-67.85
-57.0
-42.79
-26.85
-10.86
3.81
16.26
26.05
33.17
37.79
40.27
41.02
40.56
39.42
38.18
37.31
37.17
37.86
39.16
40.62
41.74
42.16
41.8
40.8
39.35
37.54
35.28
32.44
29.0
25.16
21.25
17.6
14.3
11.17
7.89
4.14
-0.14
-4.72
-9.23
-13.29
-16.71
-19.58
-22.22
-25.13
-28.79
-33.64
-39.88
-47.23
-54.93
-61.76
-66.22
-66.97
-63.22
-54.96
-43.03
-28.85
-14.01
0.12
12.53
22.71
30.45
35.78
38.85
39.93
39.5
38.14
36.59
35.47
35.14
35.57
36.36
37.0
37.08
36.48
35.38
34.02
32.54
30.85
28.66
25.7
21.89
17.44
12.77
8.34
4.48
1.25
-1.52
-4.2
-7.18
-10.75
-15.0
-19.81
-24.82
-29.62
-33.92
-37.62
-40.91
-44.27
-48.34
-53.67
-60.46
-68.29
-76.08
-82.21
-84.97
-83.04
-75.92
-64.09
-48.89
-32.11
-15.51
-0.49
12.15
22.17
29.69
34.98
38.31
39.97
40.29
39.76
38.99
38.58
38.89
39.89
41.22
42.31
42.75
42.39
41.43
40.18
38.86
37.45
35.74
33.42
30.33
26.49
22.1
17.55
13.23
9.47
6.41
3.97
1.85
-0.36
-3.08
-6.52
-10.68
-15.34
-20.14
-24.75
-28.97
-32.77
-36.3
-39.89
-43.98
-49.01
-55.24
-62.54
-70.19
-76.91
-81.06
-81.14
-76.24
-66.41
-52.71
-36.87
-20.77
-5.92
6.78
17.06
25.05
31.01
35.18
37.73
38.87
38.95
38.44
37.87
37.65
38.0
38.87
39.98
41.04
41.79
42.09
41.93
41.37
40.44
39.12
37.4
35.21
32.54
29.41
25.86
21.97
17.94
14.01
10.42
7.29
4.56
1.99
-0.73
-3.81
-7.31
-11.05
-14.79
-18.34
-21.64
-24.79
-28.0
-31.54
-35.72
-40.85
-47.1
-54.36
-62.04
-69.08
-74.07
-75.62
-72.77
-65.29
-53.8
-39.58
-24.24
-9.32
4.04
15.21
24.06
30.77
35.63
38.82
40.49
40.78
40.02
38.75
37.64
37.16
37.51
38.5
39.79
41.07
42.15
42.96
43.38
43.12
41.79
39.08
35.01
29.94
24.56
19.52
15.26
11.86
9.07
6.43
3.52
0.08
-3.9
-8.19
-12.42
-16.32
-19.77
-22.93
-26.14
-29.83
-34.45
-40.27
-47.21
-54.75
-61.81
-66.92
-68.5
-65.39
-57.34
-45.09
-30.23
-14.62
0.11
12.92
23.38
31.46
37.23
40.79
42.25
41.93
40.4
38.41
36.77
36.04
36.36
37.45
38.7
39.45
39.22
37.9
35.73
33.14
30.51
27.99
25.49
22.75
19.56
15.86
11.86
7.88
4.22
0.98
-1.92
-4.79
-7.91
-11.57
-15.83
-20.62
-25.69
-30.71
-35.38
-39.51
-43.14
-46.54
-50.24
-54.82
-60.75
-68.09
-76.28
-84.13
-89.94
-91.95
-88.87
-80.33
-67.0
-50.5
-32.88
-16.05
-1.31
10.81
20.42
27.93
33.68
37.82
40.37
41.38
41.17
40.32
39.56
39.44
40.15
41.44
42.81
43.77
44.05
43.61
42.62
41.27
39.59
37.54
35.0
31.89
28.23
24.16
19.92
15.83
12.19
9.2
6.88
4.93
2.89
0.25
-3.32
-7.82
-12.92
-18.06
-22.7
-26.53
-29.57
-32.27
-35.27
-39.29
-44.87
-52.17
-60.84
-69.93
-77.97
-83.26
-84.26
-80.02
-70.54
-56.78
-40.45
-23.51
-7.64
6.1
17.36
26.32
33.34
38.72
42.57
44.86
45.64
45.26
44.33
43.6
43.66
44.63
46.2
47.68
48.46
48.26
47.23
45.81
44.39
43.01
41.43
39.24
36.16
32.24
27.77
23.22
18.94
15.1
11.66
8.42
5.17
1.68
-2.13
-6.24
-10.45
-14.49
-18.1
-21.21
-23.95
-26.7
-29.94
-34.15
-39.67
-46.64
-54.77
-63.28
-70.85
-75.74
-76.29
-71.43
-61.16
-46.58
-29.64
-12.45
3.27
16.51
27.01
34.87
40.3
43.5
44.7
44.33
43.07
41.73
40.97
41.12
42.02
43.2
44.12
44.44
44.11
43.28
42.18
40.91
39.37
37.33
34.59
31.06
26.82
22.13
17.35
12.81
8.77
5.29
2.23
-0.72
-3.95
-7.74
-12.17
-17.09
-22.18
-27.07
-31.53
-35.51
-39.16
-42.84
-47.04
-52.27
-58.86
-66.72
-75.11
-82.67
-87.62
-88.33
-83.86
-74.27
-60.66
-44.78
-28.46
-13.15
0.32
11.68
20.98
28.34
33.81
37.45
39.38
39.95
39.66
39.1
38.79
39.01
39.76
40.79
41.82
42.55
42.88
42.76
42.19
41.18
39.7
37.73
35.3
32.4
29.07
25.33
21.26
17.04
12.95
9.24
6.04
3.26
0.59
-2.33
-5.74
-9.68
-14.03
-18.56
-23.07
-27.42
-31.54
-35.42
-39.16
-42.97
-47.19
-52.26
-58.42
-65.55
-72.91
-79.21
-82.88
-82.51
-77.28
-67.25
-53.36
-37.2
-20.55
-4.99
8.36
19.03
26.99
32.54
36.08
38.0
38.68
38.53
38.0
37.54
37.54
38.13
39.22
40.48
41.51
42.0
41.78
40.88
39.46
37.66
35.6
33.33
30.83
28.06
25.04
21.77
18.38
15.1
12.13
9.63
7.59
5.75
3.73
1.19
-2.07
-6.02
-10.38
-14.85
-19.13
-23.07
-26.6
-29.84
-32.99
-36.46
-40.75
-46.31
-53.24
-61.08
-68.61
-74.06
-75.66
-72.18
-63.42
-50.3
-34.64
-18.53
-3.8
8.44
17.84
24.65
29.39
32.53
34.41
35.23
35.28
34.96
34.76
35.11
36.13
37.63
39.17
40.34
40.93
40.94
40.54
39.85
38.81
37.21
34.79
31.43
27.22
22.48
17.71
13.33
9.6
6.5
3.75
0.91
-2.35
-6.22
-10.54
-15.02
-19.28
-23.16
-26.72
-30.29
-34.34
-39.37
-45.68
-53.17
-61.27
-68.84
-74.4
-76.41
-73.82
-66.32
-54.61
-40.16
-24.81
-10.23
2.48
12.9
21.15
27.54
32.3
35.52
37.2
37.49
36.82
35.82
35.13
35.16
35.89
37.03
38.13
38.81
38.87
38.26
37.06
35.41
33.38
31.0
28.17
24.76
20.67
15.95
10.94
6.16
2.15
-0.82
-2.9
-4.63
-6.67
-9.57
-13.47
-18.15
-23.15
-28.0
-32.4
-36.25
-39.66
-42.91
-46.42
-50.68
-56.14
-63.0
-70.98
-79.11
-85.89
-89.57
-88.69
-82.53
-71.41
-56.55
-39.74
-22.83
-7.24
6.13
16.97
25.38
31.62
36.02
38.88
40.58
41.48
41.99
42.45
43.13
44.05
45.11
46.1
46.84
47.23
47.27
46.99
46.36
45.28
43.61
41.26
38.29
34.88
31.25
27.6
24.04
20.64
17.43
14.51
11.89
9.5
7.14
4.55
1.48
-2.18
-6.41
-11.08
-16.01
-20.99
-25.88
-30.48
-34.73
-38.76
-42.95
-47.89
-54.17
-61.94
-70.66
-78.97
-85.01
-86.94
-83.5
-74.51
-60.85
-44.27
-26.78
-10.16
4.4
16.44
26.02
33.52
39.29
43.55
46.35
47.82
48.21
47.98
47.71
47.8
48.37
49.23
50.01
50.33
50.03
49.11
47.66
45.8
43.57
41.04
38.27
35.3
32.14
28.78
25.21
21.52
17.94
14.71
11.96
9.58
7.24
4.53
1.17
-2.85
-7.24
-11.64
-15.75
-19.5
-22.98
-26.4
-29.99
-34.01
-38.73
-44.44
-51.15
-58.39
-65.07
-69.58
-70.29
-66.04
-56.72
-43.28
-27.51
-11.41
3.35
15.83
25.7
33.09
38.23
41.3
42.53
42.24
41.05
39.7
38.95
39.21
40.46
42.23
43.91
45.0
45.27
44.87
44.06
43.08
41.95
40.5
38.4
35.4
31.39
26.52
21.19
15.93
11.26
7.53
4.7
2.39
-0.07
-3.34
-7.79
-13.33
-19.43
-25.39
-30.65
-35.03
-38.74
-42.28
-46.21
-50.99
-56.81
-63.6
-70.89
-77.78
-82.92
-84.84
-82.3
-74.76
-62.74
-47.63
-31.36
-15.74
-2.07
9.09
17.78
24.3
29.03
32.2
34.02
34.68
34.51
33.92
33.4
33.37
34.05
35.37
37.04
38.59
39.6
39.8
39.19
37.93
36.25
34.29
32.07
29.45
26.34
22.75
18.77
14.65
10.62
6.88
3.5
0.42
-2.5
-5.42
-8.53
-11.97
-15.75
-19.75
-23.77
-27.53
-30.9
-33.94
-36.9
-40.17
-44.22
-49.38
-55.76
-63.12
-70.64
-77.04
-80.68
-80.1
-74.46
-63.99
-50.0
-34.45
-19.31
-5.97
5.06
13.88
20.89
26.37
30.34
32.73
33.57
33.12
31.95
30.7
29.93
29.95
30.74
32.03
33.36
34.33
34.73
34.56
34.01
33.26
32.36
31.12
29.29
26.68
23.32
19.54
15.77
12.37
9.53
7.18
5.1
3.0
0.66
-2.08
-5.23
-8.7
-12.3
-15.77
-18.88
-21.56
-23.97
-26.5
-29.71
-34.06
-39.78
-46.69
-54.09
-60.89
-65.74
-67.25
-64.47
-57.14
-45.91
-32.26
-18.0
-4.8
6.35
15.22
22.15
27.63
31.96
35.19
37.26
38.3
38.65
38.77
39.0
39.49
40.12
40.71
41.14
41.36
41.42
41.21
40.58
39.24
36.97
33.6
29.23
24.15
18.83
13.83
9.53
6.07
3.22
0.5
-2.54
-6.15
-10.25
-14.57
-18.8
-22.78
-26.57
-30.41
-34.62
-39.51
-45.31
-51.93
-58.97
-65.51
-70.22
-71.71
-68.97
-61.76
-50.78
-37.45
-23.42
-10.13
1.58
11.37
19.22
25.17
29.17
31.17
31.32
30.12
28.39
27.05
26.78
27.82
29.84
32.12
33.89
34.62
34.23
32.99
31.41
29.84
28.39
26.81
24.74
21.88
18.24
14.11
9.94
6.14
2.89
0.07
-2.62
-5.58
-9.08
-13.26
-18.01
-23.03
-27.9
-32.28
-36.02
-39.33
-42.76
-47.05
-52.83
-60.36
-69.3
-78.6
-86.7
-91.82
-92.42
-87.66
-77.63
-63.45
-46.89
-29.96
-14.31
-0.93
9.97
18.64
25.53
30.99
35.15
38.07
39.85
40.81
41.37
41.98
42.9
44.1
45.36
46.38
46.94
46.96
46.53
45.75
44.71
43.4
41.77
39.67
36.95
33.52
29.42
24.89
20.37
16.35
13.2
10.96
9.3
7.61
5.32
2.05
-2.22
-7.18
-12.39
-17.44
-22.02
-26.02
-29.51
-32.77
-36.23
-40.48
-46.0
-52.96
-60.9
-68.62
-74.36
-76.25
-73.01
-64.3
-50.98
-34.78
-17.77
-1.77
12.04
23.19
31.74
37.95
42.12
44.51
45.44
45.32
44.7
44.12
43.98
44.42
45.35
46.47
47.49
48.15
48.39
48.22
47.63
46.48
44.56
41.67
37.74
32.99
27.85
22.87
18.46
14.77
11.63
8.69
5.56
2.01
-1.98
-6.26
-10.59
-14.74
-18.61
-22.31
-26.14
-30.56
-36.05
-42.88
-50.9
-59.37
-66.96
-72.01
-72.98
-68.95
-59.95
-47.01
-31.83
-16.27
-1.82
10.66
20.93
29.13
35.46
39.92
42.43
42.97
41.82
39.64
37.36
35.84
35.57
36.53
38.17
39.78
40.74
40.71
39.75
38.09
36.03
33.77
31.38
28.87
26.19
23.26
20.05
16.56
12.85
9.09
5.48
2.15
-0.88
-3.76
-6.75
-10.15
-14.15
-18.76
-23.79
-28.9
-33.7
-37.95
-41.57
-44.78
-48.03
-51.92
-56.98
-63.44
-70.95
-78.58
-84.82
-88.03
-86.81
-80.48
-69.35
-54.63
-38.11
-21.7
-6.92
5.37
14.99
22.27
27.74
31.91
35.14
37.64
39.58
41.08
42.3
43.28
44.0
44.4
44.42
44.14
43.71
43.29
42.92
42.51
41.88
40.8
39.12
36.71
33.57
29.74
25.46
21.01
16.76
12.99
9.71
6.77
3.89
