0
-66.18
-69.68
-71.96
-73.33
-74.5
-76.4
-79.9
-85.47
-92.72
-100.38
-106.35
-108.27
-104.17
-93.1
-75.53
-53.19
-28.67
-4.71
16.48
33.56
46.1
54.3
58.6
59.49
57.52
53.4
48.11
42.8
38.58
36.11
35.46
36.08
37.1
37.69
37.37
36.09
34.03
31.45
28.45
24.92
20.8
16.04
10.79
5.29
-0.2
-5.54
-10.64
-15.51
-20.07
-24.22
-27.84
-30.93
-33.65
-36.37
-39.61
-43.98
-49.99
-57.78
-66.84
-75.83
-82.62
-84.8
-80.41
-68.74
-50.68
-28.53
-5.24
16.48
34.82
49.07
59.29
65.84
68.98
68.91
65.99
60.95
55.0
49.48
45.52
43.55
43.3
43.89
44.37
44.0
42.53
40.14
37.19
34.02
30.83
27.59
24.14
20.3
15.94
11.14
6.2
1.58
-2.33
-5.47
-8.16
-11.08
-14.87
-19.81
-25.56
-31.3
-36.13
-39.52
-41.59
-43.02
-44.74
-47.64
-52.34
-59.09
-67.65
-77.17
-86.02
-91.98
-92.66
-86.3
-72.45
-52.27
-28.28
-3.54
19.28
38.45
53.43
64.4
71.81
76.0
77.2
75.65
71.92
66.95
61.94
57.97
55.68
55.13
55.85
57.13
58.34
59.06
59.14
58.53
57.22
55.12
52.18
48.43
44.07
39.36
34.55
29.79
25.12
20.55
16.1
11.83
7.81
4.01
0.26
-3.66
-7.94
-12.6
-17.53
-22.51
-27.33
-31.86
-36.07
-40.03
-43.89
-47.93
-52.62
-58.58
-66.31
-75.74
-85.94
-94.98
-100.38
-99.78
-91.83
-76.65
-55.79
-31.83
-7.62
14.31
32.16
45.01
52.73
55.8
55.22
52.16
47.79
43.07
38.57
34.59
31.19
28.29
25.77
23.45
21.2
18.98
16.86
14.99
13.44
12.03
10.39
8.01
4.58
0.08
-5.2
-10.75
-16.22
-21.44
-26.57
-31.81
-37.22
-42.64
-47.67
-51.94
-55.27
-57.89
-60.35
-63.44
-67.92
-74.26
-82.3
-91.12
-99.03
-103.81
-103.39
-96.34
-82.45
-62.83
-39.62
-15.45
7.23
26.63
41.78
52.39
58.61
60.81
59.52
55.59
50.16
44.61
40.22
37.82
37.5
38.68
40.34
41.57
41.86
41.27
40.19
39.01
37.85
36.5
34.57
31.73
27.89
23.23
18.15
13.12
8.55
4.65
1.33
-1.71
-4.98
-8.92
-13.73
-19.21
-24.91
-30.21
-34.67
-38.16
-40.93
-43.51
-46.56
-50.81
-56.88
-64.98
-74.56
-84.05
-91.0
-92.64
-86.79
-72.73
-51.64
-26.2
0.21
24.58
45.01
60.76
72.03
79.31
83.01
83.41
80.87
76.07
70.12
64.34
59.93
57.53
57.11
58.07
59.57
60.9
61.63
61.62
60.86
59.27
56.74
53.17
48.58
43.14
37.13
30.75
24.14
17.42
10.77
4.46
-1.24
-6.2
-10.65
-15.09
-20.07
-25.93
-32.55
-39.46
-46.1
-52.05
-57.33
-62.25
-67.17
-72.38
-78.12
-84.68
-92.52
-101.94
-112.67
-123.38
-131.65
-134.68
-130.22
-117.56
-97.79
-73.47
-47.62
-22.87
-0.97
17.16
31.09
40.66
45.8
46.79
44.37
39.72
34.21
29.11
25.28
23.13
22.59
23.34
24.87
26.66
28.22
29.15
29.12
27.88
25.23
21.1
15.62
9.11
2.12
-4.77
-11.07
-16.54
-21.2
-25.27
-29.03
-32.68
-36.34
-40.04
-43.84
-47.86
-52.31
-57.52
-63.84
-71.49
-80.28
-89.32
-96.95
-100.91
-98.96
-89.59
-72.72
-49.88
-23.81
2.36
25.97
45.34
59.86
69.61
74.95
76.24
73.92
68.67
61.57
54.09
47.76
43.73
42.44
43.45
45.75
48.06
49.35
49.0
46.98
43.61
39.37
34.62
29.49
23.92
17.75
10.93
3.57
-4.0
-11.35
-18.1
-24.0
-29.05
-33.5
-37.78
-42.43
-48.08
-55.34
-64.56
-75.51
-87.12
-97.39
-103.74
-103.69
-95.61
-79.36
-56.37
-29.24
-1.07
25.37
48.18
66.37
79.74
88.44
92.77
93.12
90.13
84.83
78.62
73.01
69.19
67.55
67.66
68.47
68.88
68.27
66.67
64.52
62.25
59.89
56.98
52.89
47.19
39.99
31.93
23.97
16.93
11.22
6.72
2.9
-0.99
-5.55
-11.14
-17.69
-24.82
-31.95
-38.48
-44.07
-48.72
-52.84
-57.16
-62.64
-70.14
-80.1
-92.08
-104.45
-114.54
-119.21
-115.75
-102.9
-81.38
-53.75
-23.64
5.36
30.69
51.15
66.77
78.15
85.88
90.3
91.59
90.08
86.5
81.96
77.65
74.43
72.61
71.89
71.71
71.51
70.99
70.1
68.9
67.34
65.21
62.23
58.2
53.16
47.41
41.35
35.4
29.83
24.77
20.26
16.29
12.82
9.75
6.84
3.68
-0.14
-4.93
-10.63
-16.8
-22.82
-28.07
-32.31
-35.72
-38.91
-42.69
-47.88
-55.13
-64.69
-76.16
-88.24
-98.71
-104.7
-103.47
-93.31
-74.33
-48.53
-19.32
9.53
34.99
55.36
70.32
80.43
86.5
89.26
89.21
86.87
82.92
78.26
73.83
70.26
67.72
65.89
64.18
62.15
59.62
56.77
53.91
51.29
48.86
46.34
43.35
39.55
34.79
29.14
22.87
16.34
9.91
3.88
-1.65
-6.67
-11.32
-15.75
-20.14
-24.69
-29.65
-35.23
-41.53
-48.39
-55.38
-61.87
-67.34
-71.6
-74.93
-78.05
-81.93
-87.42
-94.96
-104.19
-113.9
-122.0
-126.05
-123.8
-113.94
-96.58
-73.32
-46.88
-20.33
3.69
23.48
38.36
48.42
54.14
56.07
54.81
51.15
46.15
41.06
37.06
34.84
34.38
35.05
35.95
36.41
36.19
35.47
34.54
33.44
31.87
29.31
25.4
20.13
13.93
7.48
1.36
-4.13
-9.06
-13.75
-18.54
-23.63
-28.93
-34.13
-38.81
-42.62
-45.38
-47.22
-48.55
-50.04
-52.53
-56.77
-63.11
-71.2
-79.78
-86.79
-89.85
-86.96
-77.15
-60.93
-40.07
-17.08
5.48
25.67
42.33
55.01
63.68
68.51
69.82
68.14
64.26
59.3
54.4
50.63
48.6
48.33
49.32
50.75
51.82
52.02
51.28
49.87
48.18
46.47
44.71
42.63
39.87
36.26
31.91
27.18
22.56
18.47
15.07
12.26
9.74
7.06
3.81
-0.29
-5.18
-10.55
-15.86
-20.51
-24.11
-26.63
-28.52
-30.58
-33.74
-38.77
-45.96
-54.85
-64.13
-71.77
-75.43
-73.13
-63.79
-47.71
-26.58
-3.06
19.97
40.07
55.76
66.56
72.78
75.1
74.25
70.88
65.59
59.11
52.3
46.04
40.99
37.36
34.88
32.91
30.86
28.36
25.43
22.32
19.23
16.09
12.57
8.26
2.91
-3.31
-9.91
-16.22
-21.66
-25.97
-29.27
-31.97
-34.6
-37.68
-41.49
-46.0
-50.96
-55.91
-60.34
-63.93
-66.63
-68.77
-70.97
-74.02
-78.6
-85.03
-92.91
-100.99
-107.28
-109.49
-105.7
-95.08
-78.12
-56.61
-33.05
-9.95
10.74
27.88
41.01
50.09
55.25
56.77
55.16
51.23
46.14
41.19
37.47
35.59
35.47
36.43
37.55
38.08
37.71
36.6
35.12
33.56
31.9
29.8
26.87
22.84
17.77
12.07
6.32
1.09
-3.23
-6.61
-9.36
-12.06
-15.34
-19.61
-24.9
-30.81
-36.7
-41.89
-46.01
-49.08
-51.57
-54.26
-58.04
-63.68
-71.52
-81.14
-91.15
-99.31
-103.01
-100.01
-89.19
-71.03
-47.52
-21.6
3.69
26.01
44.08
57.7
67.32
73.61
77.14
78.31
77.55
75.42
72.67
70.06
68.12
67.03
66.53
66.17
65.48
64.25
62.51
60.45
58.23
55.87
53.25
50.13
46.32
41.71
36.38
30.53
24.48
18.52
12.91
7.8
3.22
-0.92
-4.89
-9.06
-13.87
-19.56
-26.16
-33.38
-40.74
-47.72
-54.0
-59.57
-64.77
-70.26
-76.79
-85.07
-95.41
-107.42
-119.71
-129.97
-135.47
-133.88
-124.12
-106.73
-83.86
-58.46
-33.47
-11.1
7.41
21.69
31.84
38.18
41.17
41.41
39.72
37.1
34.47
32.51
31.5
31.34
31.73
32.41
33.25
34.27
35.47
36.64
37.33
36.95
35.03
31.44
26.46
20.73
15.0
9.86
5.54
1.9
-1.53
-5.27
-9.71
-14.89
-20.5
-25.99
-30.84
-34.83
-38.2
-41.6
-45.96
-52.1
-60.48
-70.86
-82.13
-92.29
-98.86
-99.4
-92.27
-77.25
-55.72
-30.33
-4.25
19.72
39.78
55.27
66.35
73.6
77.51
78.47
76.92
73.52
69.25
65.24
62.48
61.44
61.96
63.39
64.9
65.82
65.84
64.96
63.35
61.11
58.24
54.62
50.13
44.76
38.71
32.31
25.98
20.19
15.28
11.33
8.11
5.1
1.62
-2.87
-8.57
-15.2
-22.13
-28.62
-34.09
-38.38
-41.8
-44.99
-48.8
-54.06
-61.45
-71.22
-82.87
-94.91
-104.91
-109.9
-107.25
-95.56
-75.24
-48.56
-18.91
10.13
35.73
56.37
71.7
82.15
88.37
90.98
90.49
87.54
83.0
77.94
73.48
70.43
69.07
69.09
69.79
70.34
70.17
69.03
67.06
64.54
61.69
58.53
54.83
50.27
44.61
37.9
30.45
22.85
15.68
9.37
4.04
-0.45
-4.47
-8.45
-12.74
-17.61
-23.13
-29.23
-35.67
-42.1
-48.16
-53.64
-58.56
-63.3
-68.51
-74.96
-83.29
-93.57
-105.09
-116.15
-124.29
-126.84
-121.74
-108.27
-87.35
-61.4
-33.64
-7.13
15.84
34.13
47.51
56.36
61.2
62.63
61.36
58.26
54.38
50.78
48.28
47.23
47.46
48.43
49.47
50.09
50.07
49.49
48.49
47.12
45.2
42.36
38.19
32.56
25.78
18.58
11.81
6.08
1.46
-2.53
-6.64
-11.46
-17.11
-23.19
-29.06
-34.17
-38.38
-42.05
-45.86
-50.62
-57.08
-65.62
-76.02
-87.15
-97.01
-102.92
-102.36
-93.74
-77.14
-54.38
-28.44
-2.58
20.62
39.69
54.24
64.44
70.6
73.01
71.98
68.15
62.61
56.75
51.83
48.67
47.35
47.4
48.06
48.7
48.97
48.84
48.35
47.53
46.25
44.3
41.53
37.93
33.62
28.85
23.87
18.93
14.27
10.03
6.31
3.07
0.18
-2.61
-5.61
-9.07
-13.07
-17.53
-22.15
-26.59
-30.52
-33.87
-36.83
-39.86
-43.62
-48.8
-55.98
-65.36
-76.44
-87.81
-97.16
-101.79
-99.32
-88.62
-70.3
-46.61
-20.79
3.98
25.43
42.54
55.34
64.39
70.28
73.34
73.76
71.86
68.23
63.74
59.37
55.85
53.47
52.02
50.94
49.62
47.73
45.31
42.63
40.04
37.61
35.01
31.65
26.96
20.75
13.37
5.62
-1.61
-7.69
-12.52
-16.51
-20.35
-24.65
-29.76
-35.66
-41.98
-48.24
-53.93
-58.69
-62.35
-65.1
-67.48
-70.32
-74.56
-80.83
-89.11
-98.33
-106.48
-110.99
-109.52
-100.69
-84.56
-62.67
-37.61
-12.26
10.84
30.03
44.59
54.49
60.18
62.26
61.37
58.27
53.82
48.97
44.6
41.42
39.72
39.4
40.01
40.97
41.73
41.95
41.41
39.99
37.58
34.1
29.56
24.07
17.97
11.67
5.56
-0.2
-5.65
-10.97
-16.36
-21.81
-27.11
-31.93
-35.99
-39.27
-42.0
-44.71
-48.05
-52.66
-59.03
-67.19
-76.47
-85.32
-91.47
-92.47
-86.52
-73.22
-53.84
-31.0
-7.79
13.24
30.66
44.15
54.1
60.92
64.8
65.76
64.02
60.24
55.55
51.26
48.33
47.14
47.36
48.28
49.15
49.53
49.3
48.68
47.87
46.94
45.7
43.76
40.77
36.56
31.33
25.59
20.06
15.41
12.02
9.76
8.07
6.13
3.18
-1.17
-6.76
-13.02
-19.16
-24.48
-28.64
-31.72
-34.18
-36.77
-40.34
-45.64
-53.0
-61.96
-71.09
-78.09
-80.39
-75.92
-63.9
-45.24
-22.29
1.92
24.54
43.58
58.17
68.28
74.33
76.86
76.43
73.63
69.21
64.1
59.22
55.31
52.72
51.37
50.8
50.4
49.66
48.32
46.41
44.15
41.75
39.24
36.45
33.1
28.97
24.02
18.5
12.79
7.25
2.13
-2.51
-6.82
-11.02
-15.39
-20.19
-25.59
-31.59
-38.05
-44.59
-50.81
-56.36
-61.05
-64.97
-68.45
-72.06
-76.5
-82.45
-90.28
-99.66
-109.38
-117.35
-121.13
-118.65
-108.89
-92.27
-70.56
-46.31
-22.16
-0.27
18.0
31.98
41.61
47.14
49.07
48.09
45.08
41.05
36.97
33.67
31.58
30.76
30.88
31.45
31.99
32.24
32.13
31.66
30.78
29.31
26.96
23.51
18.93
13.49
7.7
2.09
-2.97
-7.42
-11.5
-15.61
-20.05
-24.89
-29.88
-34.6
-38.69
-42.06
-45.01
-48.14
-52.13
-57.6
-64.86
-73.59
-82.75
-90.55
-94.66
-92.92
-83.98
-67.98
-46.53
-22.38
1.53
22.81
40.14
53.16
62.16
67.58
69.79
69.13
66.11
61.58
56.65
52.4
49.59
48.32
48.14
48.26
47.99
47.02
45.5
43.86
42.43
41.18
39.69
37.33
33.63
28.48
22.25
15.66
9.48
4.3
0.33
-2.7
-5.4
-8.49
-12.51
-17.55
-23.23
-28.82
-33.66
-37.43
-40.36
-43.06
-46.32
-50.93
-57.46
-66.05
-76.18
-86.43
-94.49
-97.7
-93.81
-81.91
-62.83
-38.94
-13.35
11.09
32.49
50.03
63.57
73.22
79.01
80.97
79.37
74.95
68.92
62.7
57.49
53.97
52.14
51.47
51.25
50.85
50.02
48.78
47.31
45.73
43.96
41.71
38.6
34.33
28.83
22.34
15.39
8.65
2.72
-2.16
-6.25
-10.23
-14.92
-20.87
-28.1
-36.08
-43.94
-50.93
-56.74
-61.62
-66.18
-71.19
-77.3
-84.96
-94.29
-104.95
-115.9
-125.33
-130.86
-130.16
-121.71
-105.45
-82.95
-56.99
-30.7
-6.68
13.47
29.16
40.44
47.65
51.13
51.29
48.8
44.62
39.95
35.92
33.34
32.43
32.94
34.32
35.96
37.37
38.24
38.37
37.62
35.94
33.34
29.93
25.83
21.16
15.97
10.31
4.22
-2.19
-8.71
-15.14
-21.3
-27.06
-32.36
-37.25
-41.92
-46.72
-52.23
-59.09
-67.68
-77.71
-87.97
-96.34
-100.24
-97.42
-86.75
-68.66
-45.09
-18.93
6.8
29.77
48.65
63.08
73.3
79.73
82.73
82.68
80.07
75.74
70.81
66.5
63.76
62.94
63.71
65.21
66.44
66.68
65.7
63.72
61.18
58.35
55.16
51.22
46.09
39.6
32.09
24.29
17.07
11.06
6.38
2.6
-1.04
-5.25
-10.44
-16.59
-23.31
-30.02
-36.24
-41.69
-46.42
-50.8
-55.46
-61.24
-68.97
-79.2
-91.65
-104.95
-116.62
-123.56
-122.97
-113.32
-94.88
-69.7
-40.98
-12.11
14.21
36.34
53.71
66.42
74.88
79.52
80.75
79.16
75.63
71.31
67.43
64.96
64.22
64.84
65.96
66.59
66.16
64.65
62.51
60.28
58.24
56.17
53.51
49.62
44.19
37.41
29.97
22.77
16.52
11.48
7.28
3.12
-1.84
-8.18
-15.87
-24.34
-32.72
-40.15
-46.2
-50.98
-55.12
-59.51
-65.13
-72.73
-82.65
-94.45
-106.82
-117.47
-123.59
-122.58
-112.86
-94.6
-69.69
-41.29
-12.83
12.86
34.13
50.51
62.28
70.07
74.43
75.83
74.69
71.59
67.33
62.86
59.1
56.66
55.68
55.81
56.41
56.78
56.43
55.11
52.72
49.19
44.35
38.08
30.44
21.82
12.95
4.56
-2.84
-9.24
-15.11
-21.08
-27.6
-34.75
-42.11
-49.01
-54.89
-59.6
-63.54
-67.57
-72.74
-79.89
-89.23
-99.97
-110.22
-117.36
-118.63
-112.04
-97.07
-74.95
-48.33
-20.5
5.54
27.75
45.3
58.21
66.93
71.91
73.51
72.11
68.33
63.15
57.69
53.01
49.74
47.99
47.39
47.27
46.98
46.02
44.15
41.39
37.86
33.78
29.28
24.37
18.93
12.83
6.01
-1.41
-9.1
-16.55
-23.31
-29.07
-33.84
-37.91
-41.78
-46.07
-51.44
-58.4
-67.09
-76.96
-86.58
-93.74
-95.91
-90.97
-78.06
-58.0
-33.12
-6.64
18.38
39.8
56.65
69.02
77.43
82.4
84.24
83.17
79.67
74.57
68.99
64.02
60.35
58.08
56.82
56.0
55.16
54.14
52.96
51.56
49.71
46.96
42.9
37.35
30.58
23.23
16.05
9.68
4.33
-0.27
-4.66
-9.39
-14.78
-20.71
-26.7
-32.15
-36.58
-39.95
-42.71
-45.74
-50.15
-56.9
-66.28
-77.62
-89.02
-97.72
-100.74
-95.84
-82.36
-61.48
-35.88
-8.84
16.62
38.46
55.72
68.29
76.49
80.72
81.49
79.41
75.38
70.47
65.8
62.17
59.89
58.72
58.04
57.17
55.62
53.34
50.55
47.58
44.54
41.23
37.16
31.86
25.1
17.12
8.6
0.37
-6.9
-12.92
-17.94
-22.62
-27.65
-33.48
-40.09
-46.96
-53.42
-58.9
-63.19
-66.52
-69.47
-72.79
-77.31
-83.69
-92.13
-102.19
-112.41
-120.46
-123.63
-119.65
-107.57
-88.15
-63.73
-37.43
-12.19
9.91
27.89
41.55
51.08
56.71
58.69
57.47
53.86
49.04
44.31
40.78
39.02
39.04
40.34
42.2
43.9
44.93
44.94
43.77
41.3
37.49
32.4
26.28
19.59
12.89
6.66
1.13
-3.79
-8.44
-13.22
-18.38
-23.88
-29.38
-34.45
-38.74
-42.18
-45.08
-48.14
-52.27
-58.25
-66.39
-76.06
-85.63
-92.58
-94.28
-88.78
-75.55
-55.71
-31.75
-6.7
16.65
36.4
51.72
62.56
69.29
72.41
72.45
70.0
65.89
61.15
56.8
53.65
52.03
51.71
52.05
52.33
52.1
51.26
50.04
48.76
47.54
46.19
44.28
41.36
37.18
31.89
26.03
20.4
15.7
12.3
10.1
8.53
6.86
4.37
0.75
-3.91
-9.09
-14.16
-18.62
-22.34
-25.61
-29.08
-33.55
-39.75
-48.09
-58.34
-69.44
-79.49
-86.1
-86.93
-80.47
-66.61
-46.78
-23.55
0.08
21.5
39.03
52.02
60.59
65.2
66.41
64.74
60.83
55.45
49.52
43.93
39.31
35.91
33.56
31.9
30.54
29.25
27.95
26.57
24.98
22.81
19.63
15.1
9.16
2.13
-5.34
-12.46
-18.56
-23.4
-27.23
-30.63
-34.33
-38.75
-43.89
-49.29
-54.29
-58.41
-61.55
-64.11
-66.85
-70.66
-76.18
-83.57
-92.2
-100.64
-106.74
-108.15
-103.0
-90.58
-71.72
-48.6
-24.1
-0.99
18.75
34.2
45.25
52.19
55.38
55.19
52.2
47.3
41.77
36.93
33.78
32.67
33.28
34.85
36.58
37.87
38.45
38.25
37.18
35.06
31.74
27.19
21.69
15.69
9.71
4.09
-1.16
-6.27
-11.54
-17.16
-23.03
-28.88
-34.32
-39.06
-43.05
-46.56
-50.09
-54.38
-60.17
-67.99
-77.73
-88.36
-97.88
-103.72
-103.38
-95.4
-79.84
-58.39
-33.82
-9.13
13.24
31.83
46.09
56.1
62.14
64.58
63.91
60.89
56.56
52.06
48.36
46.03
45.14
45.29
45.9
46.39
46.4
45.81
44.72
43.28
41.63
39.73
37.43
34.49
30.77
26.42
21.88
17.79
14.67
12.65
11.31
9.9
7.6
3.99
-0.78
-6.14
-11.36
-15.95
-19.87
-23.53
-27.6
-32.85
-39.88
-48.99
-59.88
-71.47
-81.85
-88.49
-88.96
-81.66
-66.54
-45.17
-20.43
4.47
26.85
45.12
58.83
68.23
73.79
75.84
74.65
70.66
64.72
58.09
52.07
47.63
45.06
43.93
43.42
42.79
41.57
39.71
37.32
34.47
31.03
26.71
21.32
14.82
7.57
0.08
-7.06
-13.47
-19.07
-24.13
-29.13
-34.46
-40.31
-46.44
-52.34
-57.49
-61.57
-64.7
-67.47
-70.8
-75.63
-82.55
-91.38
-100.98
-109.23
-113.57
-111.64
-102.16
-85.35
-62.93
-37.64
-12.38
10.49
29.5
44.06
54.13
60.0
62.07
60.96
57.55
52.95
48.32
44.64
42.49
41.95
42.65
44.02
45.42
46.34
46.35
45.2
42.75
38.97
34.0
28.17
21.87
15.54
9.44
3.63
-2.06
-7.86
-13.87
-20.01
-25.98
-31.46
-36.27
-40.51
-44.49
-48.73
-53.82
-60.31
-68.54
-78.35
-88.74
-97.79
-102.89
-101.49
-91.97
-74.36
-50.44
-23.24
3.92
28.33
48.37
63.5
73.89
80.0
82.31
81.4
78.03
73.25
68.3
64.32
62.01
61.49
62.25
63.45
64.28
64.29
63.43
61.99
60.25
58.31
55.96
52.83
48.63
43.35
37.31
31.05
25.22
20.26
16.29
12.99
9.76
5.82
0.66
-5.79
-13.06
-20.34
-26.82
-32.1
-36.36
-40.27
-44.86
-51.1
-59.65
-70.62
-83.24
-95.76
-105.6
-109.85
-106.1
-93.32
-72.35
-45.82
-17.33
9.63
32.55
50.32
62.91
70.89
74.89
75.37
72.81
67.94
61.86
55.8
50.84
47.52
45.75
44.92
44.3
43.32
41.71
39.46
36.56
32.94
28.45
22.91
16.37
9.13
1.73
-5.26
-11.46
-16.82
-21.61
-26.29
-31.23
-36.55
-42.06
-47.32
-51.94
-55.72
-58.87
-61.96
-65.83
-71.32
-78.88
-88.15
-97.81
-105.6
-108.87
-105.36
-93.94
-75.07
-50.72
-23.76
2.8
26.57
46.05
60.68
70.45
75.69
76.92
74.79
70.26
64.53
58.9
54.43
51.73
50.7
50.73
50.99
50.78
49.79
48.11
45.94
43.33
40.06
35.78
30.22
23.47
16.12
8.95
2.66
-2.44
-6.65
-10.63
-15.1
-20.47
-26.61
-32.94
-38.7
-43.39
-46.89
-49.64
-52.48
-56.42
-62.39
-70.9
-81.72
-93.58
-104.15
-110.46
-109.7
-100.15
-81.92
-56.97
-28.56
-0.21
25.23
46.12
61.99
73.1
79.94
83.03
82.9
80.26
76.06
71.42
67.37
64.58
63.19
62.89
63.11
63.32
63.22
62.82
62.25
61.55
60.54
58.79
55.79
51.21
45.1
38.03
30.97
24.99
20.92
18.98
18.56
18.39
16.83
12.53
4.94
-5.39
-17.03
-28.14
-37.13
-43.27
-46.75
-48.57
-50.17
-53.02
-58.27
-66.45
-77.17
-88.94
-99.3
-105.28
-104.34
-95.15
-78.14
-55.46
-30.25
-5.78
15.49
32.21
44.07
51.39
54.75
54.69
51.78
46.71
40.36
33.72
27.69
22.86
19.37
16.93
15.01
13.03
10.59
7.48
3.71
-0.62
-5.29
-10.06
-14.61
-18.63
-21.87
-24.29
-26.05
-27.49
-29.0
-30.82
-32.95
-35.14
-37.04
-38.32
-38.91
-39.09
-39.44
-40.77
-43.89
-49.37
-57.3
-66.92
-76.58
-83.87
-86.2
-81.54
-69.14
-49.92
-26.22
-1.19
22.22
41.91
56.98
67.45
73.82
76.67
76.52
73.87
69.45
64.18
59.11
55.07
52.53
51.52
51.68
52.51
53.47
54.04
53.77
52.27
49.28
44.84
39.17
32.76
26.2
19.95
14.33
9.34
4.8
0.35
-4.29
-9.27
-14.5
-19.66
-24.44
-28.67
-32.5
-36.52
-41.59
-48.56
-57.77
-68.64
-79.47
-87.67
-90.46
-85.72
-72.73
-52.49
-27.42
-0.63
24.97
47.22
64.96
77.85
85.94
89.51
88.99
85.07
78.9
71.86
65.39
60.52
57.69
56.65
56.76
57.33
57.9
58.34
58.6
58.55
57.77
55.69
51.78
45.93
38.5
30.22
21.92
14.22
7.32
1.01
-5.12
-11.5
-18.26
-25.22
-31.97
-38.02
-43.08
-47.19
-50.74
-54.5
-59.45
-66.51
-76.15
-87.98
-100.47
-111.08
-116.87
-115.39
-105.62
-88.43
-66.33
-42.66
-20.49
-1.81
12.68
23.24
30.44
34.74
36.3
35.26
32.01
27.35
22.42
18.29
15.68
14.69
14.86
15.46
15.83
15.58
14.63
13.13
11.27
9.14
6.75
4.01
0.82
-2.87
-7.0
-11.4
-15.89
-20.26
-24.34
-28.08
-31.42
-34.42
-37.16
-39.88
-42.97
-46.97
-52.41
-59.56
-68.06
-76.64
-83.27
-85.56
-81.5
-70.26
-52.51
-30.35
-6.62
15.88
35.14
50.2
60.99
67.92
71.47
72.03
70.03
66.04
60.95
55.81
51.55
48.75
47.43
47.09
47.04
46.69
45.76
44.31
42.56
40.64
38.39
35.41
31.31
25.96
19.74
13.35
7.51
2.6
-1.56
-5.62
-10.29
-15.93
-22.26
-28.52
-33.83
-37.65
-40.05
-41.71
-43.69
-47.08
-52.64
-60.54
-70.1
-79.71
-86.99
-89.3
-84.51
-71.75
-51.9
-27.44
-1.63
22.41
42.57
58.08
69.24
76.82
81.48
83.55
83.18
80.64
76.56
71.91
67.64
64.35
62.06
60.29
58.45
56.16
53.44
50.62
48.02
45.66
43.18
39.96
35.52
29.68
22.74
15.35
8.24
1.95
-3.41
-8.18
-12.99
-18.47
-24.97
-32.41
-40.25
-47.74
-54.21
-59.35
-63.39
-67.05
-71.36
-77.31
-85.61
-96.29
-108.48
-120.37
-129.45
-133.08
-129.23
-117.2
-97.93
-73.74
-47.65
-22.56
-0.6
17.17
30.5
39.68
45.15
47.39
46.94
44.46
40.8
36.86
33.49
31.29
30.49
30.98
32.29
33.77
34.8
34.93
33.95
31.94
29.1
25.69
21.91
17.86
13.45
8.57
3.05
-3.17
-9.9
-16.79
-23.32
-29.05
-33.78
-37.66
-41.19
-45.02
-49.82
-56.1
-64.07
-73.44
-83.28
-91.87
-96.97
-96.3
-88.28
-72.74
-51.11
-26.07
-0.73
22.28
41.35
55.98
66.38
72.99
76.17
76.26
73.77
69.58
64.91
61.03
58.84
58.56
59.71
61.41
62.74
63.16
62.66
61.62
60.52
59.55
58.49
56.76
53.79
49.27
43.42
36.89
30.47
24.78
19.96
15.7
11.39
6.46
0.59
-6.08
-13.07
-19.81
-25.82
-31.01
-35.69
-40.5
-46.22
-53.63
-63.21
-74.88
-87.78
-100.13
-109.42
-112.96
-108.66
-95.83
-75.51
-50.3
-23.59
1.46
22.7
39.15
50.89
58.45
62.35
63.04
60.92
56.55
50.83
44.81
39.46
35.39
32.69
31.03
29.86
28.71
27.38
25.86
24.18
22.25
19.7
16.14
11.38
5.6
-0.63
-6.65
-12.0
-16.68
-21.04
-25.55
-30.48
-35.7
-40.75
-45.14
-48.6
-51.28
-53.68
-56.54
-60.62
-66.5
-74.33
-83.53
-92.64
-99.44
-101.33
-96.17
-83.09
-62.9
-37.98
-11.55
13.3
34.35
50.55
61.78
68.5
71.32
70.87
67.89
63.36
58.32
53.77
50.34
48.24
47.26
46.97
46.99
47.02
46.85
46.24
44.9
42.49
38.79
33.76
27.68
21.09
14.56
8.56
3.25
-1.5
-6.04
-10.72
-15.75
-21.07
-26.42
-31.46
-36.01
-40.15
-44.25
-48.95
-54.97
-62.85
-72.61
-83.42
-93.46
-100.18
-100.93
-93.75
-78.14
-55.29
-27.83
0.95
27.95
50.95
68.77
81.16
88.41
91.09
89.97
85.98
80.25
74.02
68.39
64.19
61.78
60.96
61.19
61.76
62.02
61.6
60.36
58.36
55.58
51.94
47.22
41.33
34.38
26.79
19.15
11.96
5.37
-0.83
-7.1
-13.83
-21.08
-28.59
-35.88
-42.56
-48.51
-54.06
-59.87
-66.74
-75.38
-86.02
-98.14
-110.27
-120.15
-125.22
-123.34
-113.57
-96.54
-74.35
-49.9
-26.0
-4.76
12.76
26.31
36.04
42.09
44.53
43.55
39.78
34.4
28.96
24.94
23.23
23.86
26.04
28.57
30.37
30.84
29.98
28.18
25.94
23.56
21.03
18.07
14.33
9.56
3.76
-2.77
-9.51
-15.86
-21.35
-25.82
-29.45
-32.75
-36.43
-41.25
-47.77
-56.24
-66.25
-76.67
-85.58
-90.64
-89.67
-81.34
-65.7
-44.28
-19.67
5.17
27.7
46.28
60.17
69.38
74.23
75.18
72.82
67.93
61.58
55.04
49.49
45.78
44.18
44.4
45.73
47.35
48.52
48.75
47.77
45.48
41.83
36.88
30.79
23.89
16.72
9.81
3.59
-1.89
-6.96
-12.2
-18.15
-24.97
-32.33
-39.5
-45.7
-50.43
-53.78
-56.42
-59.42
-63.87
-70.44
-78.97
-88.23
-96.01
-99.55
-96.37
-85.05
-65.84
-40.63
-12.51
15.21
39.8
59.67
74.37
84.27
90.0
92.23
91.54
88.54
84.06
79.03
74.37
70.68
68.17
66.59
65.51
64.49
63.25
61.67
59.63
56.9
53.17
48.1
41.6
33.97
25.79
17.73
10.25
3.39
-3.22
-10.09
-17.55
-25.59
-33.79
-41.61
-48.58
-54.64
-60.11
-65.58
-71.87
-79.65
-89.27
-100.35
-111.54
-120.61
-124.84
-121.9
-110.64
-91.65
-67.12
-40.16
-13.88
9.4
28.47
43.04
53.27
59.42
61.71
60.48
56.44
50.73
44.77
39.92
37.08
36.41
37.35
38.88
39.99
40.01
38.76
36.49
33.64
30.54
27.29
23.66
19.26
13.77
7.11
-0.46
-8.36
-15.91
-22.49
-27.81
-31.98
-35.44
-38.86
-42.98
-48.44
-55.67
-64.63
-74.62
-84.1
-90.85
-92.4
-86.83
-73.47
-53.26
-28.62
-2.69
21.5
41.85
57.35
67.89
73.87
75.83
74.41
70.39
64.85
58.97
53.86
50.19
48.08
47.2
46.95
46.82
46.45
45.69
44.45
42.57
39.8
35.9
30.73
24.48
17.62
10.82
4.73
-0.31
-4.37
-7.94
-11.61
-15.87
-20.83
-26.13
-31.23
-35.56
-38.95
-41.7
-44.53
-48.42
-54.19
-62.21
-71.93
-81.85
-89.59
-92.49
-88.36
-76.26
-56.89
-32.46
-5.99
19.52
41.85
59.83
73.17
82.12
87.02
88.24
86.24
81.78
75.89
69.81
64.62
60.97
58.88
57.87
57.17
56.18
54.62
52.52
50.06
47.25
43.82
39.23
33.05
25.21
16.25
7.11
-1.21
-8.13
-13.74
-18.67
-23.82
-29.82
-36.81
-44.36
-51.76
-58.33
-63.7
-67.98
-71.71
-75.72
-80.92
-87.98
-96.95
-106.9
-115.85
-121.1
-120.01
-110.94
-93.88
-70.6
-44.08
-17.57
6.33
26.14
41.43
52.38
59.33
62.54
62.33
59.31
54.49
49.16
44.55
41.48
40.19
40.32
41.22
42.21
42.77
42.61
41.6
39.67
36.79
33.01
28.5
23.52
18.33
13.11
7.91
2.62
-2.88
-8.59
-14.35
-19.86
-24.82
-29.12
-32.9
-36.59
-40.82
-46.27
-53.51
-62.66
-73.07
-83.17
-90.65
-92.93
-87.97
-75.01
-54.95
-30.22
-4.02
20.57
41.35
57.27
68.32
74.97
77.82
77.4
74.23
69.06
62.92
57.04
52.5
49.9
49.17
49.68
50.55
51.08
50.97
50.28
49.27
48.02
46.33
43.76
39.88
34.61
28.39
22.07
16.61
12.68
10.33
8.97
7.6
5.19
1.19
-4.39
-10.95
-17.64
-23.67
-28.68
-32.79
-36.53
-40.75
-46.36
-54.08
-64.14
-75.86
-87.53
-96.57
-100.11
-95.95
-83.38
-63.49
-38.96
-13.11
11.01
31.37
47.08
58.17
65.09
68.34
68.39
65.74
61.02
55.04
48.72
42.89
38.14
34.7
32.45
31.04
30.03
29.02
27.67
25.74
22.99
19.2
14.23
8.09
1.03
-6.49
-13.9
-20.72
-26.67
-31.75
-36.2
-40.28
-44.21
-47.9
-51.16
-53.78
-55.8
-57.61
-59.85
-63.28
-68.49
-75.64
-84.24
-93.03
-100.07
-103.08
-100.06
-89.86
-72.77
-50.53
-25.92
-1.93
19.04
35.63
47.62
55.41
59.6
60.69
59.08
55.23
49.94
44.25
39.27
35.88
34.45
34.74
36.09
37.69
38.78
38.9
37.86
35.65
32.34
28.07
23.02
17.47
11.71
5.98
0.37
-5.21
-10.84
-16.56
-22.19
-27.46
-32.13
-36.16
-39.8
-43.46
-47.69
-53.01
-59.77
-67.98
-76.97
-85.29
-90.71
-90.81
-83.78
-69.15
-48.23
-23.73
1.13
23.54
41.84
55.58
65.12
71.1
73.99
74.17
72.02
68.28
63.97
60.2
57.74
56.83
57.06
57.71
58.09
57.87
57.08
55.91
54.4
52.33
49.26
44.85
39.07
32.35
25.42
19.04
13.63
9.18
5.2
1.03
-3.9
-9.77
-16.34
-23.05
-29.27
-34.63
-39.16
-43.31
-47.87
-53.61
-61.19
-70.78
-81.92
-93.37
-103.14
-108.83
-108.25
-100.09
-84.51
-63.17
-38.87
-14.68
6.83
24.1
36.67
44.76
48.88
49.58
47.36
42.85
36.88
30.53
24.8
20.47
17.8
16.55
16.17
16.04
15.7
14.97
13.87
12.51
10.97
9.16
6.93
4.08
0.47
-3.87
-8.84
-14.19
-19.62
-24.76
-29.22
-32.7
-35.13
-36.76
-38.17
-40.12
-43.34
-48.35
-55.35
-64.03
-73.56
-82.4
-88.48
-89.53
-83.74
-70.46
-50.6
-26.48
-1.25
22.16
41.64
56.25
65.98
71.28
72.79
71.15
67.18
61.9
56.52
52.09
49.27
48.08
48.01
48.31
48.35
47.84
46.8
45.32
43.36
40.68
36.94
31.96
25.94
19.41
13.04
7.33
2.4
-2.02
-6.35
-10.92
-15.8
-20.87
-25.86
-30.55
-34.83
-38.75
-42.51
-46.51
-51.39
-57.85
-66.33
-76.58
-87.32
-96.21
-100.43
-97.5
-86.17
-66.93
-41.92
-14.3
12.73
36.71
56.33
71.36
82.15
89.21
92.91
93.53
91.49
87.5
82.61
77.95
74.35
72.11
70.93
70.18
69.23
67.76
65.83
63.73
61.62
59.4
56.61
52.62
46.94
39.55
30.95
22.07
13.92
7.15
1.82
-2.61
-6.98
-12.07
-18.24
-25.33
-32.79
-40.01
-46.59
-52.44
-57.84
-63.34
-69.68
-77.59
-87.48
-99.1
-111.14
-121.26
-126.63
-124.79
-114.56
-96.63
-73.34
-47.94
-23.49
-2.15
15.07
28.1
37.26
42.88
45.22
44.61
41.62
37.13
32.19
27.77
24.56
22.86
22.55
23.22
24.36
25.41
25.91
25.53
24.14
21.75
18.49
14.53
9.95
4.85
-0.7
-6.61
-12.65
-18.54
-23.97
-28.79
-32.91
-36.44
-39.6
-42.71
-46.16
-50.48
-56.25
-63.78
-72.86
-82.36
-90.27
-94.1
-91.58
-81.48
-64.08
-41.2
-15.63
9.65
32.19
50.48
63.93
72.59
76.88
77.4
74.89
70.28
64.67
59.2
54.73
51.73
50.13
49.41
48.92
48.18
47.02
45.55
43.95
