0
-54.24
-38.39
-25.14
-14.53
-5.89
1.6
8.49
14.95
20.89
26.1
30.46
33.99
36.78
39.01
40.95
42.83
44.86
47.12
49.49
51.74
53.59
54.86
55.52
55.69
55.51
55.05
54.2
52.67
50.09
46.09
40.42
33.11
24.55
15.38
6.44
-1.53
-8.11
-13.38
-17.82
-22.23
-27.37
-33.66
-40.96
-48.44
-54.7
-58.14
-57.41
-51.87
-41.94
-29.0
-15.05
-2.07
8.49
16.04
20.82
23.54
24.99
25.71
25.97
25.83
25.35
24.66
23.97
23.44
23.18
23.19
23.47
24.08
25.15
26.7
28.51
30.15
31.02
30.77
29.4
27.33
25.23
23.73
23.11
23.23
23.64
23.79
23.32
22.12
20.39
18.46
16.62
14.97
13.4
11.65
9.38
6.32
2.3
-2.66
-8.29
-14.03
-18.95
-21.94
-21.92
-18.36
-11.46
-2.29
7.58
16.6
23.83
29.08
32.74
35.28
36.74
36.64
34.19
28.77
20.35
9.61
-2.27
-13.96
-24.34
-32.65
-38.53
-41.96
-43.22
-42.9
-41.78
-40.71
-40.3
-40.86
-42.31
-44.31
-46.49
-48.55
-50.33
-51.8
-52.95
-53.76
-54.23
-54.43
-54.51
-54.67
-55.16
-56.24
-58.23
-61.35
-65.72
-71.06
-76.59
-81.04
-82.87
-80.67
-73.62
-61.76
-46.02
-27.94
-9.21
8.79
25.22
39.85
52.82
64.34
74.51
83.23
90.27
95.52
99.0
100.98
101.8
101.74
101.0
99.74
98.15
96.5
95.0
93.71
92.4
90.68
88.17
84.63
80.1
74.79
68.94
62.69
56.09
49.12
41.82
34.32
26.73
19.19
11.75
4.45
-2.75
-9.97
-17.45
-25.56
-34.74
-45.33
-57.3
-70.03
-82.23
-92.11
-97.85
-98.09
-92.43
-81.62
-67.34
-51.78
-36.91
-24.08
-13.8
-5.87
0.2
4.88
8.35
10.54
11.29
10.62
8.79
6.3
3.68
1.32
-0.59
-2.04
-3.06
-3.57
-3.52
-2.93
-2.13
-1.63
-2.0
-3.57
-6.22
-9.38
-12.27
-14.21
-14.92
-14.61
-13.9
-13.55
-14.17
-16.02
-18.94
-22.48
-26.06
-29.25
-31.95
-34.53
-37.65
-42.04
-48.08
-55.53
-63.38
-70.05
-73.78
-73.14
-67.46
-57.12
-43.38
-28.1
-13.19
-0.16
10.24
17.96
23.51
27.52
30.53
32.77
34.42
35.71
37.08
39.1
42.29
46.8
52.39
58.48
64.41
69.73
74.28
78.19
81.84
85.69
90.3
96.15
103.47
111.99
120.8
128.47
133.45
134.34
130.28
120.95
106.55
87.72
65.4
40.85
15.42
-9.6
-33.28
-55.18
-75.4
-94.32
-112.23
-129.13
-144.39
-156.83
-164.86
-166.96
-162.15
-150.51
-133.31
-112.85
-91.75
-72.3
-55.87
-42.82
-32.73
-24.86
-18.59
-13.53
-9.5
-6.41
-4.04
-2.14
-0.47
1.09
2.52
3.71
4.63
5.45
6.51
8.2
10.75
14.09
17.77
21.2
23.81
25.3
25.76
25.53
25.02
24.44
23.7
22.46
20.39
17.38
13.67
9.8
6.33
3.6
1.48
-0.55
-3.34
-7.69
-14.08
-22.41
-31.91
-41.18
-48.52
-52.37
-51.79
-46.87
-38.67
-28.93
-19.48
-11.76
-6.41
-3.41
-2.24
-2.13
-2.3
-2.0
-0.54
2.57
7.58
14.37
22.56
31.6
40.9
49.88
58.02
64.83
69.95
73.18
74.56
74.27
72.55
69.45
64.88
58.62
50.56
40.88
30.03
18.76
7.78
-2.29
-11.08
-18.49
-24.67
-30.0
-35.02
-40.35
-46.52
-53.78
-61.91
-70.17
-77.4
-82.27
-83.64
-80.89
-74.07
-63.88
-51.52
-38.35
-25.62
-14.19
-4.54
3.3
9.52
14.32
17.8
19.94
20.66
20.02
18.24
15.66
12.65
9.45
6.14
2.73
-0.65
-3.59
-5.44
-5.51
-3.47
0.41
5.17
9.44
11.93
11.91
9.48
5.45
1.02
-2.78
-5.4
-6.97
-8.1
-9.55
-12.1
-16.33
-22.74
-31.69
-43.36
-57.4
-72.72
-87.33
-98.66
-104.28
-102.75
-94.12
-79.98
-62.9
-45.45
-29.45
-15.66
-3.89
6.42
15.67
23.92
30.89
36.32
40.18
42.72
44.37
45.47
46.2
46.63
46.89
47.22
48.09
49.93
52.87
56.54
60.15
62.77
63.67
62.61
59.84
55.92
51.38
46.56
41.48
35.99
29.88
23.05
15.59
7.75
-0.08
-7.43
-13.92
-19.34
-23.84
-27.97
-32.59
-38.52
-46.15
-55.05
-63.85
-70.49
-72.82
-69.24
-59.26
-43.64
-24.13
-2.93
17.93
36.98
53.44
66.96
77.46
84.9
89.29
90.82
89.9
87.15
83.24
78.66
73.67
68.37
62.86
57.41
52.56
48.95
47.1
47.19
48.9
51.47
53.93
55.31
54.99
52.73
48.77
43.6
37.81
31.78
25.64
19.27
12.38
4.83
-3.37
-11.96
-20.58
-28.93
-36.91
-44.7
-52.75
-61.62
-71.81
-83.49
-96.23
-108.84
-119.45
-125.89
-126.32
-119.85
-106.95
-89.31
-69.32
-49.31
-30.86
-14.63
-0.55
11.68
22.23
31.0
37.83
42.74
46.09
48.41
50.2
51.71
52.9
53.66
53.99
54.14
54.49
55.35
56.71
58.22
59.28
59.33
57.98
55.22
51.33
46.82
42.19
37.78
33.57
29.21
24.15
17.87
10.17
1.31
-8.06
-17.18
-25.5
-32.98
-40.11
-47.7
-56.54
-67.01
-78.75
-90.56
-100.47
-106.16
-105.61
-97.72
-82.76
-62.39
-39.21
-16.0
4.94
22.25
35.59
45.31
52.11
56.65
59.46
60.93
61.4
61.18
60.64
60.06
59.61
59.25
58.79
58.01
56.73
55.05
53.25
51.69
50.55
49.73
48.78
47.08
44.1
39.61
33.81
27.25
20.6
14.38
8.75
3.5
-1.85
-7.82
-14.63
-22.19
-30.05
-37.65
-44.48
-50.36
-55.47
-60.31
-65.64
-72.23
-80.62
-90.8
-101.97
-112.51
-120.15
-122.59
-118.11
-106.26
-87.94
-65.25
-40.87
-17.32
3.61
21.04
34.9
45.62
53.74
59.7
63.76
66.07
66.82
66.33
65.0
63.26
61.43
59.61
57.74
55.73
53.6
51.46
49.51
47.89
46.52
45.16
43.41
40.92
37.43
32.97
27.72
22.02
16.28
10.83
5.84
1.21
-3.45
-8.64
-14.9
-22.44
-31.11
-40.35
-49.37
-57.44
-64.12
-69.38
-73.68
-77.82
-82.71
-89.15
-97.52
-107.58
-118.21
-127.51
-133.13
-132.81
-125.13
-109.99
-88.71
-63.73
-37.92
-13.8
7.03
23.98
37.29
47.59
55.56
61.67
66.25
69.54
71.78
73.21
74.04
74.34
74.07
73.11
71.41
69.12
66.59
64.35
62.87
62.27
62.22
62.0
60.73
57.81
53.12
47.16
40.79
34.78
29.53
24.89
20.33
15.24
9.26
2.42
-4.88
-12.05
-18.58
-24.3
-29.4
-34.49
-40.39
-47.87
-57.36
-68.66
-80.77
-91.92
-99.92
-102.68
-98.73
-87.83
-71.02
-50.46
-28.78
-8.46
8.85
22.5
32.68
40.03
45.18
48.45
49.98
49.87
48.44
46.27
44.06
42.33
41.22
40.56
40.05
39.54
39.13
39.12
39.71
40.75
41.73
41.92
40.68
37.77
33.4
28.12
22.59
17.23
12.1
6.95
1.31
-5.17
-12.54
-20.47
-28.38
-35.68
-42.06
-47.65
-53.03
-59.04
-66.46
-75.73
-86.72
-98.54
-109.62
-117.88
-121.25
-118.21
-108.35
-92.57
-72.9
-51.87
-31.76
-14.03
0.83
13.03
23.05
31.25
37.65
42.17
44.76
45.67
45.43
44.66
43.92
43.46
43.26
43.13
42.93
42.61
42.3
42.16
42.27
42.51
42.63
42.25
41.02
38.7
35.25
30.89
25.99
21.03
16.43
12.39
8.79
5.25
1.27
-3.54
-9.25
-15.55
-21.91
-27.8
-32.92
-37.32
-41.36
-45.59
-50.57
-56.85
-64.79
-74.34
-84.86
-94.92
-102.46
-105.22
-101.56
-91.04
-74.66
-54.54
-33.23
-12.93
4.99
20.06
32.47
42.6
50.77
57.11
61.64
64.4
65.62
65.73
65.23
64.61
64.13
63.82
63.53
63.16
62.72
62.36
62.23
62.35
62.51
62.32
61.4
59.45
56.3
51.98
46.59
40.36
33.64
26.86
20.43
14.64
9.49
4.72
-0.08
-5.27
-11.01
-17.21
-23.59
-29.85
-35.75
-41.26
-46.59
-52.12
-58.4
-65.96
-75.12
-85.75
-96.94
-107.05
-113.92
-115.49
-110.49
-98.92
-82.1
-62.28
-41.86
-22.76
-6.07
7.87
19.23
28.24
35.04
39.74
42.53
43.75
43.9
43.52
43.06
42.79
42.8
43.0
43.3
43.62
43.95
44.36
44.85
45.29
45.42
44.81
43.14
40.29
36.45
32.08
27.67
23.6
19.87
16.17
11.98
6.82
0.49
-6.74
-14.25
-21.26
-27.15
-31.81
-35.76
-39.92
-45.38
-52.91
-62.69
-74.07
-85.65
-95.45
-101.31
-101.4
-94.78
-81.73
-63.79
-43.3
-22.72
-3.92
12.15
25.43
36.3
45.19
52.3
57.64
61.21
63.13
63.74
63.48
62.74
61.86
61.02
60.33
59.81
59.44
59.13
58.78
58.32
57.71
56.94
55.91
54.44
52.26
49.13
44.9
39.65
33.69
27.49
21.5
16.05
11.16
6.59
1.85
-3.52
-9.79
-16.91
-24.5
-32.03
-39.03
-45.33
-51.1
-56.81
-63.08
-70.51
-79.46
-90.02
-101.72
-113.44
-123.38
-129.35
-129.32
-122.12
-107.88
-88.15
-65.46
-42.52
-21.5
-3.56
11.14
23.1
32.93
41.05
47.59
52.52
55.86
57.81
58.69
58.84
58.55
57.96
57.23
56.55
56.17
56.29
57.02
58.2
59.51
60.53
60.83
60.12
58.33
55.59
52.21
48.52
44.79
41.07
37.15
32.79
27.81
22.29
16.55
10.95
5.69
0.67
-4.47
-10.13
-16.49
-23.45
-30.62
-37.53
-43.81
-49.37
-54.48
-59.64
-65.57
-72.94
-82.15
-93.02
-104.57
-115.0
-122.06
-123.6
-118.32
-106.2
-88.56
-67.62
-45.84
-25.26
-7.12
8.19
20.8
31.08
39.37
45.89
50.8
54.3
56.64
58.1
58.92
59.26
59.24
58.97
58.61
58.42
58.63
59.32
60.41
61.53
62.24
62.13
61.0
58.83
55.81
52.2
48.17
43.82
39.15
34.11
28.74
23.13
17.46
11.93
6.69
1.72
-3.14
-8.11
-13.42
-19.12
-25.08
-31.04
-36.71
-41.95
-46.8
-51.56
-56.67
-62.69
-70.09
-79.01
-88.96
-98.62
-105.93
-108.54
-104.63
-93.61
-76.48
-55.61
-33.91
-13.9
3.0
16.52
27.14
35.48
41.88
46.37
48.86
49.48
48.7
47.23
45.78
44.82
44.53
44.81
45.42
46.08
46.59
46.84
46.82
46.59
46.24
45.75
44.94
43.51
41.14
37.65
33.11
27.81
22.17
16.6
11.36
6.55
2.03
-2.47
-7.31
-12.79
-19.01
-25.78
-32.67
-39.2
-44.99
-50.04
-54.68
-59.47
-65.1
-72.12
-80.8
-90.94
-101.66
-111.36
-117.95
-119.29
-114.01
-101.99
-84.53
-63.95
-42.83
-23.24
-6.3
7.78
19.34
28.85
36.64
42.85
47.53
50.77
52.8
53.91
54.46
54.72
54.89
55.03
55.15
55.21
55.27
55.4
55.71
56.18
56.56
56.5
55.56
53.52
50.48
46.75
42.69
38.54
34.23
29.55
24.36
18.71
12.96
7.53
2.73
-1.48
-5.43
-9.63
-14.5
-20.24
-26.73
-33.63
-40.47
-46.81
-52.39
-57.27
-61.87
-66.94
-73.36
-81.78
-92.31
-104.2
-115.81
-124.86
-128.95
-126.3
-116.26
-99.65
-78.52
-55.56
-33.36
-13.7
2.7
16.04
26.99
36.21
44.04
50.51
55.48
58.95
61.1
62.27
62.83
63.01
62.91
62.55
61.99
61.4
61.0
60.99
61.33
61.81
61.99
61.44
59.82
57.04
53.28
48.95
44.51
40.35
36.58
33.03
29.29
24.95
19.89
14.29
8.64
3.4
-1.21
-5.39
-9.69
-14.68
-20.67
-27.55
-34.82
-41.86
-48.22
-53.74
-58.66
-63.47
-68.83
-75.38
-83.62
-93.58
-104.66
-115.44
-123.81
-127.46
-124.6
-114.57
-98.2
-77.55
-55.3
-33.97
-15.25
0.18
12.52
22.41
30.55
37.37
42.94
47.12
49.77
50.91
50.87
50.14
49.28
48.64
48.41
48.53
48.93
49.55
50.42
51.51
52.65
53.52
53.73
52.97
51.15
48.34
44.76
40.64
36.18
31.54
26.89
22.34
17.92
13.49
8.76
3.41
-2.73
-9.54
-16.61
-23.4
-29.44
-34.59
-39.08
-43.46
-48.43
-54.64
-62.61
-72.47
-83.87
-95.76
-106.45
-113.75
-115.54
-110.44
-98.29
-80.39
-59.12
-37.19
-16.94
0.34
14.35
25.58
34.73
42.28
48.38
52.95
55.97
57.66
58.48
58.96
59.47
60.07
60.59
60.85
60.83
60.72
60.82
61.29
61.98
62.47
62.27
61.03
58.7
55.51
51.77
47.69
43.3
38.55
33.34
27.68
21.73
15.72
9.86
4.26
-1.11
-6.48
-12.2
-18.56
-25.69
-33.41
-41.25
-48.62
-55.12
-60.78
-66.05
-71.7
-78.59
-87.27
-97.8
-109.48
-120.86
-129.86
-134.17
-131.91
-122.26
-105.82
-84.49
-60.97
-37.87
-17.08
0.56
15.14
27.2
37.31
45.8
52.74
58.11
61.89
64.24
65.44
65.82
65.69
65.33
64.93
64.7
64.78
65.28
66.18
67.32
68.36
68.91
68.56
67.04
64.31
60.6
56.33
51.95
47.75
43.73
39.59
34.95
29.55
23.45
17.1
11.01
5.56
0.76
-3.76
-8.56
-14.17
-20.82
-28.43
-36.62
-44.82
-52.53
-59.45
-65.66
-71.69
-78.46
-86.93
-97.6
-110.0
-122.54
-132.72
-137.78
-135.64
-125.6
-108.54
-86.72
-62.95
-39.87
-19.25
-1.83
12.51
24.32
34.18
42.4
49.01
53.92
57.17
58.99
59.82
60.16
60.4
60.72
61.09
61.43
61.72
62.0
62.37
62.82
63.22
63.28
62.73
61.41
59.25
56.33
52.76
48.63
44.03
39.1
34.02
29.02
24.27
19.79
15.42
10.85
5.78
-0.03
-6.52
-13.4
-20.2
-26.44
-31.83
-36.4
-40.57
-45.02
-50.55
-57.81
-67.07
-77.96
-89.4
-99.58
-106.32
-107.54
-101.97
-89.51
-71.46
-50.14
-28.2
-7.87
9.58
23.88
35.48
44.95
52.67
58.66
62.77
64.96
65.51
64.97
63.99
63.03
62.31
61.83
61.53
61.47
61.74
62.38
63.28
64.05
64.28
63.59
61.84
59.14
55.73
51.82
47.55
42.92
37.84
32.28
26.25
19.87
13.37
7.02
1.04
-4.53
-9.85
-15.31
-21.3
-28.08
-35.55
-43.28
-50.68
-57.29
-63.03
-68.27
-73.76
-80.38
-88.8
-99.17
-110.82
-122.21
-131.05
-134.88
-131.78
-121.08
-103.66
-81.75
-58.13
-35.34
-14.93
2.58
17.37
29.81
40.1
48.28
54.37
58.65
61.57
63.65
65.22
66.36
66.93
66.84
66.18
65.18
64.21
63.56
63.41
63.69
64.22
64.57
64.29
62.98
60.43
56.81
52.54
48.14
43.99
40.12
36.29
32.13
27.34
21.83
15.79
9.46
3.16
-2.95
-8.81
-14.51
-20.26
-26.34
-32.97
-40.18
-47.65
-54.88
-61.25
-66.38
-70.3
-73.5
-76.82
-81.18
-87.32
-95.54
-105.44
-115.85
-124.81
-130.01
-129.38
-121.81
-107.54
-88.17
-66.16
-44.01
-23.62
-5.94
8.91
21.25
31.52
40.0
46.82
52.01
55.65
57.83
58.8
58.83
58.3
57.53
56.82
56.38
56.35
56.82
57.87
59.46
61.35
63.1
64.09
63.77
61.86
58.49
54.21
49.65
45.33
41.35
37.45
33.12
27.95
21.83
14.95
7.77
0.73
-5.88
-12.07
-18.07
-24.25
-31.02
-38.63
-47.13
-56.21
-65.36
-74.01
-81.77
-88.67
-95.15
-101.95
-109.77
-118.91
-128.9
-138.39
-145.16
-146.65
-140.61
-125.86
-102.9
-73.88
-42.02
-10.67
17.6
41.46
60.78
76.06
87.86
96.48
102.03
104.63
104.65
102.75
99.67
96.09
92.46
89.03
85.99
83.47
81.6
80.39
79.66
79.08
78.17
76.52
73.92
70.39
66.12
61.35
56.25
50.94
45.41
39.65
33.69
27.59
21.43
15.28
9.19
3.12
-3.03
-9.42
-16.18
-23.32
-30.63
-37.77
-44.37
-50.24
-55.54
-60.78
-66.73
-74.14
-83.43
-94.41
-106.1
-116.68
-123.88
-125.48
-120.06
-107.52
-89.21
-67.49
-45.07
-24.16
-6.04
8.94
21.14
31.11
39.3
45.99
51.29
55.31
58.22
60.19
61.38
61.93
61.88
61.36
60.56
59.78
59.36
59.53
60.32
61.44
62.39
62.55
61.47
58.95
55.18
50.65
45.96
41.56
37.56
33.74
29.66
24.92
19.44
13.49
7.56
2.07
-2.82
-7.34
-11.9
-16.92
-22.61
-28.92
-35.59
-42.29
-48.77
-54.88
-60.64
-66.28
-72.34
-79.47
-88.22
-98.61
-109.7
-119.6
-125.84
-126.12
-119.17
-105.21
-85.91
-63.73
-41.19
-20.14
-1.56
14.32
27.64
38.64
47.46
54.22
59.06
62.19
63.9
64.59
64.6
64.23
63.7
63.06
62.38
61.71
61.18
60.98
61.17
61.61
61.91
61.58
60.17
57.52
53.78
49.36
44.74
40.27
36.05
31.91
27.47
22.37
16.47
9.96
3.39
-2.62
-7.65
-11.67
-15.17
-18.86
-23.41
-29.1
-35.75
-42.79
-49.56
-55.56
-60.71
-65.29
-69.91
-75.3
-82.11
-90.69
-100.88
-111.74
-121.61
-128.3
-129.64
-124.14
-111.56
-93.12
-71.14
-48.36
-27.17
-8.99
5.76
17.4
26.58
33.79
39.32
43.26
45.7
46.92
47.31
47.34
47.39
47.61
48.01
48.48
48.95
49.48
50.18
51.09
52.12
53.0
53.35
52.83
51.28
48.66
45.06
40.66
35.64
30.22
24.69
19.29
14.19
9.34
4.5
-0.71
-6.55
-13.07
-20.02
-26.95
-33.41
-39.14
-44.16
-48.75
-53.45
-58.89
-65.72
-74.37
-84.81
-96.26
-107.08
-115.07
-117.95
-114.18
-103.44
-86.81
-66.41
-44.7
-23.83
-5.17
10.74
23.97
34.85
43.67
50.6
55.68
58.95
60.65
61.15
61.02
60.72
60.58
60.65
60.82
60.99
61.15
61.41
61.87
62.47
63.0
63.05
62.31
60.61
58.02
54.78
51.11
47.19
43.03
38.52
33.49
27.86
21.77
15.58
9.76
4.76
0.69
-2.77
-6.31
-10.71
-16.46
-23.61
-31.68
-39.93
-47.67
-54.53
-60.57
-66.24
-72.22
-79.27
-87.99
-98.5
-110.15
-121.32
-129.64
-132.57
-128.23
-116.14
-97.51
-74.84
-51.08
-28.77
-9.37
6.72
19.84
30.58
39.42
46.61
52.27
56.54
59.64
61.82
63.28
64.13
64.38
64.04
63.21
62.08
60.98
60.21
60.0
60.32
60.91
61.37
61.25
60.21
58.16
55.21
51.65
47.85
44.04
40.32
36.57
32.55
28.01
22.85
17.23
11.51
6.12
1.36
-2.8
-6.72
-10.94
-15.9
-21.82
-28.5
-35.48
-42.21
-48.24
-53.48
-58.22
-63.12
-69.04
-76.81
-86.88
-98.98
-111.85
-123.29
-130.61
-131.39
-124.34
-109.8
-89.67
-66.75
-43.89
-23.14
-5.45
9.15
21.13
30.92
38.76
44.76
49.07
51.96
53.8
54.97
55.67
55.96
55.87
55.49
55.02
54.72
54.78
55.21
55.85
56.45
56.8
56.74
56.19
55.01
53.04
50.1
46.11
41.25
35.86
30.41
25.29
20.61
16.23
11.77
6.87
1.29
-4.96
-11.62
-18.31
-24.66
-30.46
-35.7
-40.63
-45.66
-51.33
-58.18
-66.59
-76.56
-87.43
-97.69
-105.15
-107.53
-103.15
-91.71
-74.43
-53.7
-32.29
-12.4
4.79
19.16
31.12
41.14
49.36
55.68
60.01
62.49
63.52
63.68
63.45
63.13
62.84
62.61
62.45
62.43
62.57
62.9
63.32
63.66
63.64
62.95
61.33
58.66
55.08
50.91
46.56
42.34
38.32
34.29
29.95
25.11
19.8
14.3
8.88
3.69
-1.4
-6.71
-12.59
-19.22
-26.52
-34.17
-41.71
-48.75
-55.05
-60.71
-66.15
-72.11
-79.4
-88.62
-99.8
-112.08
-123.69
-132.16
-135.04
-130.6
-118.49
-99.91
-77.37
-53.78
-31.69
-12.63
3.09
16.0
26.94
36.47
44.73
51.52
56.64
60.12
62.32
63.72
64.7
65.35
65.56
65.17
64.28
63.26
62.67
62.95
64.2
66.05
67.84
68.81
68.42
66.46
63.09
58.73
53.95
49.26
45.05
41.39
38.07
34.68
30.82
26.27
21.16
15.87
10.8
6.2
1.98
-2.17
-6.65
-11.79
-17.65
-24.15
-31.06
-38.09
-44.93
-51.33
-57.15
-62.57
-68.09
-74.47
-82.46
-92.45
-104.09
-116.13
-126.56
-133.02
-133.45
-126.7
-112.99
-93.85
-71.72
-49.24
-28.52
-10.7
4.03
16.13
26.15
34.49
41.28
46.58
50.54
53.47
55.68
57.36
58.49
58.97
58.76
58.05
57.23
56.73
56.78
57.36
58.17
58.77
58.74
57.81
55.85
52.91
49.17
44.96
40.57
36.22
31.95
27.58
22.87
17.66
12.01
6.22
0.65
-4.42
-9.01
-13.42
-18.12
-23.46
-29.5
-35.89
-42.08
-47.52
-51.94
-55.57
-58.99
-63.02
-68.46
-75.81
-84.99
-95.2
-104.83
-111.73
-113.76
-109.33
-98.08
-81.0
-60.22
-38.36
-17.76
0.05
14.59
26.1
35.19
42.39
47.92
51.8
54.05
54.87
54.72
54.22
53.88
53.96
54.39
54.97
55.5
55.96
56.5
57.24
58.12
58.81
58.87
57.94
55.9
52.93
49.36
45.5
41.47
37.17
32.4
27.04
21.16
15.09
9.28
4.05
-0.53
-4.69
-8.98
-13.91
-19.8
-26.59
-33.89
-41.11
-47.78
-53.67
-58.98
-64.21
-70.1
-77.41
-86.62
-97.62
-109.44
-120.2
-127.49
-128.96
-123.15
-110.08
-91.16
-68.88
-45.92
-24.5
-5.89
9.51
21.95
31.94
40.0
46.53
51.74
55.78
58.7
60.57
61.53
61.78
61.57
61.11
60.57
60.01
59.53
59.25
59.34
59.86
60.67
61.35
61.34
60.12
57.51
53.7
49.23
44.73
40.6
36.89
33.31
29.42
24.85
19.54
13.75
7.95
2.59
-2.07
-6.1
-9.92
-14.09
-19.15
-25.31
-32.37
-39.75
-46.74
-52.8
-57.81
-62.15
-66.56
-71.91
-78.96
-88.08
-99.05
-110.82
-121.49
-128.56
-129.59
-123.01
-108.75
-88.45
-64.96
-41.4
-20.18
-2.44
11.86
23.47
33.16
41.43
48.41
54.08
58.46
61.68
63.87
65.15
65.57
65.24
64.34
63.21
62.24
61.78
62.03
62.97
64.38
65.9
67.03
67.21
65.98
63.14
58.83
53.59
48.16
43.21
39.04
35.5
32.02
27.96
22.91
16.94
10.57
4.5
-0.72
-4.99
-8.66
-12.41
-16.91
-22.49
-29.03
-35.99
-42.7
-48.61
-53.62
-58.01
-62.43
-67.6
-74.18
-82.54
-92.62
-103.75
-114.5
-122.81
-126.34
-123.2
-112.6
-95.35
-73.6
-50.27
-28.07
-8.81
6.89
19.28
29.01
36.59
42.25
46.03
48.05
48.61
48.28
47.7
47.38
47.58
48.26
49.22
50.15
50.86
51.35
51.77
52.34
53.11
53.91
54.28
53.59
51.39
47.53
42.28
36.24
30.09
24.3
19.04
14.14
9.18
3.71
-2.59
-9.77
-17.53
-25.35
-32.67
-39.07
-44.53
-49.46
-54.6
-60.8
-68.79
-78.93
-90.96
-103.88
-115.9
-124.66
-127.73
-123.38
-111.18
-92.33
-69.31
-45.19
-22.64
-3.31
12.38
24.87
34.93
43.2
49.98
55.34
59.27
61.86
63.29
63.82
63.76
63.35
62.89
62.57
62.6
63.08
63.99
65.2
66.48
67.45
67.72
66.91
64.75
61.27
56.75
51.67
46.52
41.58
36.85
32.07
26.95
21.36
15.39
9.34
3.45
-2.24
-7.92
-13.9
-20.45
-27.51
-34.81
-41.89
-48.36
-54.15
-59.53
-65.12
-71.74
-80.16
-90.82
-103.42
-116.69
-128.4
-135.79
-136.3
-128.52
-112.69
-90.78
-65.81
-40.92
-18.52
0.25
15.4
27.6
37.66
46.15
53.27
59.05
63.47
66.64
68.77
70.08
70.74
70.81
70.36
69.6
68.86
68.57
69.01
70.12
71.46
72.31
71.99
70.12
66.81
62.51
57.81
53.17
48.85
44.8
40.78
36.52
31.69
26.15
19.94
13.35
6.85
0.89
-4.36
-9.05
-13.69
-18.87
-24.98
-31.98
-39.42
-46.68
-53.25
-59.02
-64.31
-69.81
-76.32
-84.51
-94.59
-106.1
-117.74
-127.46
-132.8
-131.61
-122.72
-106.5
-84.81
-60.54
-36.64
-15.28
2.53
16.91
28.53
38.09
45.98
52.21
56.69
59.42
60.63
60.74
60.2
59.38
58.48
57.55
56.62
55.75
55.03
54.59
54.47
54.56
54.61
54.32
53.39
51.74
49.39
46.49
43.12
39.3
35.04
30.39
25.49
20.52
15.59
10.63
5.42
-0.26
-6.44
-12.9
-19.26
-25.17
-30.51
-35.42
-40.26
-45.42
-51.32
-58.34
-66.77
-76.57
-87.1
-96.96
-104.04
-106.17
-101.75
-90.47
-73.46
-52.9
-31.37
-11.04
6.71
21.44
33.25
42.51
49.54
54.52
57.58
58.89
58.79
57.77
56.36
55.07
54.25
54.08
54.45
55.14
55.83
56.25
56.23
55.75
54.85
53.52
51.65
49.06
45.59
41.23
36.23
30.94
25.74
20.86
16.26
11.72
6.89
1.51
-4.56
-11.22
-18.18
-25.03
-31.36
-36.96
-41.92
-46.58
-51.48
-57.23
-64.37
-73.29
-84.0
-96.0
-108.01
-118.01
-123.62
-122.81
-114.64
-99.67
-79.92
-58.05
-36.61
-17.27
-0.69
13.29
25.15
35.32
43.97
51.03
56.41
60.09
62.23
63.13
63.23
62.92
62.44
61.89
61.24
60.52
59.94
59.83
60.44
61.72
63.2
64.14
63.82
61.87
58.46
54.16
49.67
45.49
41.73
38.17
34.36
29.96
24.85
19.19
13.4
7.86
2.87
-1.58
-5.76
-10.11
-15.03
-20.75
-27.2
-34.0
-40.69
-46.88
-52.43
-57.54
-62.69
-68.5
-75.52
-84.1
-94.15
-104.91
-114.89
-122.04
-124.24
-119.9
-108.65
-91.51
-70.62
-48.55
-27.5
-8.81
7.16
20.64
32.06
41.72
49.66
55.82
60.21
62.99
64.47
65.03
64.99
64.54
63.74
62.6
61.22
59.84
58.83
58.45
58.79
59.55
60.16
59.97
58.55
55.82
52.12
47.93
43.73
39.79
36.07
32.35
28.37
23.89
18.81
13.22
7.38
1.73
-3.26
-7.3
-10.42
-13.09
-16.02
-19.95
-25.21
-31.64
-38.66
-45.52
-51.67
-56.95
-61.58
-66.11
-71.27
-77.8
-86.28
-96.76
-108.44
-119.59
-127.7
-130.29
-125.7
-113.75
-95.82
-74.42
-52.26
-31.54
-13.48
1.6
14.03
24.32
32.88
39.93
45.53
49.7
52.5
54.14
54.9
55.15
55.18
55.15
55.07
54.85
54.49
54.08
53.8
53.79
54.02
54.25
54.06
53.03
50.91
47.68
43.54
38.78
33.66
28.34
22.88
17.34
11.77
6.25
0.82
-4.57
-10.05
-15.76
-21.73
-27.87
-33.96
-39.74
-45.03
-49.89
-54.62
-59.78
-66.07
-74.04
-83.89
-95.08
-106.29
-115.53
-120.56
-119.57
-111.77
-97.7
-79.06
-58.23
-37.51
-18.54
-2.04
11.99
23.9
34.04
42.46
49.11
53.93
57.13
59.18
60.62
61.84
62.97
63.88
64.36
64.38
64.11
63.89
64.02
64.58
65.38
65.97
65.84
64.6
62.14
58.61
54.41
50.0
45.75
41.77
37.92
33.89
29.42
24.45
19.19
13.98
9.15
4.75
0.62
-3.58
-8.24
-13.57
-19.64
-26.31
-33.34
-40.4
-47.18
-53.48
-59.28
-64.92
-70.97
-78.16
-87.02
-97.52
-108.77
-119.04
-126.0
-127.41
-121.86
-109.26
-90.95
-69.29
-46.89
-25.88
-7.47
8.03
20.92
31.66
40.63
48.04
54.05
58.8
62.51
65.34
67.36
68.6
69.06
68.81
68.08
67.19
66.51
66.31
66.69
67.53
68.48
69.08
68.86
67.45
64.73
60.81
56.08
51.05
46.21
41.86
37.98
34.29
30.38
25.88
20.7
15.05
9.32
3.93
-0.85
-5.01
-8.76
-12.47
-16.55
-21.34
-27.03
-33.58
-40.71
-47.96
-54.86
-61.08
-66.63
-71.89
-77.53
-84.34
-92.88
-103.17
-114.37
-124.78
-132.12
-134.16
-129.43
-117.77
-100.46
-79.76
-58.17
-37.76
-19.71
-4.37
8.41
18.89
27.26
33.59
37.97
40.66
42.05
42.64
42.88
43.16
43.74
44.78
46.31
48.25
50.44
52.62
54.56
56.06
57.0
57.33
57.01
55.98
54.17
51.5
47.97
43.65
38.66
33.23
27.61
22.05
16.71
11.65
6.74
1.71
-3.72
-9.75
-16.36
-23.26
-30.04
-36.36
-42.11
-47.48
-52.96
-59.16
-66.67
-75.89
-86.76
-98.51
-109.55
-117.69
-120.61
-116.66
-105.49
-88.3
-67.45
-45.72
-25.4
-7.8
6.82
18.85
28.89
37.36
44.38
49.93
54.0
56.7
58.26
59.02
59.36
59.55
59.81
60.2
60.72
61.36
62.15
63.18
64.45
65.78
66.78
66.95
65.91
63.54
60.12
56.15
52.12
48.3
44.61
40.72
36.25
31.0
25.09
18.88
12.84
7.3
2.29
-2.5
-7.62
-13.58
-20.64
-28.64
-37.03
-45.1
-52.27
-58.41
-63.88
-69.48
-76.17
-84.75
-95.47
-107.7
-119.82
-129.45
-133.97
-131.37
-120.93
-103.54
-81.47
-57.6
-34.53
-13.98
3.42
17.86
29.83
39.78
47.96
54.45
59.31
62.75
65.05
66.56
67.55
68.2
68.55
68.6
68.33
67.86
67.43
67.36
67.87
68.89
70.02
70.62
70.05
67.96
64.43
59.92
55.05
50.34
45.97
41.77
37.34
32.37
26.77
20.75
14.74
9.1
4.01
-0.67
-5.31
-10.38
-16.25
-23.06
-30.65
-38.56
-46.24
-53.16
-59.1
-64.25
-69.26
-75.05
-82.52
-92.12
-103.59
-115.72
-126.54
-133.66
-134.83
-128.64
-114.97
-95.14
-71.6
-47.24
-24.63
-5.36
10.15
22.4
32.25
40.43
47.25
52.67
56.55
58.91
59.99
60.19
59.94
59.48
58.95
58.39
57.91
57.65
57.71
58.11
58.68
59.13
59.14
58.45
56.95
54.63
51.56
47.81
43.45
38.56
33.24
27.63
21.94
16.38
11.11
6.17
1.38
-3.55
-8.92
-14.79
-20.97
-26.99
-32.35
-36.81
-40.57
-44.24
-48.7
-54.78
-63.02
-73.36
-85.06
-96.61
-105.9
-110.65
-109.0
-100.16
-84.76
-64.75
-42.8
-21.47
-2.6
13.07
25.64
35.63
43.5
49.49
53.68
56.12
57.09
57.04
56.5
55.97
55.71
55.81
56.17
56.67
57.22
57.71
58.08
58.22
57.95
57.04
55.32
52.64
49.01
44.54
39.44
33.97
28.39
22.92
17.72
12.86
8.22
3.57
-1.48
-7.29
-14.02
-21.54
-29.39
-37.0
-43.81
-49.64
-54.66
-59.49
-64.95
-71.9
-80.96
-92.18
-104.84
-117.32
-127.3
-132.28
-130.32
-120.69
-104.13
-82.7
-59.11
-35.96
-15.15
2.41
16.65
28.03
37.16
44.49
50.29
54.71
57.88
60.03
61.46
62.45
63.19
63.7
63.99
64.03
63.97
63.98
64.19
64.55
64.85
64.82
64.21
62.93
60.93
58.14
54.4
49.61
43.82
37.33
30.68
24.4
18.83
13.89
9.18
4.14
-1.65
-8.24
-15.33
-22.4
-28.95
-34.78
-40.02
-45.16
-50.83
-57.67
-66.13
-76.38
-88.09
-100.23
-111.1
-118.52
-120.38
-115.34
-103.29
-85.54
-64.44
-42.61
-22.25
-4.64
9.94
21.9
31.92
40.49
47.8
53.71
58.01
60.67
61.89
62.16
61.99
61.75
61.52
61.15
60.48
59.45
58.29
57.3
56.76
56.66
56.68
56.32
55.04
52.48
48.57
43.56
37.91
32.17
26.75
21.82
17.23
12.57
7.4
1.42
-5.28
-12.28
-18.99
-24.92
-29.94
-34.33
-38.66
-43.61
-49.76
-57.49
-66.88
-77.55
-88.52
-98.18
-104.5
-105.55
-100.2
-88.59
-72.13
-53.09
-33.77
-15.87
-0.13
13.44
25.14
35.1
43.12
48.83
52.01
52.86
52.01
50.36
48.77
47.77
47.47
47.65
47.99
48.27
48.45
48.6
48.76
48.78
48.3
46.91
44.28
40.42
35.63
30.45
25.36
20.57
15.97
11.14
5.66
-0.7
-7.77
-15.07
-21.98
-28.05
-33.18
-37.73
-42.39
-47.98
-55.14
-64.08
-74.37
-84.88
-93.9
-99.46
-99.87
-94.21
-82.71
-66.7
-48.21
-29.39
-11.86
3.57
16.86
28.37
38.48
47.26
54.54
59.99
63.44
65.0
65.05
64.18
62.91
61.65
60.63
59.96
59.64
59.67
59.98
60.39
60.63
60.39
59.42
57.58
54.86
51.43
47.47
43.22
38.86
34.5
30.16
25.77
21.21
16.36
11.19
5.78
0.27
-5.19
-10.57
-15.91
-21.29
-26.7
-32.06
-37.22
-42.11
-46.87
-51.81
-57.35
-63.95
-71.83
-80.9
-90.5
-99.42
-106.0
-108.5
-105.68
-97.23
-83.94
-67.44
-49.66
-32.22
-16.1
-1.63
11.25
22.66
32.59
40.94
47.64
52.75
56.45
59.03
60.76
61.9
62.62
63.07
63.29
63.3
63.12
62.8
62.38
61.93
61.39
60.63
59.43
57.62
55.16
52.21
49.03
45.84
42.74
39.61
36.3
32.67
28.76
24.74
20.87
17.33
14.15
11.15
8.1
4.77
1.11
-2.78
-6.66
-10.35
-13.77
-17.03
-20.35
-23.99
-28.14
-32.8
-37.79
-42.81
-47.53
-51.74
-55.4
-58.69
-62.0
-65.8
-70.54
-76.43
-83.3
-90.43
-96.62
-100.3
-100.05
-95.04
-85.36
-72.07
-56.88
-41.59
-27.56
-15.48
-5.35
3.13
10.29
16.32
21.2
24.92
27.46
28.93
29.57
29.65
29.48
29.3
29.21
29.24
29.35
29.59
30.03
30.82
31.95
33.16
33.96
33.85
