0
4.45
0.54
-3.52
-7.38
-10.77
-13.58
-15.95
-18.19
-20.76
-24.07
-28.39
-33.69
-39.58
-45.22
-49.47
-51.15
-49.34
-43.84
-35.19
-24.54
-13.29
-2.64
6.63
14.23
20.12
24.42
27.27
28.82
29.29
28.95
28.1
27.02
25.97
25.15
24.66
24.49
24.53
24.6
24.57
24.41
24.2
24.07
23.98
23.74
22.99
21.43
18.93
15.57
11.65
7.5
3.43
-0.37
-3.82
-6.93
-9.82
-12.65
-15.58
-18.67
-21.86
-25.04
-28.14
-31.15
-34.2
-37.5
-41.23
-45.51
-50.31
-55.38
-60.17
-63.85
-65.42
-64.01
-59.22
-51.22
-40.76
-28.95
-16.93
-5.6
4.43
12.83
19.49
24.49
28.0
30.32
31.73
32.47
32.72
32.59
32.26
31.94
31.83
32.04
32.52
33.07
33.45
33.45
32.94
31.91
30.43
28.56
26.36
23.84
21.0
17.84
14.38
10.7
6.96
3.33
-0.09
-3.31
-6.47
-9.79
-13.49
-17.59
-21.98
-26.46
-30.83
-35.05
-39.15
-43.32
-47.73
-52.54
-57.91
-64.01
-70.87
-78.22
-85.34
-91.08
-94.17
-93.64
-89.19
-81.36
-71.32
-60.52
-50.23
-41.34
-34.25
-29.01
-25.44
-23.26
-22.15
-21.73
-21.53
-21.03
-19.67
-16.92
-12.37
-5.91
2.28
11.83
22.27
33.17
44.22
55.02
65.07
73.67
80.09
83.83
84.79
83.29
79.94
75.42
70.19
64.57
58.74
52.84
47.01
41.34
35.81
30.31
24.7
18.92
13.07
7.34
2.0
-2.74
-6.81
-10.32
-13.59
-17.12
-21.42
-26.9
-33.61
-41.1
-48.45
-54.45
-57.87
-57.78
-53.78
-46.1
-35.53
-23.37
-11.0
0.42
10.19
18.14
24.52
29.68
33.83
37.0
39.08
40.02
40.01
39.35
38.39
37.48
36.81
36.51
36.67
37.3
38.32
39.5
40.54
41.13
41.02
40.01
38.02
35.08
31.3
27.0
22.57
18.44
14.85
11.8
8.98
5.97
2.41
-1.8
-6.43
-11.03
-15.11
-18.34
-20.73
-22.62
-24.63
-27.44
-31.51
-36.9
-43.07
-48.99
-53.36
-54.92
-52.84
-46.89
-37.51
-25.73
-12.9
-0.44
10.5
19.23
25.61
29.94
32.73
34.43
35.23
35.19
34.31
32.79
31.06
29.66
28.99
29.11
29.76
30.49
30.87
30.77
30.28
29.62
28.92
28.12
26.92
24.96
22.04
18.22
13.87
9.53
5.62
2.3
-0.6
-3.47
-6.7
-10.46
-14.62
-18.88
-22.89
-26.43
-29.5
-32.21
-34.8
-37.53
-40.72
-44.67
-49.54
-55.2
-61.08
-66.18
-69.24
-69.1
-65.06
-57.16
-46.17
-33.38
-20.24
-8.01
2.55
11.16
18.01
23.41
27.67
30.9
33.13
34.34
34.73
34.64
34.49
34.64
35.18
35.98
36.79
37.34
37.55
37.49
37.33
37.12
36.82
36.2
34.92
32.78
29.69
25.83
21.54
17.19
13.1
9.48
6.37
3.67
1.17
-1.4
-4.35
-7.92
-12.18
-16.97
-21.93
-26.6
-30.63
-33.96
-36.84
-39.83
-43.51
-48.32
-54.29
-60.94
-67.32
-72.14
-74.04
-72.02
-65.7
-55.55
-42.78
-29.01
-15.77
-4.14
5.39
12.85
18.53
22.71
25.65
27.54
28.58
29.04
29.15
29.08
28.86
28.52
28.05
27.55
27.18
27.06
27.24
27.62
28.01
28.15
27.83
26.89
25.28
23.03
20.2
16.9
13.24
9.4
5.57
1.96
-1.22
-3.95
-6.33
-8.61
-11.09
-13.95
-17.18
-20.57
-23.8
-26.59
-28.85
-30.69
-32.41
-34.38
-36.97
-40.48
-45.0
-50.36
-55.99
-60.91
-63.84
-63.63
-59.51
-51.47
-40.25
-27.15
-13.64
-0.92
10.22
19.49
26.92
32.63
36.77
39.39
40.61
40.64
39.85
38.72
37.68
37.03
36.83
36.99
37.37
37.89
38.54
39.3
40.0
40.34
39.93
38.46
35.86
32.26
28.01
23.49
19.04
14.88
11.09
7.63
4.36
1.12
-2.21
-5.65
-9.11
-12.47
-15.63
-18.63
-21.61
-24.84
-28.63
-33.22
-38.63
-44.47
-49.92
-53.82
-54.99
-52.65
-46.72
-37.83
-27.08
-15.69
-4.62
5.49
14.3
21.58
27.19
31.02
33.14
33.77
33.31
32.18
30.78
29.48
28.52
28.09
28.22
28.77
29.46
29.98
30.15
29.91
29.35
28.55
27.48
26.02
23.98
21.26
17.9
14.11
10.2
6.44
2.95
-0.31
-3.52
-6.92
-10.63
-14.64
-18.77
-22.73
-26.29
-29.37
-32.05
-34.6
-37.38
-40.76
-45.05
-50.32
-56.25
-62.05
-66.47
-68.14
-65.99
-59.67
-49.71
-37.38
-24.22
-11.63
-0.47
8.86
16.39
22.32
26.86
30.15
32.36
33.61
34.09
33.98
33.51
32.89
32.34
31.95
31.8
31.86
32.11
32.49
32.94
33.29
33.31
32.74
31.36
29.13
26.15
22.62
18.78
14.83
10.93
7.25
3.9
0.91
-1.86
-4.66
-7.78
-11.41
-15.5
-19.81
-23.99
-27.79
-31.15
-34.23
-37.35
-40.9
-45.21
-50.41
-56.31
-62.24
-67.13
-69.7
-68.8
-63.82
-54.91
-43.0
-29.47
-15.84
-3.29
7.41
16.02
22.63
27.48
30.86
33.05
34.3
34.9
35.14
35.23
35.33
35.46
35.54
35.51
35.31
34.96
34.48
33.85
33.01
31.88
30.4
28.59
26.49
24.11
21.38
18.2
14.51
10.41
6.11
1.99
-1.68
-4.74
-7.31
-9.64
-12.1
-14.93
-18.23
-21.88
-25.65
-29.28
-32.59
-35.58
-38.4
-41.31
-44.63
-48.64
-53.45
-58.9
-64.41
-69.01
-71.43
-70.55
-65.71
-56.99
-45.25
-31.9
-18.39
-5.93
4.73
13.35
19.98
24.78
28.0
29.87
30.69
30.8
30.57
30.34
30.36
30.76
31.49
32.43
33.38
34.17
34.72
35.06
35.24
35.31
35.16
34.62
33.44
31.49
28.82
25.63
22.28
19.06
16.14
13.54
11.13
8.7
6.06
3.1
-0.12
-3.38
-6.43
-9.08
-11.31
-13.32
-15.5
-18.24
-21.82
-26.29
-31.45
-36.83
-41.67
-45.0
-45.83
-43.37
-37.35
-28.2
-16.98
-5.06
6.23
15.99
23.85
29.8
34.05
36.79
38.14
38.21
37.2
35.42
33.31
31.3
29.72
28.73
28.35
28.49
29.02
29.76
30.56
31.19
31.44
31.0
29.58
27.04
23.39
18.92
14.08
9.37
5.14
1.53
-1.58
-4.44
-7.34
-10.53
-14.12
-18.1
-22.33
-26.62
-30.74
-34.51
-37.9
-41.08
-44.39
-48.22
-52.82
-58.05
-63.27
-67.38
-69.09
-67.3
-61.52
-52.04
-39.94
-26.68
-13.71
-2.03
7.87
15.92
22.26
27.01
30.27
32.18
32.97
33.06
32.9
32.88
33.16
33.69
34.25
34.58
34.55
34.19
33.66
33.17
32.82
32.52
32.0
30.89
28.92
26.01
22.34
18.25
14.09
10.15
6.49
3.03
-0.43
-4.07
-8.01
-12.2
-16.5
-20.7
-24.54
-27.89
-30.79
-33.47
-36.33
-39.82
-44.3
-49.82
-55.98
-61.93
-66.46
-68.27
-66.34
-60.33
-50.68
-38.53
-25.37
-12.62
-1.19
8.57
16.71
23.4
28.71
32.59
34.97
35.94
35.83
35.11
34.29
33.69
33.45
33.54
33.82
34.14
34.39
34.52
34.52
34.4
34.1
33.39
31.98
29.58
26.13
21.85
17.25
12.89
9.13
6.0
3.23
0.4
-2.83
-6.57
-10.76
-15.15
-19.47
-23.4
-26.73
-29.41
-31.64
-33.84
-36.59
-40.39
-45.48
-51.61
-58.02
-63.51
-66.72
-66.42
-61.94
-53.36
-41.59
-28.14
-14.68
-2.56
7.47
15.32
21.3
25.84
29.25
31.66
33.17
33.88
34.05
33.97
33.91
33.99
34.21
34.42
34.47
34.29
33.91
33.51
33.23
33.05
32.82
32.14
30.62
27.96
24.2
19.65
14.81
10.21
6.19
2.81
-0.12
-2.9
-5.85
-9.18
-12.92
-16.95
-21.05
-25.03
-28.72
-32.07
-35.11
-38.0
-41.03
-44.59
-49.12
-54.76
-61.19
-67.44
-72.05
-73.46
-70.6
-63.32
-52.46
-39.51
-26.06
-13.36
-2.13
7.34
14.94
20.67
24.59
26.89
27.97
28.33
28.45
28.65
29.1
29.81
30.71
31.73
32.74
33.58
34.16
34.42
34.38
34.08
33.53
32.67
31.36
29.45
26.84
23.61
19.95
16.21
12.75
9.79
7.33
5.11
2.74
-0.02
-3.15
-6.32
-9.15
-11.37
-13.03
-14.52
-16.35
-18.92
-22.4
-26.78
-31.81
-37.07
-41.86
-45.19
-45.99
-43.38
-37.12
-27.75
-16.49
-4.81
6.0
15.15
22.38
27.75
31.45
33.65
34.5
34.18
33.03
31.46
29.89
28.68
28.06
28.1
28.67
29.55
30.48
31.26
31.79
32.03
31.97
31.49
30.39
28.46
25.62
22.02
17.98
13.95
10.29
7.18
4.5
1.94
-0.89
-4.28
-8.33
-12.86
-17.5
-21.9
-25.84
-29.34
-32.69
-36.3
-40.53
-45.47
-50.88
-56.09
-60.18
-62.02
-60.68
-55.66
-47.15
-36.05
-23.75
-11.68
-0.95
7.91
14.93
20.37
24.48
27.37
29.05
29.59
29.24
28.47
27.74
27.4
27.56
28.13
28.9
29.67
30.27
30.6
30.58
30.23
29.57
28.67
27.56
26.19
24.41
22.1
19.15
15.66
11.82
7.93
4.21
0.73
-2.57
-5.85
-9.19
-12.62
-16.01
-19.23
-22.17
-24.88
-27.48
-30.2
-33.25
-36.84
-41.11
-46.01
-51.31
-56.41
-60.44
-62.37
-61.33
-56.81
-48.96
-38.53
-26.67
-14.68
-3.6
5.93
13.72
19.88
24.6
28.08
30.44
31.74
32.12
31.76
30.96
30.09
29.47
29.39
29.96
31.1
32.53
33.87
34.78
35.03
34.58
33.53
32.01
30.13
27.94
25.48
22.8
19.95
17.01
14.04
11.09
8.15
5.18
2.13
-1.07
-4.48
-8.07
-11.71
-15.21
-18.4
-21.24
-23.8
-26.3
-28.97
-32.02
-35.62
-39.92
-44.99
-50.69
-56.43
-61.26
-63.94
-63.38
-59.01
-51.02
-40.31
-28.22
-16.11
-5.05
4.32
11.8
17.54
21.86
25.05
27.34
28.83
29.56
29.63
29.25
28.7
28.26
28.11
28.28
28.74
29.42
30.29
31.24
32.11
32.62
32.49
31.53
29.72
27.22
24.26
21.06
17.79
14.54
11.35
8.14
4.83
1.37
-2.22
-5.79
-9.2
-12.32
-15.25
-18.2
-21.38
-24.85
-28.45
-31.87
-34.84
-37.31
-39.45
-41.63
-44.23
-47.58
-51.83
-56.89
-62.3
-67.19
-70.32
-70.42
-66.62
-58.84
-47.86
-35.12
-22.26
-10.58
-0.82
6.85
12.67
17.0
20.19
22.47
24.01
24.88
25.18
25.03
24.63
24.22
24.01
24.16
24.66
25.44
26.38
27.37
28.31
29.12
29.61
29.6
28.94
27.58
25.61
23.27
20.8
18.43
16.23
14.21
12.36
10.69
9.21
7.88
6.55
5.03
3.12
0.73
-1.99
-4.74
-7.17
-9.05
-10.42
-11.56
-12.93
-15.01
-18.16
-22.46
-27.7
-33.31
-38.38
-41.8
-42.48
-39.66
-33.21
-23.7
-12.37
-0.7
9.93
18.63
25.09
29.46
32.14
33.57
34.04
33.73
32.77
31.38
29.82
28.39
27.33
26.78
26.78
27.24
28.03
28.95
29.82
30.46
30.68
30.36
29.39
27.75
25.44
22.51
19.09
15.35
11.54
7.9
4.59
1.66
-0.91
-3.25
-5.55
-7.96
-10.63
-13.66
-17.01
-20.54
-23.99
-27.05
-29.54
-31.44
-32.99
-34.62
-36.81
-39.96
-44.24
-49.49
-55.08
-59.98
-62.93
-62.74
-58.66
-50.71
-39.71
-27.01
-14.15
-2.38
7.52
15.31
21.07
25.05
27.53
28.76
28.96
28.41
27.37
26.21
25.24
24.74
24.84
25.47
26.41
27.4
28.26
28.91
29.35
29.53
29.34
28.61
27.23
25.25
22.9
20.43
17.97
15.49
12.82
9.81
6.45
2.94
-0.44
-3.45
-6.02
-8.3
-10.56
-13.09
-16.06
-19.46
-23.1
-26.67
-29.91
-32.75
-35.31
-37.98
-41.17
-45.22
-50.12
-55.47
-60.43
-63.93
-64.86
-62.39
-56.22
-46.74
-34.94
-22.21
-9.95
0.8
9.55
16.29
21.34
25.03
27.58
29.07
29.61
29.36
28.67
27.97
27.62
27.79
28.45
29.46
30.6
31.69
32.63
33.35
33.79
33.89
33.58
32.8
31.5
29.69
27.42
24.81
21.94
18.85
15.52
11.91
8.06
4.09
0.2
-3.44
-6.77
-9.87
-12.91
-16.06
-19.32
-22.6
-25.74
-28.6
-31.19
-33.61
-36.02
-38.6
-41.57
-45.16
-49.54
-54.63
-59.95
-64.49
-66.93
-66.01
-61.07
-52.26
-40.63
-27.72
-15.09
-3.89
5.26
12.27
17.36
20.85
23.04
24.2
24.59
24.5
24.19
23.91
23.85
24.1
24.61
25.28
26.01
26.67
27.26
27.75
28.12
28.26
28.01
27.25
25.93
24.12
21.95
19.56
17.03
14.37
11.54
8.57
5.51
2.5
-0.31
-2.82
-5.02
-7.03
-9.03
-11.2
-13.61
-16.24
-18.97
-21.63
-24.14
-26.52
-28.89
-31.42
-34.27
-37.61
-41.57
-46.15
-51.02
-55.5
-58.52
-58.9
-55.77
-48.92
-38.91
-26.9
-14.3
-2.31
8.21
16.85
23.54
28.31
31.31
32.75
32.89
32.09
30.8
29.46
28.55
28.46
29.37
31.21
33.69
36.32
38.6
40.23
41.06
41.22
40.86
40.11
39.0
37.45
35.35
32.65
29.42
25.85
22.21
18.76
15.58
12.63
9.71
6.59
3.13
-0.65
-4.6
-8.43
-11.92
-14.94
-17.58
-20.09
-22.85
-26.22
-30.47
-35.64
-41.41
-47.07
-51.59
-53.85
-52.94
-48.44
-40.58
-30.24
-18.65
-7.17
3.13
11.61
18.07
22.69
25.74
27.53
28.29
28.24
27.63
26.74
25.89
25.34
25.2
25.46
25.97
26.61
27.24
27.78
28.13
28.22
28.0
27.47
26.64
25.51
23.99
21.92
19.2
15.86
12.16
8.44
4.99
1.92
-0.84
-3.48
-6.21
-9.13
-12.28
-15.59
-19.01
-22.4
-25.65
-28.68
-31.59
-34.66
-38.27
-42.79
-48.34
-54.66
-61.01
-66.34
-69.48
-69.45
-65.74
-58.42
-48.21
-36.23
-23.72
-11.77
-1.14
7.85
15.14
20.87
25.22
28.4
30.59
31.99
32.85
33.41
33.94
34.64
35.62
36.89
38.31
39.68
40.81
41.56
41.88
41.74
41.11
39.94
38.18
35.81
32.85
29.38
25.5
21.32
16.95
12.53
8.29
4.46
1.18
-1.53
-3.85
-6.1
-8.58
-11.49
-14.81
-18.34
-21.83
-25.1
-28.08
-30.89
-33.81
-37.21
-41.4
-46.55
-52.44
-58.41
-63.37
-66.01
-65.2
-60.35
-51.67
-40.08
-26.93
-13.63
-1.31
9.34
18.0
24.6
29.17
31.85
32.91
32.77
31.92
30.85
29.96
29.44
29.35
29.62
30.13
30.76
31.41
31.97
32.34
32.42
32.11
31.32
30.01
28.13
25.67
22.71
19.41
15.96
12.58
9.4
6.45
3.64
0.83
-2.07
-5.07
-8.12
-11.15
-14.18
-17.27
-20.5
-23.86
-27.19
-30.27
-32.95
-35.31
-37.59
-40.25
-43.67
-48.05
-53.28
-58.89
-64.09
-67.8
-68.87
-66.42
-60.09
-50.28
-38.01
-24.69
-11.67
0.08
10.02
17.98
23.99
28.13
30.5
31.31
30.89
29.73
28.38
27.34
26.98
27.47
28.75
30.54
32.48
34.24
35.62
36.61
37.29
37.77
38.05
37.98
37.3
35.79
33.34
30.06
26.21
22.23
18.51
15.33
12.73
10.49
8.27
5.73
2.72
-0.65
-4.07
-7.25
-10.07
-12.63
-15.3
-18.48
-22.48
-27.36
-32.84
-38.34
-42.99
-45.85
-46.05
-43.05
-36.8
-27.81
-17.0
-5.49
5.59
15.39
23.35
29.26
33.12
35.04
35.2
33.85
31.4
28.37
25.43
23.13
21.85
21.63
22.25
23.33
24.54
25.61
26.41
26.82
26.76
26.11
24.87
23.04
20.66
17.76
14.37
10.58
6.59
2.72
-0.74
-3.64
-6.1
-8.45
-11.07
-14.2
-17.81
-21.65
-25.29
-28.42
-30.93
-32.99
-35.04
-37.62
-41.19
-45.92
-51.52
-57.26
-62.03
-64.64
-64.09
-59.87
-52.12
-41.64
-29.59
-17.26
-5.71
4.4
12.81
19.5
24.62
28.26
30.53
31.62
31.78
31.33
30.61
29.88
29.26
28.83
28.63
28.7
29.09
29.75
30.51
31.15
31.47
31.34
30.74
29.7
28.17
26.12
23.48
20.28
16.66
12.85
9.04
5.39
1.92
-1.45
-4.79
-8.15
-11.54
-14.88
-18.08
-21.05
-23.71
-26.1
-28.37
-30.75
-33.62
-37.28
-41.9
-47.42
-53.39
-58.99
-63.13
-64.69
-62.76
-57.03
-47.84
-36.18
-23.41
-10.89
0.28
9.53
16.69
22.0
25.78
28.38
30.08
31.02
31.33
31.13
30.66
30.27
30.29
30.94
32.18
33.73
35.14
36.1
36.43
36.19
35.53
34.49
32.99
30.88
28.11
24.75
21.11
17.49
14.11
11.02
8.09
5.16
2.12
-1.06
-4.35
-7.66
-10.95
-14.2
-17.41
-20.7
-24.11
-27.67
-31.3
-34.8
-38.03
-40.97
-43.92
-47.35
-51.74
-57.19
-63.21
-68.68
-72.15
-72.23
-68.12
-59.86
-48.32
-34.94
-21.28
-8.71
1.84
9.96
15.71
19.43
21.65
22.88
23.54
23.86
23.98
23.93
23.79
23.65
23.66
23.94
24.58
25.58
26.88
28.36
29.83
31.11
31.97
32.25
31.84
30.64
28.62
25.83
22.42
18.71
15.08
11.88
9.28
7.21
5.42
3.6
1.48
-1.06
-4.01
-7.25
-10.52
-13.56
-16.1
-18.0
-19.32
-20.36
-21.55
-23.39
-26.21
-30.12
-34.82
-39.62
-43.41
-44.96
-43.19
-37.63
-28.65
-17.4
-5.42
5.87
15.55
23.32
29.25
33.57
36.36
37.57
37.22
35.54
33.02
30.34
28.15
26.93
26.85
27.75
29.27
30.93
32.32
33.2
33.52
33.39
32.92
32.15
30.97
29.19
26.68
23.43
19.58
15.43
11.33
7.52
4.12
1.03
-1.96
-5.14
-8.65
-12.49
-16.44
-20.2
-23.5
-26.23
-28.49
-30.54
-32.75
-35.47
-39.01
-43.52
-48.89
-54.56
-59.51
-62.41
-62.04
-57.7
-49.54
-38.52
-26.05
-13.57
-2.13
7.69
15.68
21.82
26.14
28.75
29.91
30.06
29.66
29.11
28.6
28.15
27.75
27.4
27.24
27.4
27.91
28.66
29.39
29.76
29.56
28.66
27.09
24.96
22.39
19.47
16.3
12.99
9.65
6.44
3.49
0.84
-1.6
-4.01
-6.62
-9.56
-12.86
-16.38
-19.89
-23.14
-25.93
-28.26
-30.28
-32.26
-34.56
-37.57
-41.58
-46.65
-52.44
-58.23
-62.91
-65.26
-64.25
-59.39
-50.86
-39.55
-26.75
-13.84
-1.95
8.18
16.28
22.41
26.83
29.84
31.71
32.64
32.77
32.33
31.56
30.76
30.19
30.02
30.3
30.92
31.71
32.5
33.18
33.67
33.92
33.87
33.42
32.48
30.95
28.81
26.08
22.87
19.32
15.57
11.73
7.9
4.16
0.6
-2.62
-5.46
-7.96
-10.32
-12.82
-15.7
-19.04
-22.76
-26.66
-30.52
-34.19
-37.65
-40.95
-44.29
-47.94
-52.17
-57.12
-62.53
-67.67
-71.34
-72.25
-69.42
-62.6
-52.34
-39.85
-26.55
-13.74
-2.36
7.1
14.48
19.86
23.48
25.6
26.55
26.65
26.19
25.53
24.98
24.84
25.34
26.49
28.17
30.11
32.07
33.85
35.31
36.35
36.85
36.74
36.0
34.7
32.93
30.75
28.14
25.08
21.62
17.9
14.15
10.61
7.43
4.62
2.04
-0.46
-3.0
-5.63
-8.29
-10.86
-13.24
-15.37
-17.36
-19.44
-21.9
-25.05
-28.99
-33.67
-38.76
-43.69
-47.69
-49.81
-49.14
-45.04
-37.49
-27.19
-15.44
-3.75
6.65
15.09
21.55
26.34
29.77
31.97
32.84
32.35
30.65
28.19
25.62
23.62
22.6
22.71
23.72
25.24
26.79
28.03
28.83
29.24
29.36
29.18
28.57
27.31
25.27
22.51
19.29
15.97
12.8
9.88
7.08
4.23
1.15
-2.22
-5.82
-9.54
-13.21
-16.65
-19.67
-22.23
-24.44
-26.54
-28.86
-31.66
-35.13
-39.39
-44.44
-50.16
-56.1
-61.41
-64.91
-65.35
-61.86
-54.27
-43.29
-30.21
-16.56
-3.71
7.45
16.46
23.23
27.9
30.75
32.16
32.52
32.18
31.43
30.48
29.54
28.84
28.57
28.87
29.67
30.78
31.94
32.89
33.49
33.72
33.59
33.05
31.98
30.21
27.67
24.39
20.6
16.6
12.69
9.1
5.92
3.07
0.41
-2.24
-4.98
-7.87
-10.89
-14.03
-17.31
-20.74
-24.28
-27.83
-31.24
-34.44
-37.52
-40.79
-44.71
-49.57
-55.3
-61.2
-66.05
-68.38
-66.97
-61.28
-51.64
-39.12
-25.26
-11.61
0.64
10.82
18.72
24.52
28.5
30.97
32.23
32.53
32.17
31.5
30.87
30.58
30.74
31.27
31.99
32.76
33.48
34.22
34.98
35.68
36.15
36.17
35.53
34.21
32.25
29.75
26.82
23.57
20.11
16.58
13.1
9.73
6.51
3.39
0.34
-2.72
-5.91
-9.36
-13.14
-17.21
-21.39
-25.36
-28.86
-31.75
-34.13
-36.3
-38.66
-41.65
-45.63
-50.76
-56.8
-62.99
-68.09
-70.59
-69.22
-63.38
-53.41
-40.53
-26.38
-12.62
-0.46
9.45
16.98
22.33
25.88
27.98
28.97
29.13
28.73
28.08
27.49
27.15
27.14
27.35
27.65
27.94
28.27
28.79
29.56
30.48
31.23
31.38
30.64
28.95
26.53
23.71
20.77
17.84
14.89
11.85
8.63
5.26
1.81
-1.56
-4.73
-7.61
-10.22
-12.68
-15.17
-17.81
-20.62
-23.5
-26.29
-28.88
-31.23
-33.45
-35.72
-38.3
-41.47
-45.47
-50.34
-55.71
-60.62
-63.72
-63.56
-59.19
-50.57
-38.62
-24.96
-11.31
1.02
11.32
19.48
25.67
30.11
32.96
34.36
34.48
33.65
32.27
30.81
29.74
29.36
29.82
31.02
32.74
34.64
36.45
38.0
39.21
40.0
40.25
39.77
38.41
36.09
32.93
29.17
25.1
21.01
17.14
13.63
10.57
7.9
5.46
2.97
0.13
-3.25
-7.15
-11.31
-15.43
-19.18
-22.44
-25.3
-28.08
-31.22
-35.12
-39.99
-45.68
-51.54
-56.5
-59.3
-58.85
-54.57
-46.59
-35.72
-23.22
-10.47
1.37
11.46
19.4
25.13
28.85
30.85
31.46
31.0
29.77
28.15
26.53
25.31
24.76
24.97
25.82
27.03
28.31
29.46
30.38
31.04
31.38
31.28
30.58
29.12
26.81
23.71
20.01
15.96
11.85
7.95
4.43
1.36
-1.3
-3.64
-5.92
-8.38
-11.24
-14.61
-18.41
-22.43
-26.33
-29.81
-32.74
-35.24
-37.73
-40.8
-44.98
-50.49
-57.02
-63.58
-68.76
-71.04
-69.29
-63.11
-52.97
-40.1
-26.04
-12.25
0.19
10.68
19.07
25.43
29.92
32.78
34.27
34.71
34.5
34.06
33.73
33.72
34.12
34.86
35.9
37.11
38.35
39.36
39.88
39.68
38.66
36.94
34.76
32.38
29.92
27.36
24.59
21.52
18.15
14.57
10.93
7.33
3.84
0.48
-2.73
-5.79
-8.75
-11.68
-14.65
-17.68
-20.74
-23.76
-26.72
-29.68
-32.8
-36.26
-40.25
-44.9
-50.27
-56.2
-62.16
-67.19
-70.03
-69.46
-64.71
-55.84
-43.69
-29.7
-15.38
-1.98
9.67
19.16
26.37
31.38
34.35
35.65
35.73
35.08
34.18
33.43
33.06
33.21
33.85
34.82
35.94
37.02
37.92
38.64
39.12
39.31
39.03
38.06
36.3
33.82
30.87
27.71
24.53
21.3
17.91
14.21
10.21
6.07
2.11
-1.38
-4.23
-6.48
-8.41
-10.33
-12.58
-15.34
-18.64
-22.34
-26.19
-29.95
-33.45
-36.7
-39.91
-43.44
-47.67
-52.79
-58.57
-64.21
-68.41
-69.7
-66.93
-59.69
-48.57
-34.95
-20.56
-6.97
4.81
14.37
21.71
26.99
30.37
31.99
32.16
31.37
30.2
29.22
28.79
29.05
29.87
31.12
32.61
34.18
35.65
36.79
37.37
37.23
36.36
34.9
33.06
31.0
28.78
26.33
23.5
20.14
16.21
11.79
7.12
2.5
-1.74
-5.38
-8.36
-10.83
-13.1
-15.46
-18.09
-21.0
-24.03
-27.0
-29.81
-32.49
-35.17
-38.03
-41.28
-45.11
-49.66
-54.83
-60.16
-64.69
-67.13
-66.24
-61.23
-52.11
-39.74
-25.55
-11.11
2.23
13.56
22.49
29.02
33.4
35.98
37.11
37.1
36.18
34.63
32.8
31.2
30.31
30.39
31.41
33.04
34.83
36.39
37.55
38.23
38.48
38.23
37.37
35.8
33.46
30.45
26.92
23.11
19.26
15.57
12.18
9.12
6.3
3.51
0.55
-2.65
-6.0
-9.26
-12.19
-14.71
-16.91
-19.03
-21.38
-24.18
-27.6
-31.76
-36.71
-42.39
-48.5
-54.37
-58.97
-61.06
-59.58
-54.02
-44.65
-32.55
-19.3
-6.51
4.65
13.62
20.45
25.47
29.02
31.26
32.21
31.96
30.73
28.97
27.22
25.96
25.45
25.76
26.76
28.24
29.96
31.69
33.18
34.22
34.61
34.19
32.9
30.76
27.87
24.46
20.78
17.08
13.52
10.15
6.91
3.74
0.57
-2.64
-5.9
-9.26
-12.77
-16.4
-20.03
-23.48
-26.55
-29.17
-31.4
-33.47
-35.7
-38.46
-42.08
-46.77
-52.52
-58.96
-65.22
-70.02
-71.93
-69.8
-63.18
-52.49
-39.01
-24.42
-10.36
1.97
11.94
19.45
24.74
28.23
30.39
31.62
32.28
32.63
32.82
32.93
32.97
32.92
32.77
32.58
32.45
32.53
32.92
33.61
34.42
35.01
35.03
34.25
32.7
30.61
28.26
25.89
23.51
21.0
18.23
15.12
11.72
8.17
4.63
1.18
-2.16
-5.41
-8.65
-11.93
-15.33
-18.84
-22.42
-25.98
-29.4
-32.66
-35.83
-39.11
-42.75
-47.03
-52.08
-57.77
-63.58
-68.57
-71.45
-71.03
-66.53
-57.91
-45.99
-32.17
-18.02
-4.85
6.5
15.72
22.8
27.89
31.21
33.01
33.57
33.19
32.21
30.98
29.86
29.16
29.1
29.73
30.89
32.33
33.8
35.14
36.32
37.29
37.88
37.79
36.71
34.51
31.39
27.82
24.29
21.19
18.56
16.16
13.6
10.57
6.93
2.83
-1.41
-5.38
-8.81
-11.63
-14.04
-16.41
-19.09
-22.23
-25.72
-29.26
-32.6
-35.65
-38.55
-41.62
-45.2
-49.56
-54.84
-60.94
-67.38
-73.24
-77.2
-77.84
-74.12
-65.78
-53.6
-39.1
-24.13
-10.25
1.58
11.05
18.28
23.54
27.11
29.2
30.09
30.09
29.61
29.06
28.82
29.15
30.12
31.62
33.46
35.35
37.07
38.51
39.62
40.34
40.54
40.06
38.77
36.72
34.13
31.28
28.41
25.65
22.9
20.04
16.9
13.45
9.8
6.15
2.79
-0.05
-2.28
-4.04
-5.64
-7.47
-9.78
-12.62
-15.75
-18.9
-21.9
-24.83
-27.95
-31.61
-36.01
-41.08
-46.42
-51.29
-54.68
-55.53
-53.01
-46.82
-37.34
-25.59
-12.92
-0.6
10.47
19.78
27.17
32.59
36.03
37.57
37.47
36.2
34.33
32.38
30.7
29.49
28.88
28.98
29.81
31.27
33.07
34.76
35.92
36.24
35.65
34.22
32.14
29.62
26.87
24.05
21.29
18.55
15.67
12.46
8.78
4.69
0.49
-3.46
-6.82
-9.45
-11.45
-13.19
-15.09
-17.55
-20.79
-24.74
-29.06
-33.27
-36.95
-39.94
-42.43
-44.86
-47.8
-51.66
-56.45
-61.72
-66.54
-69.72
-70.05
-66.65
-59.24
-48.28
-34.91
-20.62
-6.9
5.13
14.85
22.13
27.2
30.41
32.21
33.01
33.21
33.15
33.04
33.04
33.17
33.37
33.61
33.89
34.24
34.74
35.39
36.16
36.91
37.4
37.39
36.65
35.05
32.62
29.54
26.12
22.68
19.43
16.41
13.49
10.49
7.3
4.02
0.88
-1.85
-4.11
-6.1
-8.27
-11.09
-14.78
-19.21
-23.93
-28.38
-32.13
-35.12
-37.57
-39.96
-42.82
-46.6
-51.47
-57.18
-62.98
-67.72
-70.04
-68.8
-63.4
-54.08
-41.76
-27.89
-14.02
-1.4
9.16
17.39
23.41
27.52
30.07
31.38
31.73
31.46
30.94
30.58
30.68
31.35
32.41
33.56
34.48
35.04
35.31
35.51
35.83
36.26
36.61
36.51
35.63
33.82
31.16
27.99
24.67
21.53
18.62
15.79
12.79
9.47
5.85
2.17
-1.31
-4.43
-7.17
-9.75
-12.4
-15.32
-18.57
-22.13
-25.89
-29.71
-33.42
-36.9
-40.09
-43.12
-46.32
-50.19
-55.11
-61.09
-67.54
-73.3
-76.85
-76.83
-72.46
-63.79
-51.72
-37.67
-23.23
-9.72
1.98
11.46
18.68
23.78
27.02
28.67
29.11
28.78
28.15
27.63
27.46
27.65
28.07
28.55
29.02
29.55
30.29
31.31
32.55
33.75
34.56
34.65
33.86
32.27
30.08
27.56
24.93
22.28
19.55
16.67
13.61
10.45
7.37
4.59
2.23
0.25
-1.53
-3.37
-5.51
-8.05
-10.96
-14.04
-17.1
-19.94
-22.46
-24.7
-26.81
-29.07
-31.82
-35.36
-39.78
-44.86
-49.89
-53.8
-55.34
-53.48
-47.72
-38.34
-26.32
-13.11
-0.19
11.29
20.73
28.02
33.34
36.96
39.07
39.8
39.3
37.82
35.79
33.73
32.1
31.18
31.05
31.59
32.58
33.82
35.16
36.49
37.64
38.42
38.57
37.87
36.2
33.65
30.4
26.78
23.07
19.42
15.88
12.37
8.82
5.23
1.71
-1.64
-4.71
-7.55
-10.31
-13.18
-16.34
-19.8
-23.44
-27.02
-30.34
-33.28
-35.94
-38.6
-41.62
-45.35
-50.01
-55.51
-61.37
-66.65
-70.1
-70.41
-66.7
-58.73
-47.1
-33.11
-18.4
-4.47
7.56
17.15
24.23
29.03
31.93
33.32
33.6
33.17
32.41
31.63
31.08
30.85
30.94
31.26
31.74
32.32
33.0
33.81
34.7
35.55
36.12
36.13
35.32
33.58
30.94
27.6
23.87
20.15
16.74
13.85
11.47
9.41
7.4
5.25
2.89
0.44
-1.89
-3.96
-5.83
-7.71
-9.89
-12.59
-15.8
-19.39
-23.1
-26.67
-30.0
-33.09
-36.14
-39.4
-43.19
-47.75
-53.12
-59.03
-64.78
-69.32
-71.38
-69.88
-64.29
-54.82
-42.45
-28.69
-15.13
-3.02
6.98
14.78
20.68
25.08
28.29
30.45
31.65
32.05
31.91
31.56
31.33
31.41
31.84
32.6
33.64
34.93
36.4
37.92
39.22
39.97
39.85
38.72
36.63
33.82
30.68
27.56
24.72
22.22
19.98
17.78
15.37
12.61
9.46
6.04
2.51
-0.92
-4.06
-6.8
-9.11
-11.14
-13.14
-15.48
-18.39
-21.94
-25.91
-30.0
-33.9
-37.52
-40.99
-44.6
-48.66
-53.39
-58.81
-64.72
-70.59
-75.51
-78.28
-77.71
-73.0
-64.11
-51.87
-37.73
-23.37
-10.22
0.91
9.68
16.22
20.83
23.86
25.69
26.67
27.11
27.24
27.16
26.97
26.71
26.47
26.4
26.62
27.26
28.39
29.99
31.91
33.83
35.29
35.8
35.03
32.92
29.81
26.26
22.88
20.02
17.77
15.9
14.16
12.3
10.32
8.35
6.52
4.92
3.44
1.83
-0.18
-2.8
-6.03
-9.68
-13.38
-16.71
-19.43
-21.47
-23.07
-24.67
-26.77
-29.82
-33.99
-39.13
-44.62
-49.41
-52.27
-52.04
-48.01
-40.25
-29.55
-17.25
-4.78
6.72
16.55
24.44
30.33
34.24
36.24
36.54
35.52
33.75
31.8
30.12
28.93
28.28
28.11
28.39
29.06
30.01
31.08
32.03
32.72
33.08
33.12
32.77
31.9
30.25
27.66
24.16
20.01
15.62
11.39
7.53
4.01
0.7
-2.54
-5.71
-8.75
-11.55
-14.1
-16.52
-18.95
-21.54
-24.31
-27.19
-30.07
-32.85
-35.55
-38.34
-41.47
-45.21
-49.69
-54.78
-59.89
-64.09
-66.21
-65.18
-60.45
-52.17
-41.18
-28.74
-16.21
-4.62
5.44
13.79
20.52
25.79
29.72
32.38
33.85
34.28
33.95
33.23
32.49
32.07
32.12
32.68
33.61
34.73
35.82
36.74
37.37
37.64
37.47
36.74
35.33
33.17
30.33
27.05
23.65
20.42
17.47
14.71
11.85
8.66
5.1
1.39
-2.12
-5.08
-7.38
-9.21
-11.04
-13.33
-16.35
-20.05
-24.06
-27.91
-31.25
-34.04
-36.56
-39.33
-42.8
-47.24
-52.63
-58.55
-64.3
-68.9
-71.24
-70.3
-65.46
-56.76
-44.95
-31.4
-17.68
-5.1
5.57
14.13
20.79
25.82
29.47
31.86
33.11
33.48
33.31
32.98
32.76
32.82
33.15
33.75
34.6
35.71
37.04
38.41
39.53
40.13
39.97
39.04
37.42
35.24
32.62
29.66
26.46
23.17
19.97
16.97
14.13
11.24
8.07
4.55
0.82
-2.81
-6.0
-8.62
-10.86
-13.12
-15.84
-19.22
-23.22
-27.52
-31.71
-35.5
-38.75
-41.63
-44.46
-47.71
-51.73
-56.74
-62.53
-68.47
-73.52
-76.47
-76.18
-71.94
-63.79
-52.46
-39.27
-25.74
-13.14
-2.27
6.64
13.78
19.44
23.82
26.99
28.91
29.69
29.63
29.17
28.73
28.59
28.8
29.34
30.18
31.34
32.85
34.63
36.43
37.88
38.59
38.32
37.0
34.81
32.07
29.15
26.35
23.87
21.63
19.46
17.06
14.29
11.2
8.03
5.1
2.69
0.81
-0.69
-2.1
-3.71
-5.68
-8.02
-10.62
-13.3
-15.91
-18.38
-20.81
-23.39
-26.42
-30.16
-34.71
-39.85
-45.03
-49.33
-51.68
-51.09
-46.97
-39.36
-28.92
-16.83
-4.36
7.39
17.7
26.25
32.95
37.8
40.81
41.99
41.54
39.84
37.42
34.82
32.49
30.73
29.64
29.28
