0
-26.07
-31.44
-38.03
-45.81
-54.06
-61.46
-66.3
-67.09
-62.99
-54.26
-42.08
-28.21
-14.38
-1.88
8.6
16.84
22.93
27.05
29.42
30.34
30.2
29.44
28.53
27.92
27.92
28.66
30.03
31.68
33.14
34.0
33.99
33.07
31.32
28.8
25.5
21.37
16.45
11.02
5.52
0.4
-4.08
-7.99
-11.73
-15.9
-21.04
-27.42
-34.86
-42.61
-49.45
-53.93
-54.73
-51.14
-43.24
-31.92
-18.59
-4.73
8.4
20.02
29.77
37.57
43.43
47.4
49.57
50.22
49.83
49.06
48.53
48.64
49.35
50.27
50.83
50.56
49.27
47.06
44.17
40.72
36.57
31.44
25.03
17.31
8.58
-0.53
-9.33
-17.27
-24.15
-30.12
-35.65
-41.25
-47.39
-54.26
-61.65
-68.92
-75.05
-78.78
-78.94
-74.8
-66.39
-54.61
-41.01
-27.33
-15.0
-4.82
3.02
8.71
12.51
14.61
15.15
14.43
12.97
11.5
10.67
10.89
12.11
14.01
16.08
17.9
19.19
19.81
19.71
18.82
17.08
14.49
11.18
7.37
3.32
-0.74
-4.73
-8.69
-12.83
-17.44
-22.79
-28.98
-35.77
-42.45
-47.86
-50.66
-49.64
-44.22
-34.72
-22.29
-8.68
4.37
15.46
23.88
29.52
32.7
33.87
33.53
32.14
30.12
27.85
25.68
23.9
22.73
22.27
22.51
23.18
23.86
23.98
23.08
20.86
17.42
13.06
8.14
2.93
-2.52
-8.2
-14.09
-20.1
-26.1
-32.14
-38.42
-45.14
-52.22
-58.99
-64.19
-66.36
-64.28
-57.59
-46.86
-33.51
-19.3
-5.8
5.89
15.29
22.27
26.97
29.59
30.42
29.86
28.45
26.8
25.48
24.85
25.05
26.0
27.44
29.02
30.42
31.28
31.31
30.28
28.1
24.82
20.7
16.04
11.14
6.19
1.26
-3.65
-8.66
-13.92
-19.67
-26.17
-33.5
-41.34
-48.79
-54.42
-56.65
-54.29
-47.03
-35.63
-21.74
-7.33
5.9
16.9
25.35
31.4
35.38
37.59
38.24
37.59
36.02
34.1
32.45
31.52
31.44
32.03
32.87
33.54
33.75
33.42
32.56
31.19
29.19
26.35
22.51
17.66
12.04
6.12
0.44
-4.62
-8.98
-12.91
-16.9
-21.52
-27.2
-34.1
-41.95
-49.98
-57.02
-61.62
-62.41
-58.61
-50.27
-38.45
-24.84
-11.31
0.68
10.39
17.69
22.76
25.86
27.1
26.62
24.7
21.93
19.1
17.02
16.21
16.79
18.43
20.59
22.67
24.16
24.79
24.41
23.02
20.65
17.38
13.31
8.62
3.59
-1.46
-6.25
-10.69
-14.93
-19.41
-24.59
-30.71
-37.52
-44.12
-49.16
-51.16
-49.07
-42.63
-32.52
-20.14
-7.24
4.65
14.58
22.17
27.51
30.85
32.4
32.27
30.65
27.91
24.71
21.85
20.03
19.58
20.42
22.07
23.9
25.31
25.83
25.18
23.24
19.98
15.55
10.17
4.19
-1.99
-8.05
-13.78
-19.21
-24.62
-30.42
-36.98
-44.33
-51.92
-58.68
-63.12
-63.86
-60.07
-51.76
-39.86
-25.94
-11.72
1.31
12.19
20.52
26.36
29.98
31.79
32.16
31.47
30.08
28.43
26.97
26.13
26.15
27.04
28.51
30.1
31.29
31.68
31.04
29.33
26.62
22.97
18.48
13.26
7.53
1.6
-4.23
-9.75
-15.03
-20.4
-26.37
-33.39
-41.5
-50.15
-58.13
-63.83
-65.68
-62.73
-54.9
-43.16
-29.16
-14.79
-1.69
9.1
17.18
22.67
25.91
27.32
27.31
26.27
24.63
22.89
21.47
20.68
20.62
21.14
21.97
22.78
23.28
23.25
22.55
21.14
19.01
16.22
12.87
9.06
4.87
0.38
-4.32
-9.17
-14.14
-19.27
-24.7
-30.58
-36.88
-43.19
-48.61
-51.87
-51.71
-47.32
-38.77
-27.1
-14.0
-1.33
9.5
17.73
23.38
26.8
28.46
28.71
27.75
25.82
23.34
20.88
19.02
18.14
18.26
19.14
20.32
21.4
22.06
22.04
21.07
18.93
15.58
11.15
6.05
0.85
-3.99
-8.29
-12.22
-16.16
-20.56
-25.77
-31.88
-38.74
-45.76
-51.95
-56.02
-56.62
-52.82
-44.54
-32.64
-18.78
-4.91
7.34
16.99
23.81
28.06
30.24
30.77
30.03
28.41
26.37
24.44
23.05
22.46
22.63
23.26
23.93
24.31
24.22
23.6
22.51
20.9
18.68
15.67
11.82
7.27
2.37
-2.43
-6.83
-10.77
-14.6
-18.87
-24.14
-30.7
-38.35
-46.32
-53.38
-58.1
-59.21
-56.0
-48.52
-37.68
-24.92
-11.88
0.08
10.13
17.99
23.76
27.64
29.83
30.48
29.81
28.18
26.1
24.12
22.65
21.84
21.65
21.88
22.35
22.93
23.47
23.74
23.38
21.99
19.29
15.26
10.15
4.44
-1.33
-6.76
-11.67
-16.11
-20.43
-25.06
-30.51
-37.07
-44.64
-52.49
-59.27
-63.34
-63.23
-58.22
-48.65
-35.92
-21.93
-8.6
2.73
11.46
17.6
21.52
23.61
24.17
23.4
21.52
18.91
16.09
13.69
12.25
12.04
12.97
14.57
16.2
17.22
17.25
16.21
14.32
11.84
9.0
5.88
2.46
-1.35
-5.66
-10.55
-16.14
-22.5
-29.55
-36.94
-43.97
-49.57
-52.49
-51.67
-46.55
-37.33
-25.04
-11.25
2.31
14.25
23.73
30.52
34.84
37.07
37.57
36.61
34.46
31.51
28.22
25.15
22.8
21.48
21.23
21.78
22.66
23.31
23.24
22.13
19.85
16.46
12.12
7.03
1.47
-4.33
-10.12
-15.73
-21.17
-26.7
-32.77
-39.82
-48.04
-56.97
-65.45
-71.85
-74.45
-72.08
-64.48
-52.48
-37.68
-22.03
-7.25
5.47
15.58
23.04
28.1
31.07
32.31
32.18
31.15
29.72
28.43
27.67
27.61
28.17
29.09
30.01
30.59
30.65
30.11
28.99
27.26
24.85
21.6
17.43
12.39
6.72
0.86
-4.77
-9.9
-14.62
-19.28
-24.46
-30.61
-37.86
-45.79
-53.41
-59.26
-61.87
-60.08
-53.54
-42.84
-29.38
-14.9
-1.04
11.1
21.01
28.63
34.08
37.49
38.95
38.73
37.31
35.38
33.68
32.72
32.69
33.4
34.46
35.4
35.93
35.94
35.49
34.64
33.38
31.51
28.73
24.8
19.67
13.66
7.33
1.25
-4.15
-8.81
-13.02
-17.3
-22.23
-28.23
-35.43
-43.47
-51.44
-57.94
-61.42
-60.63
-55.09
-45.36
-32.86
-19.43
-6.75
4.07
12.57
18.82
23.07
25.51
26.29
25.55
23.64
21.12
18.67
16.92
16.28
16.75
18.06
19.74
21.3
22.34
22.63
22.05
20.57
18.19
14.98
11.07
6.63
1.9
-2.9
-7.58
-12.12
-16.69
-21.69
-27.53
-34.33
-41.65
-48.32
-52.69
-53.16
-48.85
-39.91
-27.57
-13.65
0.01
12.03
21.67
28.68
33.16
35.3
35.42
33.9
31.29
28.19
25.19
22.74
21.14
20.48
20.65
21.36
22.18
22.67
22.46
21.34
19.21
16.13
12.23
7.73
2.89
-2.0
-6.75
-11.27
-15.67
-20.2
-25.22
-31.09
-38.01
-45.83
-53.89
-61.03
-65.69
-66.39
-62.24
-53.31
-40.69
-26.2
-11.8
1.01
11.45
19.43
25.21
29.11
31.38
32.14
31.64
30.26
28.59
27.19
26.43
26.38
26.81
27.36
27.73
27.85
27.77
27.6
27.22
26.28
24.29
20.9
16.13
10.39
4.41
-1.18
-6.01
-10.14
-13.98
-18.15
-23.22
-29.55
-37.08
-45.18
-52.67
-57.97
-59.6
-56.59
-48.95
-37.66
-24.34
-10.81
1.49
11.7
19.62
25.38
29.23
31.32
31.76
30.72
28.6
26.01
23.67
22.16
21.7
22.12
22.99
23.84
24.37
24.52
24.35
23.89
22.95
21.22
18.4
14.43
9.56
4.3
-0.81
-5.42
-9.51
-13.41
-17.66
-22.81
-29.17
-36.67
-44.66
-51.98
-57.19
-58.92
-56.25
-49.1
-38.28
-25.32
-12.06
-0.07
9.61
16.65
21.24
23.78
24.67
24.2
22.61
20.23
17.57
15.18
13.56
13.02
13.55
14.91
16.68
18.3
19.28
19.19
17.82
15.24
11.7
7.6
3.27
-1.06
-5.35
-9.66
-14.07
-18.67
-23.59
-28.97
-34.84
-40.94
-46.53
-50.46
-51.41
-48.4
-41.19
-30.48
-17.77
-4.84
6.72
15.93
22.49
26.58
28.62
28.96
27.88
25.69
22.85
19.94
17.56
16.21
16.01
16.8
18.09
19.39
20.25
20.39
19.69
18.12
15.66
12.35
8.24
3.5
-1.6
-6.75
-11.71
-16.45
-21.17
-26.27
-32.2
-39.14
-46.84
-54.38
-60.37
-63.28
-61.91
-55.83
-45.6
-32.61
-18.68
-5.55
5.55
14.1
20.17
24.15
26.48
27.51
27.46
26.63
25.35
24.12
23.35
23.32
23.99
25.09
26.25
27.13
27.53
27.37
26.63
25.24
23.1
20.07
16.12
11.36
6.07
0.67
-4.44
-9.07
-13.33
-17.62
-22.55
-28.53
-35.55
-42.95
-49.49
-53.64
-54.1
-50.21
-42.23
-31.25
-18.81
-6.46
4.65
13.95
21.32
26.85
30.58
32.52
32.7
31.42
29.32
27.3
26.19
26.42
27.84
29.84
31.65
32.68
32.76
32.06
30.89
29.43
27.59
25.06
21.5
16.81
11.2
5.21
-0.57
-5.67
-9.96
-13.68
-17.29
-21.33
-26.27
-32.35
-39.43
-46.89
-53.65
-58.32
-59.59
-56.58
-49.3
-38.61
-26.0
-13.14
-1.46
8.13
15.28
20.0
22.55
23.31
22.74
21.3
19.46
17.61
16.04
15.01
14.64
15.0
16.0
17.41
18.84
19.88
20.17
19.53
17.94
15.46
12.24
8.43
4.22
-0.16
-4.47
-8.56
-12.42
-16.24
-20.4
-25.3
-31.03
-37.23
-42.91
-46.68
-47.18
-43.55
-35.87
-25.09
-12.78
-0.6
10.17
18.82
25.11
29.07
30.86
30.7
28.97
26.29
23.41
21.06
19.67
19.3
19.72
20.54
21.41
22.06
22.28
21.86
20.55
18.15
14.64
10.17
5.11
-0.11
-5.16
-9.93
-14.45
-18.96
-23.74
-29.03
-35.01
-41.75
-49.04
-56.3
-62.49
-66.28
-66.42
-62.19
-53.73
-42.07
-28.78
-15.5
-3.47
6.62
14.55
20.34
24.11
26.05
26.48
25.86
24.77
23.8
23.36
23.62
24.47
25.63
26.74
27.51
27.79
27.57
26.9
25.76
24.03
21.49
17.98
13.49
8.3
2.83
-2.46
-7.25
-11.51
-15.43
-19.43
-23.97
-29.4
-35.82
-42.88
-49.71
-55.06
-57.56
-56.19
-50.6
-41.27
-29.42
-16.58
-4.21
6.65
15.48
22.19
26.91
29.82
31.08
30.95
29.85
28.39
27.23
26.9
27.51
28.77
30.13
31.04
31.24
30.84
30.1
29.27
28.29
26.81
24.4
20.75
15.92
10.31
4.52
-0.91
-5.69
-9.83
-13.69
-17.74
-22.51
-28.37
-35.36
-43.09
-50.7
-56.97
-60.54
-60.33
-55.84
-47.37
-35.96
-23.14
-10.5
0.72
9.8
16.54
21.04
23.56
24.37
23.75
22.11
19.98
17.99
16.67
16.36
17.04
18.49
20.29
22.01
23.3
23.89
23.62
22.47
20.48
17.74
14.37
10.53
6.39
2.15
-2.03
-6.11
-10.3
-15.0
-20.62
-27.35
-34.85
-42.18
-47.92
-50.63
-49.29
-43.64
-34.29
-22.52
-9.9
2.08
12.33
20.24
25.66
28.7
29.66
28.96
27.11
24.72
22.44
20.77
20.02
20.17
20.99
22.11
23.22
24.08
24.55
24.51
23.76
22.07
19.21
15.11
9.94
4.13
-1.77
-7.3
-12.21
-16.64
-21.03
-26.02
-32.18
-39.73
-48.31
-56.91
-64.01
-67.94
-67.38
-61.85
-51.84
-38.77
-24.43
-10.55
1.71
11.77
19.61
25.37
29.21
31.31
31.89
31.34
30.23
29.15
28.58
28.71
29.5
30.65
31.83
32.72
33.09
32.86
32.0
30.53
28.4
25.47
21.69
17.08
11.84
6.32
0.9
-4.14
-8.78
-13.24
-17.92
-23.32
-29.73
-37.16
-45.04
-52.23
-57.21
-58.53
-55.35
-47.72
-36.63
-23.67
-10.48
1.7
12.2
20.77
27.36
31.91
34.37
34.81
33.64
31.56
29.44
28.06
27.82
28.68
30.19
31.75
32.85
33.27
33.03
32.32
31.3
29.92
27.95
25.14
21.27
16.47
11.11
5.66
0.57
-3.98
-8.09
-12.05
-16.27
-21.17
-27.06
-33.99
-41.69
-49.31
-55.57
-59.0
-58.36
-53.17
-43.9
-31.89
-18.87
-6.49
4.16
12.56
18.71
22.81
25.09
25.71
24.93
23.11
20.78
18.54
16.9
16.16
16.34
17.26
18.59
20.01
21.18
21.82
21.73
20.76
18.87
16.13
12.72
8.83
4.62
0.25
-4.18
-8.57
-12.96
-17.51
-22.46
-28.05
-34.26
-40.61
-46.14
-49.55
-49.68
-45.84
-38.18
-27.56
-15.38
-3.12
8.02
17.25
24.23
28.91
31.39
31.83
30.55
28.01
24.86
21.86
19.65
18.58
18.62
19.42
20.51
21.47
22.02
22.0
21.26
19.62
16.92
13.09
8.29
2.86
-2.72
-8.07
-13.0
-17.56
-22.05
-26.84
-32.37
-38.87
-46.28
-54.03
-61.04
-65.91
-67.24
-64.14
-56.53
-45.22
-31.71
-17.75
-4.86
6.02
14.54
20.84
25.23
28.04
29.47
29.75
29.16
28.11
27.1
26.54
26.63
27.28
28.24
29.14
29.75
29.98
29.83
29.32
28.37
26.76
24.26
20.65
15.93
10.31
4.28
-1.57
-6.83
-11.38
-15.55
-19.99
-25.37
-32.07
-39.93
-48.05
-55.08
-59.46
-59.96
-56.01
-47.91
-36.73
-23.93
-11.04
0.79
10.85
18.84
24.73
28.54
30.4
30.54
29.43
27.7
26.02
24.9
24.55
24.88
25.63
26.46
27.15
27.57
27.64
27.29
26.42
24.85
22.42
19.08
14.88
10.05
4.92
-0.15
-4.87
-9.16
-13.19
-17.34
-22.16
-28.11
-35.32
-43.34
-51.05
-56.91
-59.31
-57.21
-50.46
-39.94
-27.29
-14.32
-2.54
7.21
14.7
20.04
23.45
25.07
25.03
23.59
21.28
18.76
16.73
15.71
15.9
17.14
19.05
21.1
22.73
23.53
23.19
21.66
19.05
15.64
11.76
7.71
3.65
-0.4
-4.51
-8.94
-13.92
-19.67
-26.28
-33.48
-40.62
-46.62
-50.2
-50.21
-46.0
-37.74
-26.43
-13.61
-0.94
10.21
19.07
25.39
29.35
31.27
31.5
30.43
28.46
26.08
23.78
22.02
21.02
20.78
21.11
21.7
22.25
22.53
22.32
21.43
19.71
17.05
13.48
9.15
4.33
-0.66
-5.55
-10.24
-14.74
-19.26
-24.16
-29.86
-36.64
-44.39
-52.46
-59.58
-64.15
-64.72
-60.47
-51.54
-39.06
-24.77
-10.51
2.28
12.79
20.81
26.5
30.12
31.88
32.03
30.88
28.98
27.0
25.59
25.15
25.7
26.9
28.28
29.41
30.1
30.34
30.16
29.51
28.18
25.86
22.35
17.72
12.28
6.62
1.26
-3.46
-7.58
-11.48
-15.73
-20.93
-27.33
-34.79
-42.62
-49.66
-54.51
-55.87
-52.88
-45.56
-34.74
-21.95
-8.89
2.99
12.81
20.25
25.38
28.38
29.48
28.96
27.28
25.09
23.11
21.88
21.61
22.15
23.13
24.17
24.99
25.49
25.61
25.31
24.44
22.79
20.14
16.44
11.8
6.59
1.29
-3.69
-8.18
-12.3
-16.42
-20.94
-26.19
-32.27
-38.94
-45.62
-51.41
-55.14
-55.64
-52.11
-44.48
-33.51
-20.66
-7.64
4.08
13.51
20.32
24.58
26.57
26.64
25.18
22.63
19.51
16.42
13.9
12.42
12.21
13.18
14.96
16.95
18.51
19.18
18.8
17.44
15.32
12.63
9.45
5.8
1.74
-2.63
-7.19
-11.93
-17.02
-22.74
-29.34
-36.71
-44.15
-50.45
-54.07
-53.72
-48.74
-39.5
-27.25
-13.82
-0.99
9.95
18.39
24.29
27.93
29.63
29.65
28.25
25.8
22.8
19.84
17.43
15.93
15.44
15.83
16.82
18.07
19.15
19.65
19.24
17.69
14.92
11.05
6.33
1.13
-4.17
-9.28
-14.1
-18.77
-23.69
-29.31
-36.0
-43.69
-51.75
-58.88
-63.47
-64.04
-59.73
-50.74
-38.21
-23.97
-9.91
2.5
12.5
19.99
25.21
28.5
30.12
30.25
29.16
27.28
25.14
23.32
22.17
21.86
22.24
23.06
24.0
24.82
25.29
25.23
24.45
22.74
19.96
16.13
11.44
6.27
1.04
-3.91
-8.5
-12.92
-17.63
-23.1
-29.62
-37.09
-44.81
-51.57
-55.86
-56.28
-52.02
-43.2
-30.94
-17.05
-3.47
8.27
17.37
23.76
27.77
29.83
30.25
29.27
27.25
24.66
22.15
20.28
19.37
19.43
20.17
21.2
22.14
22.74
22.79
22.17
20.79
18.61
15.65
12.02
7.87
3.43
-1.12
-5.65
-10.14
-14.74
-19.7
-25.33
-31.75
-38.81
-45.84
-51.7
-55.04
-54.66
-49.91
-41.03
-29.15
-15.98
-3.29
7.55
15.84
21.53
24.91
26.34
26.07
24.29
21.33
17.7
14.15
11.44
10.13
10.36
11.85
13.99
16.06
17.46
17.82
17.06
15.31
12.76
9.64
6.08
2.17
-2.03
-6.47
-11.22
-16.42
-22.32
-29.11
-36.6
-44.09
-50.34
-53.81
-53.24
-48.1
-38.83
-26.75
-13.69
-1.37
8.99
16.83
22.17
25.34
26.71
26.55
25.06
22.5
19.29
16.06
13.47
12.05
12.01
13.13
14.93
16.73
17.92
18.04
16.89
14.51
11.12
7.06
2.64
-1.89
-6.39
-10.96
-15.86
-21.43
-27.98
-35.6
-43.96
-52.2
-59.03
-62.91
-62.59
-57.48
-47.94
-35.18
-20.99
-7.1
5.16
15.05
22.42
27.46
30.49
31.8
31.68
30.49
28.68
26.79
25.31
24.6
24.73
25.53
26.66
27.72
28.39
28.45
27.76
26.17
23.58
19.89
15.17
9.71
3.93
-1.72
-6.95
-11.79
-16.59
-21.89
-28.21
-35.73
-44.04
-52.07
-58.28
-61.04
-59.17
-52.4
-41.45
-27.87
-13.5
0.03
11.61
20.79
27.51
31.91
34.18
34.6
33.59
31.78
29.9
28.61
28.24
28.75
29.8
30.92
31.78
32.31
32.58
32.7
32.57
31.87
30.17
27.18
22.9
17.65
11.93
6.23
0.84
-4.17
-8.97
-13.85
-19.23
-25.53
-33.01
-41.54
-50.34
-58.03
-62.87
-63.34
-58.73
-49.39
-36.72
-22.64
-9.03
2.74
12.01
18.7
23.09
25.51
26.26
25.63
24.0
21.92
20.02
18.88
18.8
19.7
21.18
22.67
23.7
24.02
23.6
22.54
20.91
18.69
15.81
12.27
8.19
3.79
-0.68
-5.11
-9.54
-14.24
-19.54
-25.7
-32.59
-39.55
-45.37
-48.58
-47.91
-42.81
-33.69
-21.81
-8.92
3.36
13.86
22.0
27.69
31.08
32.42
31.99
30.16
27.4
24.31
21.57
19.72
19.06
19.56
20.9
22.57
23.99
24.68
24.32
22.71
19.82
15.76
10.74
5.1
-0.82
-6.75
-12.6
-18.42
-24.44
-30.93
-38.07
-45.74
-53.41
-60.0
-64.07
-64.22
-59.61
-50.33
-37.56
-23.1
-8.91
3.58
13.67
21.32
26.89
30.7
32.96
33.8
33.39
32.1
30.44
28.98
28.08
27.89
28.28
28.99
29.72
30.27
30.46
30.13
29.07
26.98
23.64
19.03
13.35
7.07
0.73
-5.25
-10.76
-16.03
-21.56
-27.87
-35.17
-43.18
-50.94
-57.02
-59.87
-58.31
-51.94
-41.35
-27.93
-13.49
0.29
12.22
21.74
28.81
33.66
36.47
37.41
36.72
34.82
32.43
30.37
29.3
29.45
30.58
32.1
33.41
34.13
34.21
33.74
32.77
31.12
28.51
24.71
19.77
14.07
8.21
2.72
-2.15
-6.47
-10.59
-14.97
-20.03
-26.04
-33.09
-40.89
-48.71
-55.4
-59.56
-59.91
-55.75
-47.27
-35.54
-22.26
-9.18
2.36
11.64
18.53
23.24
26.04
27.14
26.77
25.29
23.22
21.24
19.91
19.55
20.1
21.25
22.56
23.66
24.36
24.54
24.12
22.98
20.98
18.01
14.16
9.63
4.7
-0.32
-5.24
-10.02
-14.8
-19.86
-25.49
-31.86
-38.75
-45.47
-50.8
-53.33
-51.84
-45.86
-35.89
-23.31
-9.99
2.36
12.56
20.18
25.35
28.44
29.81
29.72
28.44
26.34
23.96
21.86
20.5
20.06
20.43
21.24
22.04
22.45
22.16
20.99
18.85
15.76
11.89
7.5
2.91
-1.67
-6.18
-10.68
-15.36
-20.45
-26.17
-32.73
-40.18
-48.22
-56.06
-62.35
-65.48
-64.14
-57.79
-46.96
-33.12
-18.23
-4.01
8.39
18.53
26.49
32.57
37.03
39.97
41.46
41.65
40.84
39.45
37.96
36.69
35.78
35.14
34.57
33.92
33.09
32.09
30.85
29.16
26.69
23.11
18.27
12.3
5.66
-1.03
-7.23
-12.67
-17.41
-21.88
-26.76
-32.7
-40.07
-48.64
-57.49
-65.07
-69.57
-69.54
-64.34
-54.41
-41.16
-26.49
-12.18
0.53
11.04
19.33
25.5
29.68
31.91
32.33
31.3
29.52
27.81
26.88
27.09
28.34
30.19
32.05
33.42
34.0
33.77
32.83
31.35
29.43
27.01
23.95
20.05
15.3
9.89
4.25
-1.12
-5.9
-10.09
-14.04
-18.27
-23.31
-29.45
-36.66
-44.54
-52.34
-59.0
-63.27
-64.03
-60.59
-52.99
-42.01
-29.05
-15.63
-3.11
7.64
16.19
22.41
26.39
28.24
28.15
26.54
24.01
21.3
19.15
18.12
18.38
19.7
21.59
23.44
24.81
25.46
25.31
24.36
22.63
20.03
16.57
12.37
7.68
2.84
-1.87
-6.35
-10.66
-15.04
-19.79
-25.16
-31.23
-37.73
-43.95
-48.85
-51.21
-50.02
-44.85
-36.09
-24.85
-12.67
-1.11
8.7
16.23
21.39
24.44
25.62
25.19
23.39
20.6
17.41
14.53
12.57
11.89
12.5
13.98
15.76
17.22
17.87
17.43
15.85
13.26
9.92
6.12
2.11
-1.99
-6.2
-10.68
-15.59
-21.13
-27.42
-34.42
-41.85
-49.01
-54.78
-57.87
-57.13
-52.05
-42.99
-31.12
-18.08
-5.44
5.67
14.72
21.61
26.44
29.34
30.44
29.95
28.25
25.84
23.33
21.23
19.9
19.51
20.01
21.16
22.61
23.91
24.58
24.23
22.59
19.63
15.49
10.48
4.99
-0.61
-6.05
-11.24
-16.29
-21.52
-27.37
-34.19
-42.07
-50.48
-58.3
-63.93
-65.75
-62.72
-54.8
-43.01
-29.13
-15.06
-2.31
8.35
16.72
22.97
27.26
29.69
30.33
29.43
27.49
25.22
23.29
22.19
22.03
22.61
23.5
24.29
24.68
24.52
23.76
22.4
20.42
17.78
14.48
10.56
6.19
1.56
-3.2
-8.02
-12.99
-18.33
-24.33
-31.18
-38.81
-46.66
-53.73
-58.62
-60.01
-57.0
-49.59
-38.62
-25.57
-12.12
0.35
11.06
19.74
26.45
31.25
34.14
35.08
34.25
32.12
29.49
27.24
25.99
25.95
26.86
28.14
29.2
29.66
29.44
28.68
27.53
25.99
23.88
20.9
16.87
11.8
6.0
-0.03
-5.73
-10.72
-14.92
-18.6
-22.3
-26.69
-32.32
-39.36
-47.44
-55.64
-62.57
-66.73
-66.96
-62.71
-54.28
-42.69
-29.44
-16.12
-4.01
6.11
13.91
19.43
22.88
24.5
24.54
23.32
21.29
19.02
17.09
15.92
15.66
16.21
17.27
18.5
19.6
20.39
20.7
20.36
19.15
16.92
13.67
9.52
4.8
-0.15
-5.05
-9.78
-14.38
-19.06
-24.13
-29.78
-35.89
-41.83
-46.45
-48.38
-46.52
-40.46
-30.77
-18.87
-6.5
4.8
14.12
21.2
26.21
29.38
30.87
30.74
29.15
26.52
23.54
20.95
19.36
18.98
19.64
20.86
22.08
22.8
22.71
21.66
19.6
16.55
12.56
7.72
2.25
-3.53
-9.34
-14.95
-20.36
-25.83
-31.8
-38.65
-46.47
-54.8
-62.56
-68.3
-70.5
-68.13
-60.99
-49.85
-36.2
-21.9
-8.58
2.65
11.36
17.65
21.9
24.65
26.32
27.28
27.76
27.89
27.76
27.42
26.98
26.63
26.59
26.97
27.68
28.37
28.57
27.87
26.03
23.07
19.18
14.59
9.57
4.32
-0.95
-6.1
-11.11
-16.2
-21.75
-28.18
-35.53
-43.29
-50.29
-54.99
-55.97
-52.41
-44.49
-33.24
-20.25
-7.15
4.78
14.79
22.6
28.24
31.84
33.56
33.62
32.37
30.32
28.07
26.19
25.13
24.99
25.65
26.77
27.95
28.83
29.11
28.58
27.12
24.67
21.31
17.2
12.57
7.68
2.77
-2.03
-6.68
-11.29
-16.12
-21.52
-27.8
-34.94
-42.45
-49.26
-53.89
-54.98
-51.65
-43.99
-33.02
-20.37
-7.79
3.4
12.47
19.32
24.13
27.08
28.29
27.82
25.9
23.0
19.87
17.26
15.76
15.56
16.45
17.93
19.38
20.27
20.24
19.18
17.12
14.22
10.71
6.8
2.69
-1.53
-5.87
-10.46
-15.53
-21.31
-27.85
-34.87
-41.62
-46.97
-49.66
-48.67
-43.59
-34.81
-23.43
-10.94
1.18
11.81
20.29
26.41
30.25
32.03
32.07
30.75
28.51
25.85
23.3
21.32
20.24
20.16
20.92
22.16
23.37
24.1
23.95
22.79
20.58
17.41
13.39
8.67
3.42
-2.14
-7.76
-13.34
-18.89
-24.65
-30.96
-38.05
-45.77
-53.37
-59.64
-63.08
-62.49
-57.37
-48.18
-36.14
-22.86
-9.81
2.05
12.28
20.75
27.45
32.26
35.07
35.97
35.33
33.85
32.31
31.31
31.11
31.56
32.3
32.94
33.25
33.18
32.73
31.87
30.42
28.09
24.63
20.03
14.59
8.8
3.23
-1.75
-6.1
-10.07
-14.11
-18.7
-24.23
-30.82
-38.19
-45.56
-51.72
-55.26
-54.98
-50.33
-41.67
-30.15
-17.36
-4.76
6.65
16.45
24.57
31.03
35.77
38.66
39.72
39.21
37.7
35.96
34.64
34.15
34.44
35.16
35.83
36.12
35.91
35.36
34.65
33.8
32.6
30.56
27.27
22.55
16.61
10.05
3.55
-2.3
-7.27
-11.44
-15.24
-19.21
-23.88
-29.61
-36.44
-43.94
-51.23
-57.05
-60.1
-59.33
-54.33
-45.41
-33.64
-20.47
-7.43
4.25
13.8
20.95
25.78
28.54
29.52
29.08
27.59
25.56
23.54
22.0
21.27
21.35
22.01
22.89
23.6
23.91
23.72
23.02
21.79
19.93
17.31
13.81
9.5
4.63
-0.42
-5.29
-9.8
-14.08
-18.51
-23.53
-29.45
-36.13
-42.92
-48.69
-52.12
-52.12
-48.13
-40.37
-29.79
-17.78
-5.76
5.05
13.88
20.33
24.31
25.95
25.54
23.57
20.68
17.55
14.84
13.02
12.25
12.43
13.22
14.21
15.06
15.52
15.44
14.72
13.29
11.0
7.78
3.62
-1.3
-6.64
-11.97
-16.89
-21.19
-24.95
-28.59
-32.73
-37.94
-44.49
-52.05
-59.65
-65.88
-69.21
-68.48
-63.26
-53.91
-41.57
-27.78
-14.08
-1.7
8.66
16.8
22.89
27.19
29.98
31.44
31.76
31.29
30.47
29.8
29.66
30.14
31.0
31.88
32.39
32.4
31.98
31.35
30.62
29.67
28.16
25.64
21.86
16.89
11.16
5.32
-0.07
-4.69
-8.58
-12.07
-15.73
-20.1
-25.62
-32.41
-40.16
-48.05
-54.79
-58.91
-59.11
-54.77
-46.15
-34.41
-21.26
-8.36
3.08
12.48
19.8
25.25
29.01
31.17
31.78
31.06
29.5
27.76
26.51
26.16
26.73
27.85
28.96
29.6
29.51
28.75
27.58
26.28
24.9
23.25
20.99
17.79
13.55
8.44
2.93
-2.46
-7.25
-11.18
-14.29
-16.92
-19.6
-22.94
-27.43
-33.23
-40.06
-47.15
-53.35
-57.38
-58.18
-55.15
-48.39
-38.66
-27.16
-15.29
-4.22
5.29
12.84
18.33
21.76
23.15
22.68
20.73
18.0
15.33
13.43
12.68
13.02
14.01
15.15
16.05
16.53
16.6
16.29
15.55
14.24
12.26
9.6
6.38
2.79
-0.96
-4.76
-8.59
-12.51
-16.65
-21.16
-26.23
-32.0
-38.35
-44.84
-50.5
-54.08
-54.32
-50.45
-42.46
-31.25
-18.34
-5.4
6.22
15.71
22.82
27.65
30.38
31.13
30.11
27.67
24.45
21.22
18.68
17.21
16.81
17.1
17.66
18.16
18.46
18.53
18.34
17.7
16.36
14.08
10.78
6.58
1.81
-3.12
-7.87
-12.28
-16.4
-20.51
-24.99
-30.27
-36.57
-43.74
-51.16
-57.67
-61.84
-62.34
-58.36
-49.96
-38.1
-24.36
-10.46
2.18
12.78
21.1
27.27
31.5
33.99
34.93
34.65
33.6
32.38
31.49
31.21
31.49
32.03
32.52
32.66
32.41
31.82
30.95
29.73
27.97
25.35
21.63
16.76
10.99
4.76
-1.42
-7.18
-12.43
-17.32
-22.22
-27.54
-33.66
-40.72
-48.53
-56.44
-63.3
-67.69
-68.31
-64.42
-56.16
-44.54
-31.13
-17.54
-5.01
5.72
14.32
20.66
24.68
26.42
26.11
24.26
21.61
18.99
17.06
16.23
16.51
17.61
19.11
20.61
21.84
22.65
22.99
22.71
21.61
19.48
16.22
11.98
7.16
2.2
-2.52
-6.89
-11.08
-15.44
-20.42
-26.41
-33.65
-41.95
-50.63
-58.43
-63.79
-65.21
-61.83
-53.79
-42.17
-28.72
-15.34
-3.55
5.84
12.64
17.13
19.75
20.87
20.68
19.33
17.06
14.24
11.47
9.38
8.42
8.7
9.99
11.77
13.47
14.62
14.94
14.38
13.05
11.1
8.67
5.78
2.4
-1.6
-6.32
-11.81
-18.03
-24.89
-32.13
-39.25
-45.41
-49.48
-50.2
-46.67
-38.71
-27.07
-13.31
0.65
13.12
23.0
29.92
34.05
35.75
35.41
33.38
30.09
26.11
22.15
18.92
16.91
16.29
16.85
18.12
19.47
20.37
20.43
19.47
17.53
14.74
11.28
7.27
2.76
-2.22
-7.65
-13.52
-19.85
-26.7
-34.16
-42.12
-50.07
-56.99
-61.46
-62.07
-57.91
-49.0
-36.35
-21.68
-6.91
6.43
17.44
25.89
31.93
35.79
37.62
37.58
35.95
33.24
30.19
27.58
25.97
25.54
26.01
26.87
27.46
27.31
26.16
24.05
21.17
17.75
13.96
9.83
5.28
0.2
-5.54
-12.04
-19.4
-27.69
-36.84
-46.47
-55.72
-63.3
-67.75
-67.87
-63.18
-54.14
-42.02
-28.52
-15.3
-3.57
6.0
13.28
18.39
21.58
23.1
23.25
22.43
21.2
20.2
20.01
20.96
22.99
25.69
28.44
30.62
31.85
32.0
31.13
29.39
26.88
23.7
19.94
15.72
11.17
6.35
1.17
-4.57
-11.07
-18.31
-25.89
-32.93
-38.17
-40.33
-38.46
-32.41
-22.89
-11.34
0.56
11.37
20.22
26.82
31.18
33.36
33.36
31.23
27.29
22.28
17.26
13.26
10.98
10.54
11.5
13.11
14.57
15.34
15.12
13.94
11.91
9.21
5.91
2.0
-2.58
-7.87
-13.81
-20.29
-27.15
-34.13
-40.86
-46.74
-50.84
-52.16
-49.81
-43.44
-33.48
-21.07
-7.76
4.98
16.03
24.76
30.95
34.65
36.02
35.39
33.2
30.07
26.7
23.79
21.91
21.3
21.8
22.88
23.83
23.95
22.82
20.39
16.98
12.98
8.77
4.52
0.26
-4.12
-8.76
-13.92
-19.9
-26.96
-35.15
-43.98
-52.46
-59.13
-62.48
-61.38
-55.44
-45.13
-31.72
-16.88
-2.3
10.63
21.11
28.85
33.99
36.87
37.9
37.52
36.2
34.46
32.83
31.75
31.42
31.81
32.67
33.61
34.26
34.27
33.44
31.66
28.97
25.48
21.37
16.78
11.84
6.71
1.55
-3.46
-8.25
-12.9
-17.81
-23.44
-30.08
-37.6
-45.19
-51.55
-55.19
-54.88
-50.1
-41.16
-29.11
-15.46
-1.72
10.93
21.78
30.62
37.49
42.48
45.68
47.12
47.02
45.8
44.17
42.81
42.25
42.62
43.63
44.78
45.56
45.67
45.03
43.75
41.92
39.52
36.36
32.21
26.96
20.71
13.94
7.3
1.41
-3.42
-7.33
-10.88
-14.78
-19.68
-25.93
-33.48
-41.98
-50.74
-58.77
-64.88
-67.79
-66.53
-60.73
-50.85
-38.16
-24.33
-11.05
0.5
9.7
16.47
21.02
23.62
24.54
24.08
22.67
20.89
19.32
18.42
18.39
19.07
20.13
21.24
22.19
22.91
23.29
23.14
22.11
19.83
16.11
11.15
5.45
-0.31
-5.64
-10.33
-14.53
-18.61
-22.98
-27.97
-33.71
-40.09
-46.62
-52.36
-56.09
-56.54
-52.9
-45.09
-33.93
-20.9
-7.67
4.33
14.18
21.54
26.45
29.14
29.95
29.27
27.57
25.41
23.37
21.93
21.37
21.66
22.55
23.62
24.49
24.88
24.66
23.76
22.06
19.46
15.9
11.45
6.35
0.94
-4.42
-9.56
-14.48
-19.33
-24.36
-29.85
-35.99
-42.85
-50.15
-57.16
-62.73
-65.52
-64.43
-59.02
-49.7
-37.63
-24.33
-11.24
0.62
10.72
18.94
25.33
29.97
32.97
34.45
34.66
34.03
33.15
32.57
32.66
33.45
34.6
35.61
36.05
35.76
34.85
33.56
32.0
30.06
27.44
23.83
19.2
13.82
8.19
2.85
-1.84
-5.91
-9.65
-13.55
-18.13
-23.82
-30.74
-38.65
-46.87
-54.26
-59.42
-61.03
-58.25
-51.01
-40.13
-27.1
-13.61
-1.09
9.61
18.27
25.03
30.13
33.68
35.72
36.34
35.87
34.88
34.01
33.71
34.08
34.86
35.58
35.82
35.37
34.21
32.5
30.36
27.79
24.69
20.85
16.16
10.6
4.43
-1.97
-8.1
-13.55
-18.18
-22.23
-26.2
-30.72
-36.19
-42.51
-48.99
-54.4
-57.36
-56.7
-51.9
-43.28
-31.94
-19.37
-7.1
3.74
12.56
19.22
23.83
26.55
27.49
26.85
24.98
22.46
19.92
17.96
16.88
16.72
17.25
18.14
19.0
19.5
19.35
18.33
16.34
13.4
9.72
5.59
1.33
-2.85
-6.93
-11.07
-15.54
