0
-80.2
-64.35
-43.67
-21.83
-2.18
13.34
24.55
32.43
38.19
42.41
44.96
45.39
43.57
40.09
36.15
33.07
31.77
32.45
34.56
37.08
38.98
39.57
38.72
36.77
34.29
31.8
29.51
27.23
24.5
20.82
15.87
9.75
2.97
-3.75
-9.71
-14.58
-18.51
-22.04
-25.84
-30.49
-36.38
-43.71
-52.54
-62.59
-72.94
-81.81
-86.76
-85.37
-76.29
-60.02
-38.95
-16.62
3.63
19.62
30.74
37.61
41.21
42.2
40.86
37.39
32.4
27.09
22.88
20.9
21.42
23.75
26.63
28.83
29.67
29.24
28.16
27.11
26.33
25.43
23.58
20.03
14.52
7.52
0.02
-6.87
-12.43
-16.61
-19.98
-23.47
-27.99
-34.24
-42.52
-52.58
-63.35
-72.9
-78.69
-78.27
-70.34
-55.37
-35.68
-14.66
4.47
19.75
30.71
37.99
42.5
44.7
44.57
41.98
37.24
31.39
25.9
22.12
20.71
21.36
23.02
24.47
24.84
24.04
22.65
21.47
21.02
21.12
20.89
19.2
15.28
9.12
1.53
-6.21
-12.98
-18.28
-22.31
-25.87
-29.97
-35.46
-42.91
-52.5
-63.89
-75.91
-86.49
-92.83
-92.27
-83.31
-66.49
-44.42
-20.97
0.23
16.88
28.55
36.15
40.96
43.77
44.64
43.31
39.92
35.29
30.85
28.02
27.49
28.97
31.33
33.22
33.69
32.61
30.62
28.71
27.59
27.28
27.03
25.74
22.49
17.06
10.05
2.64
-3.97
-9.11
-12.81
-15.84
-19.26
-24.01
-30.64
-39.31
-49.78
-61.37
-72.73
-81.84
-86.26
-83.83
-73.62
-56.52
-35.16
-13.09
6.47
21.66
32.21
38.93
42.88
44.73
44.6
42.51
38.86
34.58
30.93
28.87
28.66
29.84
31.42
32.46
32.46
31.55
30.2
28.87
27.72
26.43
24.33
20.81
15.63
9.13
2.09
-4.53
-10.07
-14.45
-18.1
-21.91
-26.8
-33.49
-42.26
-52.9
-64.41
-75.04
-82.39
-84.09
-78.56
-65.79
-47.51
-26.67
-6.46
10.74
23.79
32.71
38.07
40.47
40.27
37.79
33.64
28.84
24.64
22.08
21.64
23.06
25.52
28.0
29.74
30.47
30.41
29.97
29.32
28.27
26.2
22.53
17.05
10.23
3.01
-3.61
-9.07
-13.52
-17.73
-22.66
-29.19
-37.82
-48.56
-60.71
-72.85
-82.7
-87.72
-85.76
-76.03
-59.59
-39.15
-18.17
0.36
14.82
25.09
32.02
36.59
39.3
40.13
38.93
35.97
32.13
28.66
26.72
26.8
28.57
31.02
33.04
33.81
33.24
31.74
30.0
28.5
27.25
25.77
23.39
19.61
14.42
8.36
2.24
-3.18
-7.57
-11.17
-14.71
-19.09
-25.13
-33.3
-43.66
-55.65
-67.98
-78.64
-85.16
-85.32
-77.99
-63.74
-44.72
-24.02
-4.59
11.68
24.28
33.66
40.55
45.34
47.9
47.94
45.47
41.21
36.42
32.58
30.7
31.05
33.01
35.48
37.34
37.91
37.22
35.76
34.21
32.96
31.92
30.52
28.07
24.1
18.65
12.31
5.99
0.49
-3.84
-7.19
-10.26
-13.92
-18.93
-25.81
-34.73
-45.53
-57.53
-69.28
-78.6
-83.0
-80.54
-70.63
-54.58
-35.12
-15.56
1.49
14.73
24.17
30.45
34.14
35.43
34.29
31.03
26.5
22.05
18.97
17.97
18.92
20.99
23.08
24.35
24.55
24.06
23.54
23.5
23.91
24.17
23.33
20.68
16.17
10.5
4.82
0.07
-3.42
-6.1
-8.97
-13.09
-19.26
-27.75
-38.21
-49.54
-59.97
-67.17
-68.9
-63.81
-52.14
-35.76
-17.57
-0.46
13.69
24.3
31.77
36.78
39.7
40.52
39.11
35.75
31.26
26.89
23.85
22.82
23.79
26.05
28.53
30.26
30.66
29.82
28.28
26.74
25.57
24.61
23.15
20.34
15.67
9.27
1.93
-5.18
-11.18
-15.74
-19.3
-22.74
-27.09
-33.16
-41.41
-51.85
-63.86
-75.99
-86.01
-91.25
-89.42
-79.61
-62.79
-41.71
-19.92
-0.53
14.77
25.85
33.64
39.19
43.02
45.1
45.16
43.3
40.21
36.99
34.74
34.08
35.03
37.0
39.11
40.55
40.83
39.88
38.0
35.65
33.24
30.95
28.64
25.94
22.42
17.83
12.22
6.06
0.03
-5.23
-9.38
-12.58
-15.48
-18.97
-23.85
-30.69
-39.7
-50.6
-62.56
-74.0
-82.69
-86.18
-82.6
-71.49
-54.2
-33.54
-12.87
5.09
18.97
28.77
35.29
39.31
41.21
40.95
38.58
34.67
30.32
26.87
25.31
25.9
28.1
30.83
32.98
33.88
33.52
32.34
31.03
29.97
29.04
27.63
24.98
20.62
14.61
7.69
0.87
-4.98
-9.47
-12.98
-16.35
-20.63
-26.62
-34.69
-44.59
-55.58
-66.27
-74.84
-79.28
-77.87
-69.82
-55.72
-37.49
-17.88
0.43
15.58
26.89
34.57
39.27
41.49
41.42
39.2
35.33
30.77
26.84
24.64
24.6
26.29
28.68
30.65
31.49
31.18
30.22
29.19
28.36
27.4
25.61
22.19
16.76
9.61
1.65
-5.97
-12.31
-17.05
-20.59
-23.9
-28.14
-34.24
-42.71
-53.37
-65.22
-76.37
-84.27
-86.31
-80.76
-67.58
-48.67
-27.32
-6.97
9.95
22.61
31.56
37.8
41.98
44.08
43.77
41.06
36.75
32.3
29.16
28.18
29.2
31.24
32.96
33.32
31.99
29.39
26.38
23.85
22.29
21.57
21.01
19.72
17.05
12.81
7.42
1.69
-3.6
-8.02
-11.69
-15.21
-19.35
-24.85
-32.18
-41.51
-52.51
-64.21
-74.77
-81.75
-82.69
-76.06
-62.01
-42.59
-21.06
-0.8
15.88
28.15
36.5
41.83
44.85
45.71
44.36
40.98
36.3
31.51
27.82
25.98
26.02
27.28
28.79
29.71
29.7
28.95
27.99
27.35
27.1
26.8
25.57
22.55
17.4
10.51
2.88
-4.33
-10.34
-15.14
-19.38
-24.1
-30.23
-38.25
-48.15
-59.29
-70.43
-79.7
-84.88
-83.85
-75.5
-60.2
-39.98
-18.0
2.55
19.34
31.4
38.95
42.77
43.71
42.39
39.34
35.23
30.96
27.52
25.56
25.24
26.16
27.53
28.56
28.71
27.95
26.6
25.05
23.46
21.57
18.85
14.74
9.16
2.52
-4.3
-10.42
-15.31
-19.08
-22.42
-26.34
-31.9
-39.8
-50.17
-62.09
-73.67
-82.18
-84.77
-79.54
-66.34
-47.08
-25.14
-4.18
13.11
25.65
33.91
39.05
42.03
43.16
42.26
39.19
34.43
29.17
24.9
22.73
22.87
24.57
26.47
27.3
26.46
24.22
21.51
19.29
18.07
17.58
16.95
15.11
11.38
5.8
-0.89
-7.58
-13.31
-17.69
-21.02
-24.14
-27.97
-33.29
-40.55
-49.76
-60.42
-71.28
-80.24
-84.68
-82.24
-71.91
-54.62
-33.22
-11.44
7.49
21.89
31.84
38.52
43.11
46.12
47.27
46.19
42.94
38.39
33.94
30.89
29.96
30.99
33.12
35.21
36.36
36.16
34.8
32.88
31.02
29.56
28.4
27.02
24.74
21.01
15.67
9.05
1.86
-5.1
-11.23
-16.31
-20.62
-24.8
-29.6
-35.63
-43.28
-52.52
-62.83
-72.98
-81.0
-84.48
-81.34
-70.69
-53.43
-32.18
-10.39
8.84
23.67
33.86
40.11
43.35
44.09
42.49
38.71
33.41
27.81
23.26
20.74
20.4
21.65
23.47
24.89
25.48
25.36
25.01
24.87
24.94
24.76
23.55
20.65
15.92
9.86
3.41
-2.53
-7.46
-11.53
-15.41
-19.96
-25.97
-33.88
-43.65
-54.55
-65.03
-72.86
-75.63
-71.55
-60.25
-43.11
-22.92
-2.94
14.24
27.27
36.03
41.14
43.26
42.8
40.01
35.33
29.63
24.13
20.02
17.99
17.97
19.2
20.67
21.54
21.54
20.93
20.16
19.5
18.73
17.18
14.11
9.2
2.79
-4.27
-10.94
-16.54
-21.01
-24.85
-28.91
-34.08
-41.09
-50.28
-61.46
-73.51
-84.3
-91.03
-90.93
-82.46
-66.07
-44.3
-20.95
0.31
17.17
29.08
36.84
41.67
44.34
44.95
43.38
39.84
35.25
31.02
28.47
28.14
29.64
31.84
33.45
33.7
32.56
30.67
28.85
27.61
26.8
25.72
23.35
18.99
12.62
4.93
-2.89
-9.73
-14.98
-18.8
-21.99
-25.69
-30.85
-38.1
-47.56
-58.74
-70.36
-80.36
-86.14
-85.31
-76.62
-60.75
-40.17
-18.37
1.49
17.5
29.29
37.51
42.94
45.97
46.51
44.52
40.43
35.37
30.79
27.89
27.11
28.1
29.93
31.57
32.36
32.24
31.64
31.14
31.05
31.14
30.64
28.61
24.43
18.17
10.68
3.2
-3.15
-7.9
-11.43
-14.74
-19.0
-25.11
-33.46
-43.88
-55.69
-67.63
-77.85
-84.12
-84.29
-77.14
-63.01
-43.94
-23.07
-3.59
12.31
23.91
31.65
36.39
38.75
38.9
36.91
33.15
28.6
24.54
22.07
21.58
22.63
24.23
25.4
25.62
25.0
24.06
23.29
22.74
21.96
20.25
17.06
12.3
6.5
0.49
-4.93
-9.37
-13.02
-16.54
-20.79
-26.61
-34.52
-44.51
-55.86
-66.93
-75.42
-78.9
-75.61
-65.25
-49.16
-29.97
-10.65
6.45
20.09
30.12
36.93
40.93
42.31
41.19
37.96
33.45
28.9
25.53
24.16
24.92
27.21
29.95
32.04
32.71
31.87
30.03
27.98
26.43
25.53
24.79
23.3
20.21
15.18
8.57
1.33
-5.48
-11.14
-15.57
-19.29
-23.08
-27.73
-33.82
-41.67
-51.28
-62.08
-72.76
-81.13
-84.63
-81.21
-70.17
-52.78
-31.9
-10.97
7.21
21.32
31.52
38.77
43.91
47.25
48.56
47.68
44.96
41.39
38.2
36.41
36.34
37.67
39.56
41.14
41.83
41.42
40.05
38.09
35.82
33.48
31.0
28.09
24.34
19.46
13.42
6.63
-0.22
-6.41
-11.49
-15.52
-19.0
-22.67
-27.2
-33.06
-40.44
-49.33
-59.43
-69.86
-78.97
-84.53
-84.23
-76.7
-62.19
-42.74
-21.53
-1.78
14.31
26.0
33.67
38.16
40.04
39.61
37.1
33.14
28.8
25.38
23.88
24.54
26.78
29.52
31.62
32.43
31.91
30.51
28.83
27.2
25.51
23.31
20.06
15.5
9.91
3.95
-1.56
-6.01
-9.36
-12.15
-15.27
-19.67
-26.05
-34.6
-44.83
-55.41
-64.35
-69.32
-68.39
-60.65
-46.78
-28.87
-9.73
7.99
22.61
33.59
41.24
46.08
48.5
48.68
46.9
43.79
40.38
37.79
36.82
37.69
40.01
43.01
45.84
47.9
48.99
49.26
49.05
48.68
48.28
47.71
46.65
44.85
42.24
39.12
35.97
33.29
31.28
29.84
28.6
27.15
25.25
22.93
20.41
18.01
16.02
14.6
13.71
13.16
12.66
11.85
10.51
8.64
6.43
4.24
2.47
1.31
0.66
0.2
-0.49
-1.75
-3.61
-5.84
-8.01
-9.73
-10.85
-11.6
-12.46
-14.06
-16.77
-20.56
-24.93
-29.2
-32.77
-35.48
-37.66
-40.03
-43.38
-48.19
-54.44
-61.53
-68.54
-74.54
-79.01
-82.09
-84.53
-87.57
-92.52
-100.4
-111.54
-125.23
-139.4
-150.67
-154.85
-148.12
-128.49
-97.05
-58.03
-17.72
17.7
44.18
60.83
69.32
72.47
72.52
70.45
66.3
60.14
52.83
45.99
41.3
39.55
40.25
41.88
42.84
42.2
40.09
37.52
35.63
34.99
35.18
34.92
32.71
27.52
19.41
9.53
-0.34
-8.51
-14.13
-17.46
-19.68
-22.38
-26.99
-34.28
-44.23
-55.86
-67.19
-75.55
-78.01
-72.39
-58.19
-37.13
-12.71
10.82
30.02
43.2
50.55
53.45
53.42
51.36
47.55
42.08
35.4
28.49
22.59
18.65
16.98
17.18
18.45
19.94
20.99
21.22
20.39
18.36
14.98
10.26
4.37
-2.27
-9.14
-15.7
-21.63
-26.86
-31.67
-36.64
-42.61
-50.5
-60.82
-73.09
-85.33
-94.27
-96.27
-88.8
-71.72
-47.64
-21.01
3.52
22.8
35.99
44.08
48.72
51.13
51.57
49.83
45.92
40.64
35.42
31.64
29.97
30.05
30.82
31.07
30.14
28.15
25.82
23.92
22.74
21.84
20.24
16.88
11.25
3.66
-4.83
-12.88
-19.48
-24.36
-28.1
-31.84
-36.84
-44.14
-54.19
-66.67
-80.27
-92.59
-100.55
-101.23
-92.94
-76.13
-53.39
-28.68
-5.88
12.46
25.73
34.7
40.64
44.32
45.81
44.92
41.82
37.49
33.47
31.21
31.3
33.27
35.77
37.32
37.03
34.94
31.91
29.03
27.02
25.9
24.95
23.2
19.86
14.71
8.26
1.39
-4.97
-10.27
-14.59
-18.56
-23.12
-29.25
-37.62
-48.4
-60.98
-73.86
-84.75
-91.02
-90.43
-82.03
-66.67
-46.79
-25.67
-6.24
9.73
21.8
30.39
36.1
39.28
39.98
38.38
35.08
31.12
27.67
25.56
25.04
25.77
27.05
28.15
28.64
28.33
27.35
25.85
23.96
21.65
18.75
15.15
10.85
6.12
1.4
-2.95
-6.78
-10.32
-14.13
-19.02
-25.66
-34.35
-44.66
-55.3
-64.3
-69.44
-69.0
-62.44
-50.51
-35.14
-18.68
-3.16
10.19
20.92
29.09
34.81
38.07
38.83
37.28
34.08
30.27
27.02
25.16
24.94
25.92
27.25
28.09
27.96
26.92
25.42
23.95
22.72
21.52
19.77
16.94
12.85
7.79
2.44
-2.48
-6.51
-9.68
-12.42
-15.42
-19.37
-24.74
-31.76
-40.3
-49.75
-58.94
-66.19
-69.66
-67.85
-60.21
-47.44
-31.34
-14.2
1.94
15.81
26.97
35.56
41.72
45.43
46.53
44.99
41.29
36.4
31.54
27.83
25.87
25.64
26.63
28.04
29.14
29.47
28.95
27.8
26.36
24.91
23.49
21.91
19.88
17.19
13.79
9.85
5.62
1.35
-2.86
-7.01
-11.16
-15.36
-19.73
-24.47
-29.93
-36.49
-44.33
-53.14
-61.91
-69.03
-72.69
-71.47
-64.88
-53.55
-39.07
-23.38
-8.17
5.43
16.99
26.45
33.81
39.03
42.05
43.01
42.34
40.76
39.09
37.98
37.78
38.47
39.73
41.04
41.88
41.89
41.0
39.36
37.3
35.1
32.84
30.35
27.32
23.52
18.98
14.02
9.09
4.56
0.52
-3.21
-6.92
-10.86
-15.13
-19.75
-24.74
-30.3
-36.61
-43.74
-51.23
-58.09
-62.88
-64.21
-61.18
-53.79
-42.91
-29.97
-16.48
-3.6
7.96
17.81
25.69
31.3
34.38
34.96
33.49
30.85
28.14
26.27
25.81
26.82
28.93
31.49
33.83
35.39
35.93
35.49
34.37
32.93
31.41
29.77
27.75
24.99
21.28
16.69
11.62
6.51
1.7
-2.74
-7.01
-11.4
-16.16
-21.41
-27.23
-33.65
-40.73
-48.34
-55.96
-62.6
-66.95
-67.72
-64.21
-56.53
-45.58
-32.75
-19.4
-6.48
5.4
15.94
24.82
31.68
36.2
38.3
38.34
37.07
35.41
34.19
33.88
34.53
35.83
37.34
38.68
39.68
40.34
40.73
40.77
40.28
38.95
36.6
33.31
29.44
25.49
21.82
18.51
15.26
11.67
7.48
2.69
-2.4
-7.41
-12.06
-16.39
-20.67
-25.35
-30.82
-37.35
-45.0
-53.5
-62.19
-70.05
-75.76
-78.06
-76.1
-69.7
-59.44
-46.46
-32.07
-17.44
-3.39
9.62
21.23
31.07
38.73
43.83
46.31
46.52
45.21
43.3
41.59
40.55
40.24
40.47
41.01
41.7
42.53
43.43
44.32
44.9
44.79
43.63
41.26
37.75
33.47
28.96
24.72
21.07
18.02
15.24
12.27
8.68
4.3
-0.77
-6.12
-11.31
-15.97
-20.0
-23.64
-27.29
-31.51
-36.83
-43.57
-51.66
-60.54
-69.12
-75.92
-79.4
-78.38
-72.4
-61.89
-48.02
-32.46
-16.8
-2.26
10.43
20.96
29.25
35.22
38.83
40.2
39.65
37.76
35.31
32.99
31.32
30.53
30.58
31.27
32.34
33.53
34.62
35.38
35.59
35.08
33.74
31.6
28.76
25.44
21.84
18.18
14.59
11.07
7.51
3.8
-0.14
-4.21
-8.24
-12.08
-15.71
-19.34
-23.41
-28.42
-34.75
-42.46
-51.04
-59.42
-66.14
-69.62
-68.71
-63.08
-53.31
-40.74
-26.99
-13.41
-0.89
10.21
19.72
27.49
33.25
36.78
38.12
37.67
36.13
34.28
32.72
31.79
31.57
31.94
32.74
33.83
35.04
36.26
37.31
38.0
38.11
37.41
35.69
32.9
29.11
24.68
20.11
15.91
12.42
9.66
7.28
4.76
1.63
-2.35
-7.06
-12.1
-16.97
-21.3
-25.03
-28.43
-32.06
-36.52
-42.37
-49.78
-58.43
-67.33
-74.95
-79.5
-79.5
-74.28
-64.23
-50.69
-35.51
-20.47
-6.78
5.03
14.92
23.01
29.31
33.73
36.21
36.91
36.29
35.05
33.86
33.16
33.08
33.43
33.93
34.34
34.64
34.94
35.43
36.16
36.96
37.47
37.26
36.03
33.75
30.64
27.13
23.62
20.38
17.49
14.84
12.18
9.26
5.86
1.89
-2.6
-7.4
-12.21
-16.68
-20.62
-24.08
-27.32
-30.72
-34.81
-40.05
-46.67
-54.45
-62.55
-69.45
-73.34
-72.67
-66.76
-56.18
-42.5
-27.81
-13.93
-1.95
7.88
15.81
22.14
26.96
30.13
31.53
31.3
29.91
28.04
26.33
25.21
24.81
25.09
25.83
26.9
28.18
29.45
30.5
30.98
30.56
29.06
26.51
23.2
19.56
16.0
12.75
9.82
6.99
3.94
0.47
-3.46
-7.64
-11.76
-15.52
-18.83
-21.77
-24.67
-27.98
-32.17
-37.56
-44.09
-51.12
-57.31
-60.92
-60.24
-54.38
-43.68
-29.69
-14.67
-0.8
10.51
18.83
24.45
27.88
29.44
29.29
27.56
24.68
21.41
18.58
16.84
16.41
17.05
18.28
19.59
20.61
21.15
21.13
20.52
19.32
17.63
15.62
13.49
11.45
9.48
7.38
4.75
1.23
-3.31
-8.65
-14.25
-19.46
-23.77
-27.02
-29.4
-31.42
-33.7
-36.88
-41.43
-47.48
-54.57
-61.48
-66.43
-67.44
-63.15
-53.35
-39.22
-22.95
-7.02
6.64
17.09
24.29
28.71
30.94
31.39
30.35
28.18
25.35
22.44
19.9
18.05
16.96
16.56
16.74
17.4
18.4
19.59
20.74
21.59
21.88
21.42
20.2
18.24
15.71
12.83
9.81
6.8
3.85
0.91
-2.14
-5.42
-8.9
-12.45
-15.87
-19.04
-22.04
-25.2
-29.06
-34.21
-40.93
-48.92
-57.09
-63.66
-66.65
-64.53
-56.82
-44.38
-29.2
-13.68
0.14
11.14
19.21
24.87
28.81
31.39
32.7
32.61
31.18
28.73
25.84
23.15
21.16
20.13
20.08
20.78
21.93
23.2
24.26
24.93
25.08
24.67
23.71
22.23
20.24
17.76
14.81
11.38
7.48
3.24
-1.16
-5.38
-9.13
-12.3
-15.03
-17.82
-21.29
-25.97
-32.14
-39.74
-48.25
-56.78
-64.05
-68.47
-68.49
-63.1
-52.3
-37.34
-20.42
-3.98
9.99
20.52
27.62
31.81
33.68
33.6
31.71
28.26
23.83
19.3
15.6
13.4
12.78
13.36
14.45
15.37
15.79
15.7
15.34
14.89
14.33
13.35
11.54
8.61
4.63
0.1
-4.22
-7.67
-9.97
-11.46
-12.89
-15.21
-19.19
-25.19
-33.04
-42.03
-50.88
-57.92
-61.41
-59.98
-53.15
-41.61
-27.01
-11.52
2.9
14.92
24.04
30.3
33.92
35.12
34.1
31.22
27.11
22.61
18.55
15.55
13.79
13.07
12.97
13.04
12.96
12.64
12.13
11.57
11.0
10.28
9.08
6.98
3.69
-0.76
-5.96
-11.23
-15.89
-19.58
-22.41
-25.02
-28.25
-32.98
-39.66
-48.11
-57.4
-65.8
-71.18
-71.6
-65.99
-54.61
-39.13
-22.02
-5.76
7.93
18.45
25.99
31.05
33.96
34.77
33.51
30.53
26.61
22.8
20.05
18.93
19.37
20.84
22.55
23.76
24.03
23.32
21.94
20.36
18.97
17.8
16.5
14.5
11.3
6.82
1.47
-3.97
-8.75
-12.39
-15.02
-17.19
-19.77
-23.57
-29.13
-36.67
-45.84
-55.75
-64.85
-71.21
-72.93
-68.78
-58.7
-43.93
-26.69
-9.5
5.62
17.57
26.25
32.11
35.72
37.41
37.33
35.6
32.65
29.23
26.26
24.47
24.13
24.96
26.25
27.26
27.5
26.87
25.62
24.14
22.75
21.52
20.28
18.7
16.42
13.2
9.07
4.32
-0.63
-5.3
-9.39
-12.89
-16.06
-19.32
-23.18
-28.17
-34.68
-42.83
-52.14
-61.34
-68.45
-71.32
-68.33
-59.12
-44.83
-27.75
-10.52
4.74
16.91
25.91
32.25
36.51
39.05
39.94
39.22
37.06
33.97
30.65
27.86
26.16
25.75
26.42
27.7
28.98
29.79
29.85
29.13
27.8
26.04
23.97
21.59
18.78
15.35
11.24
6.55
1.61
-3.19
-7.43
-10.89
-13.66
-16.14
-18.9
-22.56
-27.58
-34.2
-42.26
-51.1
-59.48
-65.73
-68.06
-65.13
-56.59
-43.27
-27.06
-10.28
4.95
17.33
26.37
32.28
35.47
36.28
34.98
31.94
27.81
23.54
20.13
18.3
18.25
19.59
21.55
23.33
24.43
24.78
24.63
24.32
24.02
23.58
22.62
20.71
17.59
13.37
8.52
3.7
-0.51
-3.88
-6.57
-9.18
-12.42
-16.94
-23.09
-30.78
-39.38
-47.78
-54.43
-57.75
-56.5
-50.25
-39.62
-26.14
-11.78
1.57
12.62
20.81
26.13
28.87
29.3
27.74
24.63
20.65
16.73
13.79
12.49
12.94
14.74
17.06
19.04
20.09
20.09
19.34
18.35
17.5
16.79
15.81
13.98
10.82
6.31
0.85
-4.81
-9.93
-14.1
-17.35
-20.18
-23.32
-27.53
-33.39
-40.99
-49.78
-58.37
-64.8
-67.0
-63.51
-54.14
-40.12
-23.74
-7.53
6.58
17.72
25.98
31.87
35.81
37.86
37.84
35.69
31.86
27.31
23.22
20.63
19.99
21.08
23.12
25.17
26.45
26.65
25.94
24.76
23.58
22.53
21.41
19.74
17.05
13.13
8.23
2.95
-2.04
-6.19
-9.38
-11.9
-14.33
-17.29
-21.3
-26.73
-33.73
-42.23
-51.75
-61.19
-68.85
-72.68
-71.06
-63.31
-50.25
-33.91
-16.91
-1.47
11.17
20.83
28.07
33.5
37.43
39.72
40.18
38.85
36.24
33.24
30.78
29.48
29.46
30.39
31.64
32.66
33.09
32.85
32.05
30.82
29.22
27.25
24.83
21.91
18.51
14.65
10.39
5.82
1.08
-3.58
-7.94
-11.84
-15.33
-18.68
-22.31
-26.64
-32.07
-38.87
-47.07
-56.21
-65.13
-72.07
-74.95
-72.13
-63.13
-48.92
-31.75
-14.32
1.15
13.48
22.55
28.9
33.04
35.23
35.44
33.76
30.66
27.02
23.91
22.1
21.84
22.74
24.01
24.9
24.99
24.36
23.44
22.69
22.27
21.96
21.18
19.38
16.28
12.12
7.52
3.25
-0.13
-2.55
-4.43
-6.59
-9.9
-15.04
-22.31
-31.48
-41.75
-51.71
-59.59
-63.51
-62.12
-55.01
-42.96
-27.81
-11.77
3.14
15.65
25.27
32.02
36.12
37.71
36.97
34.24
30.2
25.82
22.12
19.82
19.2
19.94
21.36
22.71
23.4
23.26
22.51
21.52
20.61
19.78
18.67
16.66
13.22
8.23
2.1
-4.34
-10.16
-14.77
-18.12
-20.75
-23.46
-27.05
-32.09
-38.8
-47.04
-56.14
-64.9
-71.57
-74.2
-71.22
-62.12
-47.84
-30.52
-12.77
3.15
16.04
25.75
32.79
37.71
40.76
41.87
40.99
38.43
34.91
31.45
28.94
27.88
28.2
29.37
30.68
31.56
31.77
31.33
30.49
29.45
28.26
26.77
24.73
21.88
18.13
13.55
8.44
3.22
-1.72
-6.09
-9.83
-13.08
-16.18
-19.52
-23.54
-28.63
-35.09
-42.96
-51.73
-60.17
-66.37
-68.27
-64.4
-54.54
-39.93
-22.9
-6.1
8.46
19.83
28.04
33.62
37.08
38.67
38.42
36.52
33.48
30.07
27.13
25.27
24.71
25.25
26.5
27.98
29.25
29.99
29.97
29.06
27.36
25.12
22.69
20.33
18.12
15.82
13.11
9.7
5.57
1.02
-3.51
-7.6
-11.05
-13.99
-16.74
-19.78
-23.64
-28.81
-35.61
-43.99
-53.18
-61.62
-67.21
-67.93
-62.61
-51.47
-36.14
-19.12
-2.94
10.63
20.82
27.76
31.95
33.85
33.71
31.75
28.35
24.26
20.47
17.85
16.91
17.54
19.16
20.9
22.08
22.42
21.94
20.99
19.78
18.37
16.57
14.1
10.78
6.64
1.99
-2.7
-6.93
-10.45
-13.3
-15.85
-18.66
-22.21
-26.86
-32.71
-39.59
-46.99
-53.98
-59.18
-60.99
-58.02
-49.73
-36.83
-21.17
-5.19
8.93
19.93
27.62
32.51
35.28
36.25
35.46
32.9
28.94
24.42
20.5
18.17
17.87
19.32
21.64
23.75
24.83
24.52
22.97
20.7
18.23
15.84
13.42
10.63
7.09
2.66
-2.45
-7.7
-12.45
-16.27
-19.17
-21.59
-24.29
-27.9
-32.79
-39.01
-46.25
-54.03
-61.51
-67.54
-70.63
-69.32
-62.67
-50.81
-35.18
-18.09
-2.04
11.16
20.86
27.41
31.62
34.2
35.45
35.38
34.0
31.62
28.82
26.31
24.65
24.11
24.55
25.57
26.64
27.25
27.11
26.13
24.5
22.5
20.41
18.36
16.26
13.94
11.22
8.05
4.5
0.81
-2.77
-6.0
-8.78
-11.24
-13.69
-16.58
-20.38
-25.5
-32.08
-40.03
-48.8
-57.33
-64.03
-67.09
-65.02
-57.21
-44.44
-28.63
-12.3
2.32
13.94
22.36
28.17
32.11
34.69
36.02
36.02
34.71
32.41
29.72
27.32
25.76
25.26
25.69
26.66
27.67
28.31
28.37
27.79
26.62
24.96
22.86
20.38
17.49
14.17
10.43
6.3
1.92
-2.52
-6.75
-10.55
-13.84
-16.73
-19.52
-22.57
-26.29
-30.97
-36.86
-43.96
-51.85
-59.48
-65.23
-67.28
-64.22
-55.68
-42.55
-26.76
-10.64
3.89
15.73
24.62
30.81
34.64
36.27
35.79
33.33
29.38
24.73
20.38
17.25
15.91
16.35
18.05
20.13
21.73
22.33
21.94
20.87
19.62
18.44
17.2
15.47
12.8
9.03
4.44
-0.37
-4.74
-8.27
-11.03
-13.46
-16.19
-19.8
-24.7
-31.03
-38.64
-46.92
-54.71
-60.38
-62.19
-58.91
-50.35
-37.58
-22.6
-7.66
5.49
15.99
23.83
29.35
32.86
34.45
34.05
31.76
28.09
23.9
20.23
17.9
17.25
18.05
19.62
21.16
22.05
22.06
21.37
20.36
19.35
18.46
17.51
16.17
14.11
11.12
7.21
2.56
-2.46
-7.45
-12.01
-15.93
-19.27
-22.34
-25.69
-29.87
-35.38
-42.45
-50.89
-59.9
-67.98
-73.09
-73.21
-67.03
-54.68
-37.8
-19.11
-1.41
13.22
23.92
30.89
34.85
36.5
36.34
34.75
32.2
29.35
26.91
25.41
25.0
25.52
26.6
27.86
29.02
29.92
30.45
30.52
29.96
28.69
26.66
23.94
20.76
17.38
14.04
10.82
7.61
4.24
0.57
-3.37
-7.41
-11.26
-14.72
-17.81
-20.72
-23.83
-27.64
-32.61
-39.09
-47.06
-55.81
-63.84
-69.06
-69.37
-63.55
-51.83
-36.0
-18.82
-2.97
9.82
19.14
25.52
29.82
32.58
33.81
33.29
31.04
27.57
23.87
21.0
19.68
20.0
21.47
23.3
24.79
25.52
25.45
24.79
23.85
22.8
21.6
20.01
17.68
14.36
10.01
4.92
-0.33
-5.08
-8.86
-11.63
-13.78
-16.04
-19.11
-23.48
-29.3
-36.37
-44.16
-51.74
-57.85
-60.99
-59.83
-53.69
-42.96
-29.07
-14.08
0.01
11.82
20.77
26.88
30.41
31.52
30.35
27.24
22.86
18.25
14.48
12.29
11.79
12.52
13.72
14.7
15.12
15.09
14.95
14.95
15.1
15.05
14.26
12.34
9.25
5.3
1.07
-2.88
-6.32
-9.37
-12.42
-16.05
-20.74
-26.85
-34.44
-43.17
-52.08
-59.63
-63.95
-63.44
-57.36
-46.24
-31.79
-16.32
-1.93
10.07
19.3
26.06
30.74
33.47
34.13
32.62
29.23
24.77
20.4
17.15
15.57
15.58
16.54
17.7
18.51
18.76
18.62
18.35
18.1
17.77
17.02
15.39
12.54
8.42
3.38
-1.94
-6.81
-10.69
-13.52
-15.71
-18.07
-21.5
-26.67
-33.82
-42.56
-51.87
-60.15
-65.56
-66.5
-62.08
-52.56
-39.23
-24.11
-9.3
3.62
13.88
21.5
26.87
30.47
32.58
33.32
32.8
31.34
29.46
27.79
26.9
27.01
27.9
29.01
29.71
29.57
28.53
26.92
25.17
23.68
22.52
21.46
20.09
18.01
15.01
11.16
6.83
2.46
-1.49
-4.87
-7.84
-10.78
-14.19
-18.45
-23.81
-30.33
-37.84
-45.84
-53.32
-58.83
-60.66
-57.53
-49.13
-36.42
-21.42
-6.46
6.6
16.87
24.38
29.57
32.86
34.37
34.06
32.04
28.79
25.17
22.09
20.2
19.69
20.23
21.3
22.35
23.1
23.55
23.84
24.1
24.23
23.94
22.78
20.35
16.63
11.97
6.98
2.37
-1.38
-4.2
-6.44
-8.66
-11.53
-15.56
-21.02
-27.86
-35.66
-43.52
-50.1
-53.85
-53.43
-48.2
-38.54
-25.87
-12.22
0.51
11.05
19.0
24.63
28.41
30.6
31.21
30.15
27.58
24.04
20.42
17.6
16.13
16.12
17.17
18.7
20.2
21.32
21.96
22.13
21.8
20.87
19.14
16.45
12.84
8.57
4.1
-0.12
-3.86
-7.22
-10.52
-14.26
-18.84
-24.5
-31.22
-38.68
-46.12
-52.36
-55.95
-55.54
-50.4
-40.83
-28.1
-14.12
-0.78
10.63
19.66
26.44
31.37
34.64
36.24
36.05
34.17
31.09
27.7
24.94
23.49
23.51
24.57
25.87
26.62
26.4
25.27
23.69
22.19
21.02
20.02
18.72
16.58
13.31
9.05
4.24
-0.53
-4.81
-8.43
-11.46
-14.26
-17.26
-20.97
-25.81
-32.08
-39.72
-48.13
-56.07
-61.82
-63.61
-60.27
-51.69
-38.98
-24.11
-9.22
4.0
14.7
22.86
28.82
32.97
35.48
36.33
35.57
33.47
30.57
27.6
25.24
23.97
23.92
24.88
26.38
27.87
28.85
29.07
28.45
27.18
25.47
23.51
21.4
19.08
16.47
13.46
10.06
6.44
2.84
-0.52
-3.6
-6.56
-9.73
-13.5
-18.14
-23.85
-30.61
-38.31
-46.45
-54.1
-59.86
-62.14
-59.63
-51.95
-39.88
-25.22
-10.19
3.32
14.24
22.37
28.03
31.64
33.46
33.56
32.1
29.5
26.49
23.87
22.31
22.1
23.08
24.74
26.45
27.68
28.11
27.74
26.76
25.46
24.01
22.39
20.37
17.66
14.1
9.8
5.17
0.74
-3.04
-5.97
-8.23
-10.29
-12.77
-16.2
-20.94
-27.1
-34.49
-42.55
-50.27
-56.29
-59.07
-57.36
-50.7
-39.66
-25.8
-11.17
2.3
13.32
21.4
26.65
29.38
29.9
28.48
25.56
21.87
18.44
16.22
15.72
16.82
18.84
20.82
22.03
22.27
21.79
21.09
20.49
19.96
19.09
17.33
14.27
9.91
4.68
-0.71
-5.53
-9.24
-11.8
-13.62
-15.46
-18.25
-22.75
-29.27
-37.57
-46.74
-55.29
-61.44
-63.55
-60.55
-52.41
-40.12
-25.48
-10.6
2.81
13.74
21.94
27.68
31.3
33.02
32.94
31.24
28.4
25.22
22.65
21.45
21.91
23.77
26.27
28.56
29.92
30.08
29.21
27.76
26.25
24.92
23.59
21.75
18.81
14.41
8.63
2.09
-4.41
-10.21
-15.01
-19.03
-22.77
-26.82
-31.63
-37.5
-44.46
-52.36
-60.56
-67.89
-72.65
-73.08
-67.92
-57.11
-41.96
-24.8
-8.25
5.68
16.14
23.35
28.16
31.36
33.29
33.91
33.09
31.07
28.46
26.18
24.93
24.98
26.04
27.43
28.45
28.71
28.18
27.11
25.83
24.58
23.41
22.14
20.48
18.13
14.89
10.8
6.14
1.37
-3.12
-7.06
-10.46
-13.57
-16.8
-20.48
-24.97
-30.57
-37.49
-45.69
-54.58
-62.87
-68.68
-70.05
-65.66
-55.46
-40.74
-23.77
-7.09
7.4
18.74
26.89
32.3
35.45
36.6
35.84
33.39
29.75
25.72
22.24
20.0
19.26
19.75
20.82
21.75
22.03
21.53
20.43
19.05
17.57
15.94
13.87
11.1
7.52
3.36
-0.87
-4.61
-7.5
-9.54
-11.11
-12.82
-15.25
-18.87
-23.95
-30.5
-38.16
-46.08
-52.92
-57.0
-56.8
-51.47
-41.3
-27.68
-12.72
1.43
13.22
21.97
27.71
30.82
31.7
30.65
28.04
24.43
20.66
17.62
15.99
15.88
16.91
18.33
19.44
19.84
19.63
19.14
18.7
18.35
17.78
16.41
13.78
9.8
4.84
-0.43
-5.35
-9.54
-13.06
-16.28
-19.77
-24.1
-29.76
-36.97
-45.54
-54.54
-62.3
-66.68
-65.81
-58.76
-46.15
-30.0
-13.07
2.17
14.17
22.63
28.03
31.14
32.48
32.24
30.53
27.62
24.14
20.92
18.68
17.75
17.95
18.74
19.48
19.71
19.39
18.79
18.32
18.27
18.62
18.95
18.56
16.8
13.36
8.49
2.95
-2.33
-6.63
-9.77
-12.2
-14.75
-18.27
-23.35
-30.22
-38.76
-48.41
-58.14
-66.39
-71.25
-71.02
-64.82
-53.12
-37.69
-21.1
-5.73
6.89
16.35
23.11
27.82
30.9
32.36
32.01
29.91
26.58
23.0
20.26
19.13
19.81
21.81
24.22
26.09
26.81
26.32
25.06
23.65
22.55
21.8
20.95
19.29
16.28
11.86
6.53
1.15
-3.44
-6.81
-9.17
-11.25
-13.98
-18.11
-24.0
-31.59
-40.35
-49.4
-57.47
-63.02
-64.5
-60.8
-51.77
-38.42
-22.75
-7.12
6.52
17.07
24.37
28.86
31.08
31.4
29.99
27.1
23.31
19.51
16.65
15.45
16.01
17.85
20.08
21.83
22.59
22.35
21.47
20.39
19.34
18.16
16.38
