0
12.96
10.57
7.96
5.22
2.5
-0.11
-2.55
-4.83
-6.99
-9.12
-11.31
-13.72
-16.51
-19.77
-23.4
-27.03
-30.11
-31.94
-31.91
-29.63
-25.13
-18.79
-11.32
-3.55
3.75
10.06
15.1
18.81
21.23
22.42
22.48
21.59
20.03
18.24
16.64
15.53
15.03
14.99
15.2
15.43
15.55
15.53
15.37
15.06
14.58
13.88
12.9
11.57
9.8
7.5
4.65
1.32
-2.25
-5.8
-9.09
-11.99
-14.56
-16.96
-19.46
-22.31
-25.7
-29.6
-33.78
-37.7
-40.63
-41.86
-40.86
-37.48
-31.97
-24.88
-16.9
-8.74
-0.97
5.96
11.78
16.4
19.91
22.48
24.32
25.52
26.09
26.02
25.34
24.23
22.99
21.92
21.24
20.94
20.92
20.99
20.98
20.76
20.26
19.44
18.25
16.68
14.81
12.75
10.58
8.37
6.1
3.66
0.96
-2.04
-5.33
-8.78
-12.23
-15.51
-18.48
-21.11
-23.51
-25.89
-28.57
-31.79
-35.64
-39.88
-43.97
-47.11
-48.47
-47.36
-43.48
-37.06
-28.76
-19.57
-10.49
-2.3
4.59
10.12
14.44
17.78
20.32
22.17
23.42
24.2
24.6
24.72
24.6
24.25
23.71
23.07
22.47
22.04
21.82
21.77
21.79
21.76
21.53
20.98
19.97
18.36
16.17
13.51
10.58
7.6
4.73
1.94
-0.84
-3.7
-6.64
-9.59
-12.46
-15.22
-17.94
-20.78
-23.98
-27.69
-31.94
-36.49
-40.86
-44.32
-46.06
-45.45
-42.22
-36.6
-29.19
-20.84
-12.32
-4.22
3.09
9.43
14.7
18.86
21.95
24.08
25.4
26.12
26.37
26.24
25.75
24.96
23.97
22.95
22.11
21.6
21.48
21.65
21.93
22.07
21.79
20.89
19.34
17.21
14.74
12.18
9.71
7.39
5.15
2.82
0.26
-2.62
-5.77
-9.07
-12.33
-15.34
-18.0
-20.34
-22.57
-25.06
-28.17
-32.08
-36.55
-40.92
-44.25
-45.56
-44.23
-40.18
-33.88
-26.13
-17.86
-9.82
-2.51
3.87
9.26
13.62
16.95
19.23
20.53
21.0
20.89
20.49
20.03
19.68
19.46
19.32
19.2
19.08
18.93
18.75
18.48
18.08
17.47
16.63
15.59
14.34
12.84
10.99
8.7
5.93
2.79
-0.53
-3.74
-6.65
-9.18
-11.4
-13.5
-15.73
-18.32
-21.37
-24.8
-28.28
-31.21
-32.87
-32.58
-29.97
-25.1
-18.51
-10.98
-3.36
3.66
9.65
14.44
18.01
20.42
21.73
22.05
21.55
20.45
19.07
17.75
16.74
16.22
16.19
16.52
17.0
17.47
17.77
17.8
17.48
16.72
15.45
13.67
11.45
8.93
6.18
3.25
0.13
-3.14
-6.46
-9.68
-12.67
-15.4
-17.96
-20.52
-23.32
-26.53
-30.2
-34.21
-38.2
-41.55
-43.49
-43.29
-40.52
-35.19
-27.87
-19.42
-10.8
-2.74
4.34
10.31
15.23
19.16
22.13
24.16
25.32
25.74
25.71
25.5
25.35
25.35
25.42
25.4
25.16
24.7
24.17
23.77
23.64
23.71
23.72
23.34
22.25
20.37
17.79
14.78
11.62
8.53
5.59
2.77
-0.06
-3.01
-6.1
-9.27
-12.36
-15.2
-17.7
-19.86
-21.87
-24.01
-26.64
-30.01
-34.19
-38.93
-43.62
-47.4
-49.3
-48.55
-44.87
-38.52
-30.28
-21.17
-12.17
-3.96
3.11
8.98
13.75
17.56
20.55
22.86
24.57
25.75
26.44
26.69
26.59
26.25
25.78
25.3
24.88
24.52
24.26
24.12
24.12
24.2
24.18
23.82
22.83
21.07
18.62
15.74
12.78
10.02
7.57
5.33
3.1
0.7
-1.96
-4.84
-7.79
-10.67
-13.35
-15.81
-18.1
-20.32
-22.67
-25.39
-28.73
-32.78
-37.37
-41.95
-45.66
-47.55
-46.85
-43.3
-37.19
-29.29
-20.61
-12.1
-4.4
2.18
7.6
12.01
15.54
18.29
20.36
21.79
22.67
23.1
23.15
22.9
22.4
21.68
20.8
19.89
19.05
18.41
18.01
17.84
17.76
17.58
17.05
16.02
14.43
12.37
10.04
7.65
5.32
3.04
0.7
-1.77
-4.37
-6.97
-9.43
-11.68
-13.8
-15.95
-18.31
-21.01
-24.11
-27.54
-31.1
-34.39
-36.8
-37.67
-36.44
-32.89
-27.26
-20.17
-12.47
-4.95
1.79
7.43
11.89
15.22
17.56
19.06
19.93
20.31
20.31
20.02
19.5
18.84
18.16
17.53
17.01
16.58
16.18
15.79
15.45
15.2
15.03
14.77
14.16
12.9
10.8
7.9
4.45
0.88
-2.43
-5.21
-7.41
-9.19
-10.86
-12.74
-15.12
-18.13
-21.7
-25.52
-29.03
-31.58
-32.53
-31.45
-28.25
-23.23
-16.95
-10.1
-3.32
2.91
8.32
12.75
16.18
18.55
19.83
20.08
19.43
18.14
16.54
14.93
13.56
12.57
11.98
11.73
11.68
11.69
11.63
11.43
11.09
10.55
9.76
8.58
6.89
4.6
1.78
-1.34
-4.5
-7.47
-10.17
-12.66
-15.14
-17.84
-20.89
-24.37
-28.17
-31.96
-35.19
-37.21
-37.37
-35.31
-31.07
-25.11
-18.13
-10.83
-3.79
2.66
8.32
13.08
16.82
19.49
21.15
21.97
22.2
22.11
21.9
21.68
21.53
21.45
21.43
21.46
21.51
21.55
21.54
21.39
21.01
20.28
19.12
17.52
15.56
13.34
10.96
8.51
6.0
3.44
0.84
-1.81
-4.52
-7.29
-10.1
-12.88
-15.58
-18.14
-20.59
-23.07
-25.82
-29.07
-32.93
-37.22
-41.49
-44.97
-46.86
-46.49
-43.58
-38.28
-31.13
-22.93
-14.5
-6.53
0.5
6.37
11.05
14.71
17.58
19.91
21.82
23.35
24.45
25.12
25.4
25.44
25.36
25.19
24.92
24.48
23.85
23.15
22.55
22.18
22.0
21.79
21.23
20.05
18.22
15.91
13.48
11.21
9.24
7.46
5.57
3.33
0.61
-2.52
-5.87
-9.19
-12.31
-15.12
-17.59
-19.76
-21.78
-23.92
-26.5
-29.82
-33.94
-38.58
-43.06
-46.47
-47.92
-46.77
-42.9
-36.67
-28.83
-20.28
-11.86
-4.19
2.4
7.82
12.2
15.72
18.55
20.82
22.58
23.78
24.43
24.56
24.28
23.8
23.32
22.99
22.88
22.95
23.08
23.16
23.08
22.82
22.34
21.59
20.48
18.95
16.98
14.69
12.25
9.86
7.6
5.39
3.05
0.42
-2.55
-5.69
-8.72
-11.34
-13.44
-15.07
-16.51
-18.1
-20.16
-22.89
-26.34
-30.37
-34.62
-38.5
-41.35
-42.48
-41.38
-37.92
-32.33
-25.26
-17.52
-9.92
-3.05
2.8
7.62
11.56
14.78
17.38
19.31
20.53
21.04
20.94
20.46
19.85
19.33
19.02
18.92
18.94
18.99
18.98
18.89
18.69
18.36
17.84
17.02
15.8
14.08
11.89
9.29
6.42
3.42
0.45
-2.38
-4.92
-7.08
-8.84
-10.3
-11.72
-13.45
-15.84
-19.08
-23.04
-27.24
-30.9
-33.12
-33.17
-30.75
-26.06
-19.81
-12.89
-6.12
-0.05
5.14
9.48
13.03
15.8
17.7
18.69
18.81
18.29
17.4
16.47
15.69
15.15
14.78
14.48
14.14
13.73
13.33
13.07
13.0
13.04
12.91
12.27
10.83
8.53
5.56
2.28
-0.98
-4.03
-6.86
-9.56
-12.22
-14.88
-17.56
-20.31
-23.3
-26.65
-30.37
-34.17
-37.47
-39.51
-39.59
-37.32
-32.76
-26.41
-19.03
-11.43
-4.26
2.08
7.44
11.81
15.25
17.8
19.5
20.47
20.86
20.9
20.79
20.64
20.45
20.16
19.71
19.12
18.49
17.96
17.61
17.41
17.24
16.92
16.31
15.32
13.91
12.12
9.96
7.48
4.76
1.88
-1.07
-4.01
-6.89
-9.71
-12.47
-15.21
-17.93
-20.71
-23.68
-26.97
-30.6
-34.36
-37.76
-40.08
-40.64
-38.95
-34.96
-29.03
-21.84
-14.19
-6.81
-0.22
5.29
9.68
13.08
15.67
17.62
19.03
19.95
20.39
20.42
20.12
19.58
18.9
18.18
17.49
16.95
16.62
16.51
16.54
16.54
16.35
15.86
15.0
13.74
12.08
10.02
7.56
4.78
1.79
-1.25
-4.17
-6.9
-9.4
-11.71
-13.96
-16.29
-18.86
-21.79
-25.14
-28.76
-32.32
-35.3
-37.01
-36.84
-34.45
-29.88
-23.64
-16.54
-9.41
-2.86
2.85
7.7
11.8
15.23
17.95
19.88
21.04
21.55
21.62
21.43
21.11
20.7
20.25
19.83
19.54
19.46
19.53
19.64
19.61
19.31
18.64
17.58
16.14
14.37
12.37
10.27
8.2
6.28
4.5
2.76
0.94
-1.06
-3.23
-5.46
-7.63
-9.63
-11.49
-13.33
-15.37
-17.88
-21.08
-24.98
-29.31
-33.41
-36.43
-37.5
-36.09
-32.2
-26.36
-19.45
-12.37
-5.81
-0.13
4.63
8.58
11.88
14.58
16.63
17.95
18.49
18.3
17.58
16.6
15.65
14.93
14.54
14.43
14.49
14.59
14.59
14.41
14.04
13.45
12.68
11.74
10.63
9.33
7.77
5.94
3.84
1.52
-0.98
-3.57
-6.17
-8.7
-11.09
-13.38
-15.69
-18.17
-20.96
-23.96
-26.8
-28.92
-29.67
-28.6
-25.58
-20.84
-14.9
-8.39
-1.93
4.01
9.12
13.23
16.28
18.25
19.15
19.07
18.18
16.76
15.2
13.88
13.13
13.1
13.67
14.57
15.41
15.83
15.65
14.85
13.6
12.15
10.66
9.17
7.59
5.73
3.48
0.85
-2.0
-4.85
-7.5
-9.91
-12.14
-14.33
-16.64
-19.17
-22.0
-25.16
-28.63
-32.2
-35.45
-37.78
-38.54
-37.24
-33.75
-28.36
-21.68
-14.49
-7.49
-1.15
4.31
8.87
12.59
15.53
17.74
19.24
20.13
20.55
20.72
20.83
21.0
21.23
21.43
21.45
21.23
20.8
20.27
19.79
19.41
19.09
18.66
17.91
16.67
14.91
12.78
10.48
8.24
6.13
4.08
1.95
-0.45
-3.17
-6.16
-9.2
-12.04
-14.42
-16.2
-17.4
-18.28
-19.28
-20.94
-23.67
-27.56
-32.28
-37.06
-40.93
-42.98
-42.63
-39.75
-34.64
-27.9
-20.31
-12.62
-5.49
0.64
5.58
9.36
12.22
14.42
16.19
17.62
18.75
19.55
20.0
20.12
19.98
19.66
19.28
18.97
18.86
18.98
19.28
19.62
19.82
19.72
19.2
18.23
16.8
14.98
12.85
10.59
8.35
6.23
4.21
2.16
-0.1
-2.65
-5.43
-8.23
-10.81
-13.02
-14.88
-16.58
-18.37
-20.51
-23.18
-26.49
-30.36
-34.51
-38.41
-41.36
-42.63
-41.66
-38.26
-32.65
-25.42
-17.38
-9.36
-2.07
4.03
8.77
12.21
14.58
16.15
17.16
17.75
18.03
18.06
17.94
17.72
17.47
17.2
16.93
16.72
16.68
16.89
17.36
17.95
18.4
18.43
17.84
16.59
14.82
12.76
10.61
8.49
6.43
4.37
2.22
-0.06
-2.47
-4.92
-7.31
-9.51
-11.49
-13.29
-15.09
-17.16
-19.74
-22.94
-26.67
-30.57
-34.05
-36.39
-36.96
-35.39
-31.64
-26.08
-19.35
-12.18
-5.26
0.91
6.06
10.06
12.94
14.8
15.78
16.07
15.87
15.4
14.86
14.41
14.13
14.08
14.18
14.35
14.47
14.45
14.27
13.98
13.66
13.35
12.99
12.46
11.55
10.16
8.22
5.84
3.15
0.36
-2.34
-4.82
-7.05
-9.16
-11.35
-13.89
-16.95
-20.45
-24.04
-27.16
-29.18
-29.59
-28.17
-25.0
-20.42
-14.84
-8.71
-2.45
3.56
8.97
13.47
16.78
18.75
19.39
18.92
17.73
16.3
15.08
14.31
14.01
14.02
14.11
14.09
13.92
13.65
13.38
13.12
12.83
12.36
11.55
10.3
8.54
6.27
3.57
0.57
-2.55
-5.61
-8.51
-11.21
-13.84
-16.6
-19.65
-23.09
-26.82
-30.49
-33.56
-35.4
-35.45
-33.41
-29.29
-23.46
-16.51
-9.12
-1.93
4.58
10.08
14.4
17.54
19.6
20.76
21.28
21.39
21.3
21.09
20.81
20.44
20.02
19.56
19.18
18.96
18.96
19.15
19.41
19.5
19.2
18.37
17.02
15.27
13.33
11.29
9.13
6.73
3.98
0.9
-2.33
-5.5
-8.41
-11.02
-13.44
-15.78
-18.19
-20.76
-23.65
-26.97
-30.77
-34.82
-38.61
-41.3
-42.06
-40.35
-36.09
-29.75
-22.12
-14.12
-6.49
0.25
5.84
10.27
13.67
16.26
18.25
19.79
20.94
21.76
22.28
22.61
22.83
23.0
23.07
22.98
22.68
22.26
21.89
21.72
21.83
22.09
22.24
21.98
21.09
19.52
17.35
14.79
12.07
9.37
6.81
4.41
2.09
-0.25
-2.67
-5.19
-7.75
-10.27
-12.66
-14.94
-17.16
-19.5
-22.16
-25.37
-29.19
-33.37
-37.36
-40.31
-41.4
-40.07
-36.27
-30.46
-23.42
-16.02
-8.9
-2.44
3.23
8.13
12.24
15.58
18.1
19.86
20.99
21.64
21.99
22.15
22.2
22.14
21.97
21.71
21.42
21.19
21.06
21.05
21.06
20.94
20.54
19.74
18.51
16.9
15.06
13.14
11.29
9.58
7.97
6.32
4.44
2.15
-0.6
-3.72
-6.97
-10.04
-12.73
-15.02
-17.01
-18.96
-21.09
-23.62
-26.65
-30.16
-33.88
-37.36
-39.89
-40.76
-39.44
-35.81
-30.23
-23.43
-16.23
-9.29
-3.01
2.41
6.97
10.65
13.48
15.5
16.83
17.65
18.09
18.28
18.26
18.06
17.75
17.39
17.09
16.88
16.73
16.58
16.37
16.06
15.62
15.01
14.21
13.16
11.84
10.25
8.46
6.52
4.5
2.42
0.29
-1.91
-4.19
-6.55
-9.01
-11.62
-14.46
-17.61
-21.02
-24.49
-27.59
-29.75
-30.42
-29.24
-26.14
-21.4
-15.53
-9.16
-2.83
2.99
8.02
12.12
15.19
17.23
18.3
18.53
18.11
17.29
16.31
15.37
14.6
14.06
13.76
13.73
13.97
14.45
15.06
15.62
15.89
15.66
14.84
13.45
11.6
9.47
7.24
5.02
2.87
0.76
-1.4
-3.69
-6.21
-8.95
-11.84
-14.7
-17.33
-19.62
-21.6
-23.51
-25.72
-28.58
-32.21
-36.34
-40.3
-43.21
-44.23
-42.86
-39.07
-33.29
-26.25
-18.71
-11.33
-4.56
1.36
6.33
10.33
13.41
15.67
17.28
18.38
19.14
19.7
20.12
20.45
20.68
20.84
20.93
20.99
21.07
21.15
21.21
21.18
20.99
20.61
20.01
19.21
18.16
16.81
15.14
13.15
10.95
8.68
6.47
4.34
2.24
0.06
-2.24
-4.62
-6.99
-9.28
-11.48
-13.65
-15.86
-18.16
-20.57
-23.12
-25.95
-29.22
-32.98
-37.06
-40.96
-43.91
-45.14
-44.09
-40.62
-35.05
-28.05
-20.41
-12.87
-5.98
-0.02
4.95
9.03
12.37
15.11
17.29
18.93
20.0
20.54
20.67
20.57
20.42
20.37
20.52
20.85
21.31
21.84
22.36
22.82
23.12
23.14
22.74
21.81
20.31
18.33
16.06
13.74
11.59
9.68
7.95
6.23
4.32
2.08
-0.52
-3.41
-6.42
-9.34
-11.99
-14.3
-16.34
-18.31
-20.52
-23.28
-26.72
-30.66
-34.57
-37.7
-39.24
-38.58
-35.54
-30.38
-23.73
-16.39
-9.1
-2.43
3.26
7.85
11.34
13.84
15.52
16.57
17.15
17.38
17.38
17.23
17.02
16.88
16.87
17.02
17.29
17.57
17.76
17.81
17.72
17.5
17.13
16.49
15.45
13.87
11.71
9.08
6.23
3.45
0.96
-1.12
-2.87
-4.48
-6.14
-8.05
-10.3
-12.99
-16.11
-19.63
-23.35
-26.87
-29.58
-30.79
-29.95
-26.82
-21.65
-15.06
-7.89
-0.93
5.22
10.3
14.29
17.33
19.55
21.04
21.83
21.97
21.59
20.89
20.15
19.57
19.28
19.24
19.37
19.56
19.76
19.98
20.26
20.59
20.83
20.79
20.24
19.03
17.16
14.76
12.1
9.46
7.06
5.0
3.21
1.51
-0.28
-2.32
-4.67
-7.27
-9.96
-12.62
-15.11
-17.36
-19.39
-21.27
-23.15
-25.26
-27.81
-30.97
-34.72
-38.8
-42.63
-45.46
-46.47
-45.1
-41.14
-34.87
-27.0
-18.47
-10.21
-2.89
3.16
7.93
11.62
14.51
16.79
18.58
19.93
20.87
21.47
21.81
21.99
22.06
22.04
21.95
21.79
21.63
21.54
21.58
21.82
22.21
22.6
22.76
22.43
21.44
19.78
17.57
15.03
12.39
9.8
7.33
5.03
2.95
1.15
-0.44
-1.98
-3.72
-5.85
-8.43
-11.27
-14.04
-16.47
-18.49
-20.29
-22.23
-24.69
-27.85
-31.65
-35.68
-39.33
-41.92
-42.8
-41.57
-38.14
-32.78
-26.02
-18.53
-11.01
-4.03
2.02
6.95
10.77
13.61
15.72
17.27
18.38
19.08
19.39
19.38
19.23
19.15
19.29
19.69
20.19
20.6
20.76
20.67
20.44
20.24
20.16
20.12
19.96
19.45
18.47
17.01
15.19
13.16
11.05
8.89
6.62
4.19
1.58
-1.13
-3.83
-6.35
-8.62
-10.6
-12.36
-13.98
-15.57
-17.26
-19.2
-21.57
-24.5
-27.98
-31.83
-35.58
-38.61
-40.23
-39.93
-37.47
-33.0
-27.0
-20.14
-13.08
-6.36
-0.31
4.93
9.29
12.76
15.3
16.91
17.63
17.63
17.13
16.41
15.74
15.29
15.16
15.35
15.77
16.24
16.57
16.6
16.26
15.57
14.6
13.45
12.15
10.69
9.08
7.28
5.32
3.24
1.04
-1.26
-3.64
-6.09
-8.58
-11.07
-13.58
-16.16
-18.93
-21.99
-25.34
-28.76
-31.84
-34.02
-34.73
-33.6
-30.57
-25.9
-20.11
-13.74
-7.3
-1.15
4.46
9.36
13.41
16.51
18.64
19.86
20.34
20.31
19.99
19.6
19.31
19.2
19.28
19.48
19.72
19.9
19.97
19.93
19.82
19.65
19.38
18.94
18.18
17.0
15.35
13.26
10.85
8.28
5.71
3.28
1.07
-0.94
-2.81
-4.66
-6.65
-8.87
-11.32
-13.92
-16.56
-19.1
-21.54
-23.94
-26.48
-29.38
-32.81
-36.72
-40.74
-44.18
-46.16
-45.91
-43.0
-37.61
-30.41
-22.34
-14.32
-6.96
-0.58
4.78
9.17
12.67
15.36
17.37
18.86
19.99
20.85
21.45
21.73
21.68
21.38
20.99
20.72
20.7
20.95
21.34
21.76
22.07
22.2
22.08
21.61
20.74
19.41
17.7
15.76
13.76
11.82
9.96
8.12
6.24
4.29
2.3
0.32
-1.68
-3.73
-5.85
-8.03
-10.2
-12.3
-14.36
-16.48
-18.83
-21.54
-24.66
-28.16
-31.9
-35.62
-38.88
-41.13
-41.75
-40.28
-36.57
-30.93
-23.99
-16.53
-9.28
-2.74
2.85
7.45
11.13
14.03
16.24
17.88
18.96
19.49
19.47
18.99
18.24
17.47
16.91
16.66
16.69
16.87
17.04
17.12
17.09
16.92
16.54
15.88
14.85
13.44
11.7
9.73
7.63
5.47
3.3
1.14
-0.98
-3.07
-5.13
-7.22
-9.4
-11.77
-14.4
-17.36
-20.59
-23.82
-26.59
-28.29
-28.31
-26.3
-22.3
-16.73
-10.28
-3.66
2.53
7.9
12.33
15.8
18.39
20.16
21.14
21.4
21.02
20.15
18.97
17.71
16.55
15.6
14.93
14.59
14.56
14.82
15.22
15.54
15.52
14.93
13.71
11.95
9.91
7.8
5.75
3.73
1.63
-0.65
-3.16
-5.84
-8.55
-11.2
-13.72
-16.12
-18.45
-20.84
-23.43
-26.41
-29.88
-33.71
-37.46
-40.42
-41.78
-40.9
-37.54
-31.98
-24.93
-17.23
-9.64
-2.68
3.42
8.61
12.88
16.27
18.79
20.51
21.57
22.13
22.37
22.45
22.45
22.4
22.3
22.15
21.95
21.71
21.46
21.23
21.01
20.77
20.42
19.87
19.0
17.73
16.05
14.01
11.74
9.39
7.08
4.85
2.64
0.36
-2.08
-4.72
-7.45
-10.08
-12.43
-14.4
-16.07
-17.71
-19.71
-22.42
-26.0
-30.28
-34.75
-38.62
-41.05
-41.36
-39.26
-34.92
-28.85
-21.8
-14.48
-7.5
-1.25
4.09
8.47
12.0
14.82
17.04
18.75
20.01
20.81
21.18
21.18
20.92
20.52
20.1
19.74
19.53
19.53
19.76
20.17
20.59
20.76
20.45
19.52
17.99
15.98
13.68
11.28
8.91
6.64
4.47
2.35
0.19
-2.08
-4.47
-6.91
-9.29
-11.5
-13.5
-15.37
-17.3
-19.51
-22.19
-25.4
-29.0
-32.62
-35.63
-37.33
-37.14
-34.74
-30.25
-24.18
-17.25
-10.21
-3.64
2.09
6.87
10.69
13.67
15.95
17.58
18.62
19.06
18.95
18.4
17.63
16.87
16.33
16.1
16.15
16.38
16.67
16.93
17.05
16.94
16.51
15.69
14.48
12.93
11.09
8.99
6.66
4.1
1.35
-1.5
-4.32
-7.01
-9.54
-11.94
-14.26
-16.62
-19.12
-21.91
-25.12
-28.74
-32.55
-36.02
-38.4
-38.95
-37.16
-32.98
-26.87
-19.6
-12.01
-4.82
1.52
6.85
11.19
14.65
17.37
19.43
20.92
21.87
22.37
22.53
22.51
22.48
22.51
22.61
22.68
22.62
22.38
22.01
21.59
21.2
20.86
20.5
20.01
19.29
18.22
16.77
14.94
12.84
10.62
8.4
6.2
3.96
1.52
-1.2
-4.16
-7.17
-9.95
-12.33
-14.31
-16.01
-17.64
-19.37
-21.32
-23.61
-26.36
-29.68
-33.52
-37.54
-41.08
-43.29
-43.42
-41.07
-36.33
-29.76
-22.17
-14.39
-7.09
-0.67
4.72
9.07
12.48
15.09
17.0
18.3
19.11
19.53
19.7
19.74
19.75
19.76
19.75
19.73
19.68
19.63
19.63
19.68
19.75
19.72
19.45
18.75
17.53
15.76
13.54
11.06
8.55
6.14
3.9
1.79
-0.27
-2.34
-4.44
-6.55
-8.64
-10.7
-12.72
-14.74
-16.82
-19.09
-21.66
-24.62
-27.87
-31.09
-33.77
-35.24
-34.98
-32.71
-28.53
-22.85
-16.29
-9.48
-2.94
2.95
8.01
12.12
15.24
17.4
18.68
19.26
19.32
19.05
18.59
17.98
17.28
16.56
15.92
15.51
15.38
15.47
15.61
15.56
15.17
14.39
13.29
11.94
10.41
8.69
6.76
4.62
2.25
-0.29
-2.95
-5.65
-8.29
-10.79
-13.1
-15.28
-17.47
-19.92
-22.82
-26.22
-29.93
-33.5
-36.28
-37.58
-36.9
-34.0
-29.08
-22.69
-15.59
-8.5
-1.96
3.75
8.54
12.46
15.57
17.93
19.62
20.75
21.44
21.78
21.82
21.61
21.16
20.59
20.0
19.55
19.35
19.44
19.79
20.26
20.63
20.63
20.03
18.74
16.78
14.36
11.78
9.29
7.0
4.91
2.89
0.8
-1.47
-3.93
-6.5
-9.06
-11.48
-13.69
-15.74
-17.78
-20.05
-22.81
-26.18
-30.1
-34.16
-37.7
-39.96
-40.23
-38.14
-33.72
-27.4
-19.87
-11.93
-4.29
2.55
8.29
12.83
16.18
18.46
19.83
20.44
20.46
20.1
19.57
19.1
18.84
18.85
19.06
19.31
19.45
19.43
19.29
19.15
19.09
19.06
18.86
18.25
17.07
15.3
13.11
10.74
8.39
6.16
4.0
1.77
-0.61
-3.19
-5.85
-8.42
-10.71
-12.6
-14.18
-15.64
-17.27
-19.36
-22.07
-25.38
-29.08
-32.73
-35.76
-37.5
-37.36
-35.01
-30.48
-24.26
-17.15
-10.02
-3.57
1.81
6.05
9.3
11.73
13.47
14.64
15.3
15.56
15.52
15.3
14.93
14.49
14.01
13.57
13.24
13.05
12.96
12.96
13.01
13.08
13.13
13.0
12.48
11.35
9.49
6.99
4.15
1.33
-1.15
-3.18
-4.85
-6.4
-8.06
-10.02
-12.36
-15.08
-18.08
-21.21
-24.16
-26.54
-27.83
-27.54
-25.4
-21.42
-15.99
-9.75
-3.42
2.37
7.24
11.09
13.98
16.0
17.29
17.92
18.0
17.67
17.08
16.4
15.72
15.11
14.61
14.23
13.98
13.82
13.77
13.79
13.85
13.86
13.67
13.1
11.99
10.28
8.06
5.55
2.97
0.46
-2.02
-4.57
-7.24
-9.98
-12.62
-15.02
-17.15
-19.17
-21.38
-24.05
-27.3
-31.04
-34.91
-38.41
-40.9
-41.84
-40.79
-37.62
-32.52
-26.02
-18.79
-11.57
-4.89
0.93
5.8
9.79
13.01
15.57
17.55
19.0
19.96
20.5
20.7
20.65
20.44
20.11
19.7
19.28
18.9
18.67
18.6
18.65
18.67
18.48
17.91
16.9
15.48
13.74
11.77
9.63
7.33
4.87
2.29
-0.38
-3.08
-5.78
-8.45
-11.03
-13.48
-15.73
-17.81
-19.79
-21.85
-24.18
-26.93
-30.13
-33.6
-36.95
-39.65
-41.04
-40.58
-37.95
-33.2
-26.78
-19.4
-11.88
-4.89
1.19
6.23
10.3
13.53
16.0
17.77
18.91
19.54
19.83
19.93
19.92
19.85
19.71
19.53
19.39
19.36
19.49
19.7
19.83
19.67
19.06
17.95
16.45
14.75
13.02
11.34
9.66
7.86
5.79
3.41
0.78
-1.97
-4.71
-7.35
-9.87
-12.24
-14.48
-16.65
-18.86
-21.31
-24.18
-27.5
-30.97
-34.0
-35.79
-35.67
-33.26
-28.7
-22.54
-15.53
-8.41
-1.73
4.21
9.28
13.39
16.46
18.43
19.3
19.25
18.58
17.63
16.7
16.01
15.64
15.58
15.76
16.05
16.32
16.39
16.13
15.48
14.5
13.33
12.13
11.01
9.95
8.82
7.44
5.63
3.33
0.56
-2.55
-5.78
-8.95
-11.91
-14.65
-17.31
-20.11
-23.21
-26.59
-29.89
-32.53
-33.82
-33.23
-30.56
-25.96
-19.91
-12.99
-5.83
1.06
7.32
12.67
16.94
20.06
22.06
23.08
23.32
23.06
22.56
22.02
21.54
21.17
20.86
20.56
20.26
19.95
19.67
19.44
19.27
19.12
18.91
18.52
17.8
16.65
14.99
12.89
10.51
8.06
5.71
3.57
1.6
-0.33
-2.38
-4.67
-7.21
-9.92
-12.65
-15.31
-17.86
-20.38
-23.09
-26.2
-29.84
-33.89
-37.93
-41.26
-43.11
-42.85
-40.18
-35.23
-28.53
-20.83
-12.93
-5.49
1.06
6.5
10.84
14.18
16.68
18.49
19.74
20.54
21.03
21.32
21.5
21.59
21.54
21.32
20.94
20.48
20.07
19.85
19.85
19.97
20.01
19.75
19.01
17.72
15.97
13.92
11.76
9.64
7.63
5.7
3.76
1.69
-0.57
-3.06
-5.72
-8.45
-11.1
-13.55
-15.71
-17.64
-19.5
-21.58
-24.17
-27.38
-31.04
-34.62
-37.36
-38.46
-37.4
-34.05
-28.74
-22.1
-14.86
-7.67
-1.01
4.79
9.52
13.02
15.24
16.34
16.6
16.43
16.12
15.83
15.57
15.29
15.0
14.76
14.68
14.72
14.77
14.69
14.38
13.91
13.46
13.16
12.96
12.63
11.78
10.17
7.74
4.73
1.5
-1.57
-4.29
-6.61
-8.67
-10.66
-12.79
-15.23
-18.07
-21.29
-24.71
-27.93
-30.4
-31.47
-30.61
-27.58
-22.57
-16.1
-8.98
-1.99
4.26
9.45
13.53
16.55
18.65
19.91
20.4
20.22
19.55
18.61
17.64
16.82
16.28
16.02
15.99
16.14
16.39
16.68
16.96
17.11
17.04
16.58
15.62
14.12
12.14
9.88
7.59
5.49
3.64
1.95
0.21
-1.8
-4.2
-6.92
-9.81
-12.67
-15.35
-17.82
-20.13
-22.4
-24.81
-27.52
-30.66
-34.25
-38.06
-41.64
-44.32
-45.4
-44.33
-40.89
-35.26
-27.97
-19.81
-11.62
-4.12
2.24
7.29
11.16
14.09
16.33
18.05
19.29
20.1
20.53
20.71
20.74
20.71
20.62
20.44
20.14
19.76
19.42
19.27
19.36
19.64
19.9
19.85
19.24
17.97
16.13
13.95
11.69
9.5
7.36
5.11
2.58
-0.31
-3.49
-6.8
-10.01
-12.98
-15.65
-18.02
-20.2
-22.32
-24.58
-27.19
-30.25
-33.67
-37.08
-39.87
-41.35
-40.93
-38.31
-33.62
-27.29
-20.0
-12.45
-5.24
1.28
6.9
11.57
15.29
18.05
19.9
20.91
21.26
21.18
20.88
20.54
20.24
19.99
19.73
19.44
19.14
18.9
18.81
18.9
19.1
19.23
19.05
18.38
17.19
15.59
13.73
11.75
9.62
7.23
4.45
1.29
-2.06
-5.28
-8.07
-10.3
-12.02
-13.5
-15.06
-17.0
-19.54
-22.7
-26.28
-29.81
-32.66
-34.09
-33.52
-30.68
-25.71
-19.18
-11.86
-4.57
2.01
7.49
11.71
14.73
16.73
17.89
18.42
18.51
18.33
18.04
17.75
17.53
17.36
17.19
16.96
16.66
16.35
16.12
16.0
15.97
15.93
15.73
15.21
14.26
12.82
10.93
8.64
6.07
3.34
0.51
-2.34
-5.17
-7.92
-10.56
-13.07
-15.51
-17.99
-20.71
-23.83
-27.44
-31.39
-35.32
-38.63
-40.6
-40.61
-38.3
-33.7
-27.27
-19.71
-11.85
-4.38
2.24
7.81
12.3
15.78
18.35
20.13
21.26
21.88
22.13
22.08
21.83
21.46
21.07
20.77
20.68
20.84
21.27
21.86
22.51
23.03
23.23
22.9
21.94
20.36
18.33
16.06
13.75
11.47
9.16
6.71
4.06
1.22
-1.73
-4.67
-7.5
-10.16
-12.61
-14.86
-17.02
-19.32
-22.08
-25.53
-29.65
-34.01
-37.89
-40.43
-40.91
-38.99
-34.75
-28.64
-21.34
-13.56
-5.95
1.0
6.97
11.83
15.53
18.14
19.74
20.51
20.66
20.49
20.29
20.24
20.4
20.67
20.86
20.86
20.61
20.17
19.66
19.19
18.79
18.36
17.82
17.02
15.93
14.53
12.92
11.18
9.39
7.55
5.61
3.48
1.13
-1.39
-3.96
-6.45
-8.77
-10.91
-12.92
-14.91
-17.05
-19.52
-22.46
-25.85
-29.45
-32.76
-35.13
-35.91
-34.66
-31.29
-26.07
-19.56
-12.46
-5.47
0.86
6.16
10.31
13.34
15.42
16.72
17.35
17.39
16.9
16.08
15.2
14.56
14.34
14.52
14.85
15.06
14.97
14.59
14.07
13.58
13.19
12.79
12.17
11.1
9.44
7.2
4.47
1.45
-1.69
-4.77
-7.65
-10.27
-12.68
-15.0
-17.44
-20.17
-23.26
-26.59
-29.82
-32.4
-33.72
-33.25
-30.77
-26.39
-20.55
-13.89
-7.06
-0.61
5.11
9.89
13.7
16.56
18.58
19.87
20.56
20.76
20.58
20.16
19.63
19.13
18.73
18.44
18.2
17.97
17.75
17.58
17.54
17.57
17.52
17.13
16.21
14.64
12.53
10.07
7.51
4.99
2.58
0.24
-2.07
-4.38
-6.68
-8.96
-11.19
-13.36
-15.45
-17.49
-19.59
-21.91
-24.68
-28.03
-31.87
-35.84
-39.29
-41.47
-41.73
-39.73
-35.52
-29.55
-22.47
-15.0
-7.76
-1.19
4.46
9.08
12.67
15.34
17.22
18.47
19.25
19.68
19.8
19.66
19.3
18.76
18.14
17.6
17.25
17.15
17.21
17.27
17.16
16.75
16.04
15.08
13.95
12.66
11.19
9.5
7.59
5.51
3.29
0.97
-1.51
-4.2
-7.08
-10.06
-12.91
-15.41
-17.43
-19.06
-20.6
-22.49
-25.1
-28.53
-32.45
-36.14
-38.66
-39.22
-37.44
-33.43
-27.75
-21.13
-14.27
-7.67
-1.67
3.54
7.84
11.17
13.57
15.14
16.0
16.29
16.11
15.58
14.87
14.17
13.67
13.47
13.52
13.69
13.81
13.78
13.56
13.22
12.8
12.32
11.7
10.76
9.36
7.41
4.97
2.27
-0.38
-2.71
-4.62
-6.23
-7.82
-9.68
-12.01
-14.79
-17.91
-21.16
-24.27
-26.94
-28.72
-29.09
-27.6
-24.1
-18.85
-12.5
-5.84
0.43
5.88
10.4
13.97
16.59
18.22
18.81
18.46
17.42
16.07
14.73
13.66
12.94
12.51
12.26
12.11
11.97
11.82
11.67
11.52
11.35
11.03
10.36
9.15
7.27
4.75
1.78
-1.38
-4.46
-7.3
-9.85
-12.2
-14.51
-16.97
-19.8
-23.13
-26.93
-30.92
-34.55
-37.12
-37.93
-36.56
-32.97
-27.57
-21.01
-14.03
-7.26
-1.07
4.38
9.07
13.03
16.27
18.78
20.57
21.68
22.2
22.23
21.9
21.35
20.71
20.14
19.74
19.56
19.59
19.75
19.93
20.0
19.82
19.27
18.28
16.87
15.13
13.21
11.25
9.26
7.13
4.7
1.85
-1.4
-4.84
-8.18
-11.18
-13.72
-15.9
-17.9
-20.02
-22.52
-25.6
-29.35
-33.57
-37.82
-41.39
-43.47
-43.4
-40.87
-35.99
-29.34
-21.68
-13.8
-6.35
0.26
5.85
10.44
14.1
16.95
19.09
20.55
21.39
21.7
21.65
21.43
21.23
21.14
21.17
21.28
21.42
21.61
21.89
22.27
22.67
22.89
22.68
21.89
20.47
18.55
16.34
14.09
12.0
10.11
8.37
6.63
4.69
2.39
-0.38
-3.55
-6.94
-10.27
-13.28
-15.79
-17.84
-19.6
-21.4
-23.64
-26.6
-30.36
-34.63
-38.79
-41.98
-43.38
-42.44
-39.03
-33.48
-26.44
-18.66
-10.86
-3.61
2.71
7.89
11.89
14.87
17.06
18.7
19.92
20.78
21.24
21.28
20.99
20.52
20.06
19.77
19.7
19.8
19.96
20.06
19.99
19.7
19.16
18.34
17.27
15.94
14.36
12.54
10.49
8.24
5.78
3.16
0.42
-2.32
-4.93
-7.24
-9.18
-10.84
-12.41
-14.23
-16.59
-19.59
-23.09
-26.65
-29.66
-31.42
-31.36
-29.17
-24.87
-18.87
-11.84
-4.53
2.38
8.39
13.27
16.94
19.43
20.82
21.28
21.02
20.34
19.53
18.81
18.28
17.93
17.74
17.64
17.64
17.72
17.85
18.0
18.11
18.16
18.12
17.92
17.45
16.54
15.11
13.19
10.95
8.59
6.31
4.17
2.11
0.01
-2.23
-4.64
-7.18
-9.78
-12.33
-14.78
-17.1
-19.28
-21.39
-23.54
-25.9
-28.65
-31.93
-35.71
-39.72
-43.36
-45.86
-46.44
-44.54
-40.11
-33.56
-25.7
-17.41
-9.48
-2.38
3.71
8.74
12.75
15.79
17.91
19.24
19.95
20.28
20.46
20.65
20.95
21.35
21.78
22.14
22.34
22.37
22.3
22.2
22.15
22.12
