0
-5.18
-7.72
-10.29
-13.14
-16.45
-20.4
-25.06
-30.33
-35.85
-40.95
-44.72
-46.26
-44.94
-40.61
-33.62
-24.74
-14.9
-5.02
4.12
11.95
18.12
22.51
25.23
26.49
26.56
25.67
24.01
21.79
19.3
16.91
14.99
13.82
13.49
13.85
14.65
15.58
16.41
16.95
17.12
16.86
16.11
14.84
13.04
10.73
7.98
4.9
1.63
-1.72
-5.07
-8.4
-11.76
-15.15
-18.57
-21.98
-25.39
-28.94
-32.85
-37.27
-42.09
-46.79
-50.43
-51.91
-50.32
-45.32
-37.24
-27.01
-15.83
-4.8
5.28
13.98
21.1
26.55
30.27
32.28
32.67
31.76
30.01
27.86
25.73
23.86
22.38
21.35
20.76
20.56
20.67
20.97
21.31
21.61
21.82
21.92
21.8
21.33
20.35
18.72
16.43
13.5
10.06
6.27
2.29
-1.68
-5.41
-8.72
-11.58
-14.09
-16.59
-19.45
-23.03
-27.5
-32.78
-38.48
-43.98
-48.42
-50.86
-50.55
-47.11
-40.69
-31.96
-21.92
-11.61
-1.89
6.67
13.78
19.32
23.26
25.64
26.59
26.37
25.36
23.97
22.53
21.25
20.23
19.49
19.04
18.92
19.15
19.78
20.78
22.0
23.22
24.13
24.44
23.97
22.67
20.68
18.21
15.52
12.78
10.08
7.38
4.59
1.66
-1.43
-4.59
-7.74
-10.79
-13.73
-16.66
-19.76
-23.25
-27.25
-31.75
-36.47
-40.91
-44.39
-46.15
-45.57
-42.32
-36.47
-28.48
-19.13
-9.26
0.32
9.0
16.37
22.23
26.45
29.08
30.19
29.93
28.56
26.41
23.88
21.43
19.48
18.3
17.95
18.29
19.09
20.09
21.15
22.16
23.03
23.58
23.59
22.86
21.33
19.15
16.59
13.91
11.26
8.63
5.9
3.0
-0.12
-3.35
-6.55
-9.58
-12.3
-14.69
-16.89
-19.13
-21.74
-25.03
-29.11
-33.85
-38.84
-43.46
-46.97
-48.62
-47.78
-44.1
-37.59
-28.78
-18.63
-8.31
1.14
9.08
15.38
20.26
23.95
26.54
27.87
27.81
26.42
24.11
21.55
19.39
18.04
17.59
17.83
18.52
19.49
20.66
21.98
23.33
24.46
25.08
24.89
23.8
21.86
19.32
16.48
13.61
10.85
8.22
5.6
2.83
-0.24
-3.63
-7.18
-10.63
-13.67
-16.08
-17.86
-19.26
-20.71
-22.67
-25.5
-29.32
-33.91
-38.74
-43.0
-45.81
-46.28
-43.92
-38.67
-31.06
-21.97
-12.47
-3.43
4.57
11.29
16.66
20.66
23.2
24.26
23.88
22.34
20.06
17.55
15.26
13.5
12.4
11.97
12.15
12.82
13.85
15.06
16.23
17.15
17.64
17.57
16.87
15.58
13.79
11.66
9.31
6.85
4.32
1.67
-1.16
-4.19
-7.42
-10.73
-13.99
-17.04
-19.84
-22.45
-25.09
-28.01
-31.41
-35.22
-39.0
-41.96
-43.14
-41.76
-37.52
-30.72
-22.18
-12.91
-3.84
4.43
11.59
17.5
22.02
24.96
26.22
25.83
24.09
21.49
18.6
15.93
13.86
12.58
12.12
12.36
13.12
14.19
15.39
16.56
17.51
18.05
17.96
17.13
15.59
13.54
11.28
9.04
6.83
4.52
1.9
-1.14
-4.48
-7.85
-10.99
-13.81
-16.43
-19.09
-22.01
-25.33
-29.1
-33.25
-37.62
-41.88
-45.53
-47.83
-48.08
-45.68
-40.5
-32.86
-23.48
-13.25
-3.11
6.22
14.15
20.29
24.42
26.52
26.83
25.83
24.11
22.26
20.7
19.59
18.89
18.5
18.35
18.47
18.96
19.78
20.79
21.72
22.26
22.24
21.62
20.48
18.94
17.07
14.86
12.34
9.53
6.51
3.45
0.43
-2.45
-5.19
-7.78
-10.25
-12.68
-15.18
-17.9
-21.05
-24.84
-29.35
-34.46
-39.75
-44.45
-47.56
-48.1
-45.51
-39.74
-31.42
-21.58
-11.39
-1.77
6.69
13.76
19.38
23.54
26.22
27.42
27.22
25.87
23.73
21.21
18.65
16.31
14.31
12.78
11.78
11.37
11.6
12.45
13.8
15.33
16.65
17.35
17.13
15.93
13.92
11.41
8.72
6.04
3.41
0.73
-2.13
-5.14
-8.17
-10.99
-13.45
-15.53
-17.45
-19.53
-22.11
-25.43
-29.52
-34.23
-39.18
-43.77
-47.26
-48.88
-48.01
-44.38
-38.2
-30.11
-20.97
-11.68
-2.96
4.74
11.23
16.48
20.52
23.37
25.1
25.74
25.46
24.5
23.21
21.92
20.92
20.37
20.27
20.56
21.12
21.86
22.7
23.53
24.23
24.61
24.46
23.65
22.15
20.04
17.49
14.74
12.0
9.38
6.84
4.26
1.48
-1.59
-4.87
-8.15
-11.2
-13.93
-16.44
-19.01
-21.96
-25.5
-29.64
-34.12
-38.45
-42.01
-44.12
-44.18
-41.76
-36.77
-29.55
-20.79
-11.41
-2.28
5.95
12.95
18.67
23.08
26.21
27.99
28.47
27.82
26.42
24.72
23.14
21.96
21.23
20.92
20.93
21.16
21.55
21.99
22.37
22.53
22.31
21.59
20.3
18.48
16.27
13.85
11.35
8.86
6.33
3.62
0.61
-2.7
-6.15
-9.43
-12.28
-14.6
-16.55
-18.5
-20.85
-23.93
-27.79
-32.29
-37.04
-41.5
-45.0
-46.82
-46.31
-43.06
-37.08
-28.89
-19.43
-9.82
-1.01
6.43
12.37
16.93
20.29
22.55
23.66
23.6
22.48
20.55
18.22
15.97
14.16
13.04
12.71
13.1
14.03
15.28
16.59
17.76
18.6
18.94
18.62
17.53
15.72
13.35
10.69
8.0
5.44
3.01
0.61
-1.87
-4.51
-7.38
-10.48
-13.82
-17.33
-20.91
-24.45
-27.93
-31.37
-34.77
-37.94
-40.32
-41.19
-39.84
-35.96
-29.77
-22.01
-13.56
-5.19
2.58
9.54
15.53
20.33
23.69
25.42
25.5
24.15
21.84
19.13
16.56
14.58
13.44
13.22
13.8
14.95
16.36
17.76
18.9
19.63
19.81
19.42
18.47
17.09
15.43
13.66
11.8
9.74
7.3
4.27
0.6
-3.59
-7.99
-12.24
-16.1
-19.47
-22.5
-25.49
-28.79
-32.62
-36.95
-41.42
-45.31
-47.71
-47.76
-44.88
-39.02
-30.64
-20.69
-10.26
-0.37
8.24
15.22
20.5
24.16
26.34
27.19
26.92
25.77
24.07
22.18
20.4
18.94
17.89
17.3
17.16
17.45
18.1
18.98
19.92
20.69
21.08
20.93
20.16
18.78
16.88
14.64
12.24
9.77
7.22
4.5
1.52
-1.74
-5.15
-8.5
-11.58
-14.27
-16.61
-18.85
-21.35
-24.47
-28.44
-33.19
-38.27
-42.84
-45.87
-46.4
-43.86
-38.26
-30.23
-20.76
-10.94
-1.72
6.29
12.8
17.74
21.18
23.22
24.05
23.94
23.22
22.22
21.2
20.29
19.53
18.88
18.39
18.15
18.29
18.9
19.94
21.2
22.33
22.94
22.75
21.63
19.67
17.09
14.16
11.12
8.1
5.12
2.12
-0.94
-4.05
-7.13
-10.05
-12.74
-15.23
-17.71
-20.39
-23.48
-27.07
-31.14
-35.44
-39.6
-43.01
-45.0
-44.85
-42.09
-36.65
-28.98
-19.94
-10.48
-1.47
6.56
13.36
18.8
22.78
25.19
26.05
25.54
24.02
21.93
19.7
17.63
15.93
14.83
14.44
14.86
15.97
17.55
19.23
20.69
21.68
22.04
21.71
20.72
19.17
17.23
15.09
12.88
10.62
8.25
5.66
2.84
-0.12
-3.03
-5.76
-8.24
-10.58
-12.93
-15.47
-18.38
-21.82
-25.85
-30.36
-34.96
-39.03
-41.74
-42.33
-40.28
-35.53
-28.54
-20.1
-11.17
-2.65
4.91
11.19
16.13
19.76
22.1
23.16
22.96
21.68
19.61
17.19
14.91
13.14
12.16
12.06
12.73
13.96
15.4
16.72
17.64
18.06
18.01
17.59
16.9
15.94
14.67
13.03
11.0
8.57
5.78
2.67
-0.69
-4.17
-7.56
-10.69
-13.49
-16.03
-18.54
-21.31
-24.54
-28.22
-32.13
-35.8
-38.61
-39.91
-39.13
-36.02
-30.7
-23.69
-15.73
-7.63
-0.0
6.77
12.47
16.98
20.14
21.83
22.04
21.0
19.15
17.06
15.22
13.97
13.37
13.3
13.6
14.11
14.71
15.32
15.83
16.18
16.29
16.1
15.57
14.57
13.02
10.87
8.16
5.05
1.82
-1.28
-4.1
-6.66
-9.12
-11.68
-14.53
-17.81
-21.6
-25.97
-30.86
-35.99
-40.76
-44.32
-45.77
-44.41
-40.08
-33.14
-24.4
-14.86
-5.4
3.32
10.89
17.06
21.68
24.71
26.17
26.27
25.29
23.6
21.5
19.28
17.18
15.46
14.35
14.0
14.41
15.36
16.54
17.56
18.16
18.27
17.93
17.22
16.19
14.78
12.89
10.48
7.63
4.56
1.48
-1.48
-4.36
-7.29
-10.41
-13.78
-17.36
-21.14
-25.15
-29.51
-34.26
-39.17
-43.73
-47.1
-48.42
-47.07
-42.9
-36.25
-27.8
-18.43
-8.95
-0.04
7.84
14.35
19.31
22.67
24.49
24.94
24.32
22.96
21.24
19.47
17.92
16.71
15.9
15.47
15.38
15.63
16.25
17.16
18.23
19.18
19.68
19.46
18.43
16.64
14.34
11.74
9.02
6.24
3.37
0.36
-2.77
-5.93
-8.99
-11.81
-14.37
-16.76
-19.25
-22.22
-26.0
-30.7
-36.02
-41.24
-45.34
-47.26
-46.26
-42.14
-35.34
-26.73
-17.32
-8.07
0.41
7.8
13.98
18.91
22.56
24.9
25.98
25.94
25.06
23.66
22.07
20.56
19.34
18.56
18.28
18.5
19.1
19.88
20.63
21.14
21.26
20.94
20.15
18.89
17.19
15.09
12.71
10.17
7.56
4.91
2.22
-0.58
-3.52
-6.57
-9.66
-12.68
-15.58
-18.42
-21.38
-24.78
-28.84
-33.58
-38.6
-43.13
-46.18
-46.85
-44.61
-39.48
-31.94
-22.8
-12.97
-3.29
5.58
13.15
19.14
23.46
26.19
27.55
27.78
27.14
25.84
24.14
22.29
20.54
19.12
18.13
17.62
17.52
17.73
18.13
18.56
18.84
18.79
18.29
17.3
15.88
14.16
12.23
10.09
7.65
4.83
1.59
-1.98
-5.67
-9.21
-12.4
-15.21
-17.78
-20.39
-23.36
-26.95
-31.24
-36.1
-41.18
-45.96
-49.87
-52.36
-53.03
-51.65
-48.25
-43.16
-36.93
-30.3
-24.01
-18.69
-14.66
-12.03
-10.71
-10.52
-11.34
-12.93
-14.93
-16.7
-17.43
-16.34
-13.02
-7.62
-0.88
6.14
12.5
17.57
21.19
23.57
25.03
25.81
26.05
25.71
24.75
23.19
21.15
18.8
16.37
14.05
11.92
9.88
7.77
5.34
2.46
-0.92
-4.74
-8.87
-13.16
-17.37
-21.16
-23.98
-25.24
-24.45
-21.36
-16.14
-9.31
-1.6
6.26
13.69
20.25
25.65
29.69
32.23
33.24
32.8
31.15
28.69
25.91
23.32
21.36
20.21
19.82
19.96
20.32
20.72
21.1
21.51
21.96
22.36
22.5
22.2
21.33
19.95
18.16
15.99
13.45
10.5
7.22
3.79
0.44
-2.71
-5.72
-8.81
-12.21
-16.02
-20.14
-24.34
-28.35
-31.89
-34.59
-36.03
-35.65
-33.0
-27.91
-20.67
-11.99
-2.8
6.0
13.87
20.54
26.02
30.41
33.73
35.98
37.16
37.35
36.76
35.66
34.32
32.92
31.59
30.38
29.34
28.53
27.96
27.53
27.06
26.35
25.22
23.55
21.38
18.79
15.87
12.7
9.35
5.9
2.43
-0.99
-4.27
-7.43
-10.5
-13.6
-16.93
-20.69
-25.05
-30.05
-35.54
-41.11
-46.13
-49.88
-51.68
-51.03
-47.81
-42.23
-34.84
-26.39
-17.68
-9.39
-2.0
4.28
9.36
13.22
15.88
17.36
17.74
17.22
16.08
14.63
13.15
11.82
10.76
10.1
9.97
10.43
11.42
12.68
13.79
14.34
14.08
13.01
11.37
9.47
7.56
5.7
3.8
1.71
-0.71
-3.5
-6.61
-9.95
-13.38
-16.7
-19.82
-22.68
-25.39
-28.2
-31.34
-34.88
-38.53
-41.62
-43.29
-42.77
-39.66
-34.07
-26.58
-17.99
-9.11
-0.6
7.09
13.72
19.13
23.17
25.68
26.5
25.63
23.37
20.28
17.13
14.61
13.13
12.66
12.89
13.38
13.8
14.11
14.36
14.64
14.9
14.96
14.59
13.68
12.27
10.49
8.51
6.35
4.01
1.43
-1.39
-4.36
-7.36
-10.3
-13.17
-16.03
-18.95
-22.05
-25.43
-29.17
-33.3
-37.63
-41.66
-44.62
-45.59
-43.88
-39.25
-32.08
-23.23
-13.74
-4.49
3.94
11.29
17.47
22.41
25.99
28.08
28.64
27.82
26.0
23.68
21.39
19.53
18.37
17.97
18.24
19.01
20.11
21.35
22.53
23.44
23.87
23.62
22.63
21.01
18.96
16.75
14.5
12.2
9.69
6.85
3.64
0.17
-3.4
-7.0
-10.68
-14.61
-18.94
-23.71
-28.74
-33.69
-38.08
-41.4
-43.13
-42.88
-40.39
-35.64
-28.91
-20.76
-11.88
-3.01
5.19
12.16
17.43
20.61
21.5
20.11
16.83
12.36
7.57
3.28
0.04
-1.94
-2.72
-2.52
-1.62
-0.27
1.27
2.77
4.08
5.14
5.91
6.38
6.47
6.01
4.9
3.15
0.98
-1.29
-3.41
-5.3
-7.09
-9.02
-11.27
-13.89
-16.82
-19.98
-23.32
-26.7
-29.85
-32.28
-33.35
-32.45
-29.28
-23.92
-16.87
-8.88
-0.76
6.79
13.26
18.34
21.88
23.93
24.59
24.07
22.58
20.4
17.86
15.33
13.17
11.64
10.8
10.61
10.88
11.51
12.43
13.61
14.89
16.03
16.65
16.46
15.39
13.61
11.47
9.29
7.22
5.18
3.01
0.53
-2.31
-5.51
-9.11
-13.17
-17.75
-22.69
-27.55
-31.57
-33.87
-33.77
-30.99
-25.81
-18.93
-11.21
-3.51
3.58
9.7
14.75
18.68
21.51
23.21
23.76
23.23
21.77
19.69
17.39
15.29
13.71
12.84
12.67
13.03
13.64
14.19
14.41
14.17
13.45
12.37
11.07
9.63
8.01
6.13
3.85
1.18
-1.79
-4.85
-7.86
-10.74
-13.56
-16.48
-19.62
-23.09
-26.89
-30.91
-34.94
-38.56
-41.2
-42.21
-40.99
-37.27
-31.17
-23.22
-14.22
-4.97
3.83
11.7
18.3
23.41
26.85
28.58
28.71
27.54
25.49
23.07
20.74
18.85
17.62
17.09
17.2
17.79
18.63
19.52
20.27
20.75
20.9
20.67
20.01
18.86
17.19
15.02
12.41
9.44
6.23
2.91
-0.42
-3.65
-6.71
-9.65
-12.64
-15.97
-19.92
-24.6
-29.78
-34.9
-39.15
-41.67
-41.83
-39.39
-34.53
-27.78
-19.87
-11.57
-3.54
3.69
9.79
14.57
17.94
19.84
20.3
19.43
17.49
14.92
12.27
10.07
8.65
8.1
8.23
8.74
9.36
9.93
10.43
10.87
11.2
11.3
11.0
10.18
8.84
7.08
5.04
2.84
0.48
-2.03
-4.69
-7.43
-10.14
-12.75
-15.32
-18.05
-21.15
-24.75
-28.75
-32.78
-36.24
-38.4
-38.61
-36.49
-31.99
-25.44
-17.46
-8.78
-0.08
8.07
15.28
21.25
25.77
28.68
29.97
29.77
28.4
26.3
23.93
21.68
19.81
18.51
17.81
17.69
17.98
18.45
18.89
19.1
19.01
18.61
17.96
17.01
15.68
13.79
11.26
8.11
4.55
0.88
-2.59
-5.69
-8.37
-10.75
-13.0
-15.34
-17.94
-20.97
-24.43
-28.18
-31.82
-34.78
-36.42
-36.18
-33.78
-29.22
-22.84
-15.2
-7.02
1.0
8.18
14.04
18.3
20.83
21.74
21.17
19.47
17.0
14.29
11.79
9.89
8.76
8.37
8.53
9.01
9.63
10.25
10.77
11.07
11.05
10.63
9.8
8.58
7.05
5.25
3.18
0.87
-1.67
-4.42
-7.36
-10.48
-13.75
-17.16
-20.64
-24.2
-27.82
-31.52
-35.14
-38.31
-40.4
-40.69
-38.62
-34.05
-27.36
-19.36
-10.98
-2.99
4.1
10.09
14.88
18.36
20.34
20.69
19.47
17.06
14.04
11.09
8.77
7.31
6.73
6.79
7.28
8.01
8.87
9.75
10.52
11.02
11.09
10.63
9.61
8.04
5.95
3.41
0.52
-2.59
-5.77
-8.9
-11.93
-14.9
-17.92
-21.15
-24.67
-28.49
-32.41
-35.97
-38.49
-39.18
-37.43
-33.02
-26.3
-18.05
-9.26
-0.81
6.74
13.12
18.25
22.12
24.64
25.76
25.5
24.01
21.65
18.89
16.27
14.23
13.06
12.77
13.13
13.78
14.29
14.42
14.14
13.57
12.86
12.07
11.12
9.85
8.13
5.92
3.25
0.24
-2.98
-6.24
-9.38
-12.28
-14.89
-17.31
-19.76
-22.5
-25.75
-29.47
-33.35
-36.78
-39.05
-39.47
-37.61
-33.36
-27.01
-19.17
-10.56
-1.96
5.99
12.75
18.0
21.61
23.63
24.26
23.78
22.51
20.7
18.64
16.64
14.97
13.89
13.49
13.68
14.17
14.7
15.03
15.06
14.8
14.26
13.46
12.36
10.96
9.26
7.29
5.05
2.55
-0.18
-3.06
-5.95
-8.75
-11.43
-14.08
-16.85
-19.9
-23.33
-27.12
-31.09
-34.89
-37.96
-39.62
-39.21
-36.33
-30.98
-23.68
-15.22
-6.53
1.6
8.72
14.59
19.16
22.39
24.28
24.85
24.2
22.59
20.4
18.06
15.95
14.37
13.48
13.35
13.84
14.73
15.67
16.34
16.57
16.33
15.79
15.11
14.33
13.23
11.51
8.94
5.6
1.93
-1.47
-4.13
-5.96
-7.28
-8.64
-10.55
-13.24
-16.68
-20.57
-24.6
-28.4
-31.59
-33.73
-34.27
-32.76
-28.96
-23.03
-15.46
-7.03
1.44
9.17
15.64
20.46
23.54
25.03
25.18
24.37
22.94
21.14
19.13
17.04
14.99
13.17
11.77
10.93
10.62
10.72
11.05
11.46
11.86
12.21
12.45
12.41
11.86
10.59
8.55
5.84
2.73
-0.51
-3.63
-6.58
-9.34
-11.98
-14.57
-17.23
-20.11
-23.34
-26.91
-30.6
-33.92
-36.18
-36.74
-35.14
-31.26
-25.38
-18.08
-10.09
-2.19
4.93
10.8
15.18
18.04
19.44
19.56
18.56
16.66
14.16
11.44
8.93
6.98
5.77
5.28
5.34
5.73
6.27
6.91
7.61
8.32
8.87
9.02
8.51
7.2
5.1
2.42
-0.5
-3.38
-6.0
-8.39
-10.7
-13.2
-16.14
-19.65
-23.66
-27.87
-31.77
-34.7
-36.09
-35.48
-32.68
-27.81
-21.28
-13.67
-5.68
2.02
8.93
14.67
19.01
21.82
23.03
22.64
20.8
17.84
14.29
10.74
7.71
5.49
4.14
3.53
3.49
3.86
4.51
5.31
6.01
6.34
6.04
5.01
3.3
1.14
-1.26
-3.66
-5.97
-8.1
-10.04
-11.86
-13.75
-16.04
-19.09
-23.07
-27.76
-32.54
-36.47
-38.62
-38.39
-35.63
-30.67
-24.09
-16.52
-8.52
-0.57
6.93
13.57
19.0
22.99
25.42
26.36
25.95
24.45
22.17
19.53
16.95
14.79
13.26
12.36
11.97
11.94
12.2
12.7
13.39
14.05
14.34
13.91
12.51
10.19
7.2
3.9
0.59
-2.56
-5.55
-8.41
-11.12
-13.79
-16.49
-19.45
-22.9
-26.89
-31.16
-35.11
-37.94
-38.86
-37.45
-33.66
-27.84
-20.63
-12.73
-4.83
2.51
8.85
13.99
17.79
20.24
21.35
21.23
20.06
18.12
15.81
13.5
11.54
10.09
9.2
8.86
8.99
9.55
10.44
11.53
12.57
13.24
13.24
12.33
10.43
7.6
4.08
0.26
-3.46
-6.71
-9.31
-11.34
-13.11
-15.05
-17.51
-20.65
-24.43
-28.63
-32.93
-36.94
-40.15
-41.92
-41.64
-38.89
-33.6
-26.17
-17.35
-7.99
1.15
9.53
16.77
22.63
26.85
29.29
29.97
29.13
27.24
24.89
22.67
20.97
19.97
19.65
19.74
19.99
20.18
20.26
20.3
20.45
20.76
21.13
21.3
20.93
19.8
17.86
15.24
12.14
8.75
5.22
1.61
-2.01
-5.62
-9.2
-12.84
-16.62
-20.61
-24.69
-28.5
-31.45
-32.84
-32.09
-28.97
-23.66
-16.78
-9.12
-1.52
5.4
11.28
15.94
19.34
21.46
22.3
21.9
20.44
18.24
15.77
13.47
11.69
10.6
10.15
10.17
10.43
10.77
11.1
11.44
11.8
12.1
12.17
11.77
10.71
8.97
6.7
4.13
1.53
-0.91
-3.18
-5.32
-7.51
-9.98
-12.93
-16.45
-20.42
-24.44
-27.92
-30.13
-30.49
-28.68
-24.69
-18.8
-11.5
-3.38
4.92
12.79
19.67
25.18
29.11
31.43
32.26
31.81
30.32
28.11
25.57
23.08
21.03
19.61
18.82
18.48
18.31
18.05
17.57
16.83
15.85
14.63
13.08
11.12
8.71
5.84
2.62
-0.8
-4.29
-7.76
-11.22
-14.72
-18.37
-22.26
-26.43
-30.73
-34.81
-38.12
-40.01
-39.94
-37.61
-33.03
-26.57
-18.9
-10.81
-3.06
3.85
9.61
14.17
17.54
19.67
20.49
19.94
18.17
15.63
12.95
10.8
9.54
9.17
9.38
9.78
10.14
10.46
10.86
11.38
11.89
12.13
11.81
10.78
9.05
6.8
4.22
1.47
-1.37
-4.21
-7.04
-9.82
-12.56
-15.33
-18.27
-21.51
-25.1
-28.92
-32.56
-35.39
-36.66
-35.71
-32.24
-26.42
-18.89
-10.58
-2.35
5.18
11.74
17.29
21.79
25.08
26.92
27.14
25.85
23.49
20.7
18.12
16.15
14.94
14.39
14.32
14.58
15.1
15.81
16.62
17.36
17.87
17.93
17.34
16.0
13.85
11.02
7.76
4.34
1.1
-1.78
-4.28
-6.57
-8.85
-11.4
-14.38
-17.89
-21.85
-25.99
-29.86
-32.86
-34.37
-33.98
-31.5
-27.13
-21.27
-14.48
-7.28
-0.18
6.45
12.27
17.0
20.43
22.47
23.19
22.76
21.49
19.67
17.69
15.91
14.63
14.08
14.29
15.1
16.23
17.31
18.0
18.17
17.84
17.13
16.16
14.96
13.43
11.43
8.91
5.99
2.92
0.02
-2.56
-4.82
-7.02
-9.5
-12.49
-16.07
-20.09
-24.34
-28.53
-32.37
-35.54
-37.63
-38.17
-36.79
-33.36
-28.09
-21.62
-14.75
-8.24
-2.61
2.0
5.63
8.4
10.32
11.3
11.24
10.24
8.71
7.27
6.54
6.88
8.24
10.19
12.15
13.64
14.45
14.67
14.58
14.39
14.14
13.66
12.71
11.13
8.94
6.4
3.85
1.59
-0.22
-1.6
-2.7
-3.66
-4.65
-5.83
-7.35
-9.41
-12.1
-15.36
-18.85
-21.96
-24.0
-24.32
-22.61
-18.9
-13.55
-7.15
-0.35
6.32
12.41
17.59
21.57
24.15
25.24
24.92
23.47
21.36
19.06
16.98
15.34
14.26
13.69
13.53
13.62
13.81
13.97
14.05
14.01
13.89
13.65
13.17
12.28
10.75
8.52
5.66
2.39
-0.99
-4.18
-7.01
-9.4
-11.41
-13.25
-15.11
-17.23
-19.69
-22.47
-25.32
-27.86
-29.58
-29.96
-28.64
-25.43
-20.5
-14.28
-7.43
-0.62
5.56
10.71
14.61
17.12
18.24
18.01
16.67
14.57
12.25
10.13
8.53
7.52
6.98
6.75
6.63
6.55
6.42
6.19
5.79
5.17
4.33
3.33
2.23
1.03
-0.34
-2.0
-3.96
-6.17
-8.47
-10.72
-12.89
-15.0
-17.18
-19.51
-21.98
-24.47
-26.72
-28.37
-28.97
-28.09
-25.46
-21.13
-15.51
-9.29
-3.19
2.24
6.78
10.41
13.19
15.06
15.83
15.33
13.58
10.91
7.88
5.15
3.18
2.15
1.89
2.06
2.32
2.48
2.55
2.67
2.99
3.47
3.92
4.06
3.63
2.55
0.93
-0.96
-2.88
-4.69
-6.39
-8.1
-9.9
-11.82
-13.87
-16.1
-18.54
-21.23
-24.04
-26.58
-28.26
-28.44
-26.67
-22.93
-17.57
-11.22
-4.57
1.82
7.6
12.53
16.47
19.3
20.96
21.48
20.94
19.49
17.34
14.73
12.04
9.73
8.21
7.74
8.23
9.28
10.34
10.97
10.98
10.48
9.72
8.81
7.73
6.34
4.54
2.37
-0.03
-2.45
-4.77
-6.97
-9.1
-11.24
-13.45
-15.8
-18.4
-21.31
-24.39
-27.28
-29.29
-29.76
-28.18
-24.51
-19.12
-12.73
-6.07
0.25
5.83
10.52
14.23
16.9
18.46
18.9
18.29
16.82
14.73
12.32
9.91
7.81
6.26
5.43
5.28
5.68
6.43
7.33
8.19
8.82
9.05
8.7
7.66
5.9
3.6
1.06
-1.41
-3.57
-5.35
-6.82
-8.19
-9.64
-11.39
-13.58
-16.31
-19.55
-23.12
-26.66
-29.61
-31.37
-31.44
-29.53
-25.73
-20.43
-14.27
-7.96
-2.05
3.16
7.61
11.32
14.31
16.44
17.51
17.39
16.15
14.18
11.99
10.04
8.61
7.72
7.21
6.94
6.84
6.95
7.27
7.74
8.18
8.33
7.97
6.93
5.22
2.93
0.3
-2.36
-4.72
-6.61
-8.0
-9.12
-10.31
-11.86
-13.99
-16.68
-19.71
-22.73
-25.31
-27.0
-27.31
-25.9
-22.62
-17.65
-11.46
-4.75
1.77
7.48
12.05
15.34
17.39
18.22
17.97
16.77
14.87
12.63
10.42
8.61
7.4
6.82
6.79
7.15
7.73
8.4
9.05
9.59
9.89
9.79
9.16
7.92
6.08
3.77
1.2
-1.41
-3.92
-6.29
-8.6
-11.05
-13.76
-16.79
-20.01
-23.2
-26.03
-28.13
-29.15
-28.73
-26.65
-22.88
-17.63
-11.35
-4.68
1.76
7.44
12.07
15.51
17.68
18.54
18.14
16.65
14.44
12.03
9.93
8.51
7.96
8.3
9.46
11.36
13.85
16.66
19.4
21.58
22.81
22.92
22.02
20.38
18.32
16.01
13.51
10.76
7.69
4.34
0.8
-2.84
-6.56
-10.42
-14.52
-18.86
-23.22
-27.14
-29.96
-31.13
-30.34
-27.61
-23.31
-17.97
-12.12
-6.14
-0.3
5.17
9.98
13.81
16.37
17.51
17.27
15.96
14.01
11.93
10.17
9.02
8.58
8.7
9.08
9.42
9.52
9.31
8.87
8.29
7.65
6.88
5.9
4.64
3.13
1.51
-0.04
-1.43
-2.73
-4.16
-6.03
-8.51
-11.62
-15.12
-18.63
-21.73
-24.03
-25.21
-25.03
-23.36
-20.15
-15.57
-9.97
-3.84
2.33
8.14
13.35
17.85
21.59
24.46
26.32
27.01
26.45
24.74
22.19
19.28
16.53
14.35
12.98
12.37
12.33
12.57
12.89
13.14
13.29
13.21
12.76
11.74
10.02
7.68
4.94
2.23
-0.15
-2.1
-3.69
-5.22
-6.93
-8.99
-11.42
-14.18
-17.06
-19.74
-21.75
-22.52
-21.57
-18.77
-14.33
-8.86
-3.09
2.43
7.37
11.66
15.25
18.0
19.66
19.97
18.87
16.48
13.16
9.33
5.4
1.75
-1.3
-3.53
-4.85
-5.35
-5.27
-4.89
-4.44
-4.03
-3.72
-3.57
-3.69
-4.21
-5.2
-6.54
-7.99
-9.3
-10.31
-11.11
-11.98
-13.24
-15.07
-17.48
-20.25
-23.0
-25.26
-26.57
-26.58
-25.03
-21.89
-17.31
-11.7
-5.56
0.54
6.12
10.87
14.55
17.11
18.49
18.74
17.95
16.36
14.33
12.27
10.59
9.55
9.2
9.4
9.87
10.34
10.66
10.84
10.95
11.09
11.19
11.14
10.73
9.86
8.59
7.13
5.76
4.62
3.61
2.51
1.0
-1.08
-3.72
-6.75
-9.94
-13.08
-15.95
-18.27
-19.69
-19.87
-18.52
-15.64
-11.45
-6.4
-1.0
4.29
9.11
13.21
16.41
18.6
19.75
19.86
19.08
17.64
15.85
14.11
12.74
11.92
11.61
11.59
11.63
11.6
11.51
11.44
11.45
11.47
11.32
10.8
9.79
8.34
6.62
4.82
3.06
1.35
-0.4
-2.27
-4.35
-6.65
-9.17
-11.84
-14.59
-17.34
-20.04
-22.57
-24.75
-26.2
-26.48
-25.24
-22.28
-17.8
-12.32
-6.55
-1.1
3.63
7.52
10.67
13.18
15.1
16.33
16.75
16.33
15.19
13.62
11.99
10.68
9.93
9.85
10.29
11.01
11.7
12.14
12.18
11.79
10.99
9.86
8.46
6.83
5.05
3.16
1.21
-0.72
-2.54
-4.21
-5.74
-7.24
-8.85
-10.71
-12.89
-15.3
-17.78
-20.15
-22.27
-23.98
-25.12
-25.38
-24.44
-22.09
-18.41
-13.75
-8.62
-3.55
1.13
5.22
8.64
11.24
12.85
13.31
12.61
11.0
8.92
6.91
5.47
4.83
5.0
5.74
6.73
7.61
8.2
8.46
8.45
8.28
7.96
7.38
6.38
4.91
3.05
1.07
-0.77
-2.32
-3.6
-4.81
-6.13
-7.67
-9.34
-11.07
-12.81
-14.63
-16.71
-19.19
-22.01
-24.85
-27.23
-28.56
-28.38
-26.43
-22.77
-17.76
-11.94
-5.94
-0.31
4.59
8.61
11.74
14.01
15.38
15.77
15.11
13.53
11.36
9.14
7.41
6.48
6.4
6.87
7.54
8.08
8.39
8.51
8.62
8.81
9.06
9.25
9.14
8.54
7.34
5.56
3.34
0.95
-1.4
-3.55
-5.46
-7.19
-8.85
-10.52
-12.25
-14.08
-16.09
-18.3
-20.65
-22.89
-24.64
-25.46
-24.98
-23.08
-19.83
-15.54
-10.64
-5.59
-0.86
3.15
6.15
8.01
8.71
8.42
7.33
5.72
3.9
2.21
0.98
0.45
0.67
1.43
2.38
3.18
3.67
3.91
4.08
4.32
4.61
4.78
4.56
3.79
2.47
0.75
-1.11
-2.93
-4.61
-6.15
-7.59
-8.95
-10.25
-11.54
-12.93
-14.6
-16.71
-19.22
-21.88
-24.16
-25.45
-25.21
-23.24
-19.64
-14.86
-9.45
-3.89
1.41
6.19
10.21
13.28
15.23
15.94
15.47
14.07
12.12
10.09
8.38
7.28
6.89
7.18
7.99
9.08
10.17
11.0
11.37
11.18
10.46
9.39
8.16
6.89
5.59
4.16
2.49
0.53
-1.61
-3.77
-5.77
-7.51
-9.03
-10.42
-11.8
-13.21
-14.69
-16.31
-18.14
-20.27
-22.63
-25.0
-26.9
-27.79
-27.13
-24.68
-20.46
-14.86
-8.53
-2.18
3.53
8.19
11.63
13.87
15.08
15.49
15.27
14.53
13.53
12.49
11.7
11.38
11.56
12.14
12.94
13.77
14.54
15.15
15.53
15.53
15.05
14.03
12.57
10.86
9.12
7.49
5.96
4.43
2.79
0.94
-1.12
-3.39
-5.75
-8.11
-10.37
-12.47
-14.48
-16.55
-18.95
-21.9
-25.46
-29.35
-33.03
-35.76
-36.83
-35.81
-32.66
-27.74
-21.63
-14.98
-8.34
-2.06
3.63
8.6
12.69
15.76
17.73
18.57
18.42
17.51
16.18
14.73
13.43
12.48
12.03
12.13
12.76
13.76
14.88
15.77
16.09
15.69
14.59
12.99
11.15
9.22
7.21
5.03
2.64
0.11
-2.29
-4.36
-6.03
-7.53
-9.21
-11.44
-14.36
-17.89
-21.78
-25.77
-29.58
-32.94
-35.47
-36.7
-36.18
-33.71
-29.42
-23.75
-17.28
-10.55
-4.01
2.03
7.29
11.54
14.6
16.49
17.41
17.63
17.45
17.05
16.53
15.96
15.52
15.37
15.71
16.53
17.69
18.91
19.93
20.58
20.8
20.58
19.89
18.7
16.99
14.84
12.42
9.97
7.67
5.57
3.6
1.58
-0.66
-3.23
-6.11
-9.29
-12.66
-16.13
-19.56
-22.78
-25.53
-27.47
-28.26
-27.56
-25.18
-21.14
-15.7
-9.4
-2.86
3.38
8.93
13.62
17.38
20.16
21.83
22.33
21.68
20.16
18.23
16.39
15.04
14.36
14.33
14.81
15.63
16.62
17.61
18.4
18.8
18.67
17.95
16.75
15.17
13.41
11.57
9.71
7.84
5.93
3.91
1.64
-0.98
-4.01
-7.43
-11.16
-15.1
-19.24
-23.63
-28.31
-33.24
-38.09
-42.3
-45.18
-46.13
-44.83
-41.38
-36.17
-29.81
-22.94
-16.11
-9.78
-4.25
0.31
3.85
6.36
7.93
8.68
8.75
8.34
7.67
6.99
6.53
6.54
7.17
8.51
10.4
12.57
14.62
16.18
16.98
16.97
16.26
15.01
13.41
11.55
9.5
7.37
5.28
3.35
1.54
-0.31
-2.42
-4.98
-8.0
-11.33
-14.74
-18.08
-21.28
-24.39
-27.38
-30.06
-32.02
-32.8
-31.98
-29.37
-25.09
-19.46
-12.95
-6.03
0.87
7.38
13.24
18.23
22.16
24.87
26.28
26.36
25.35
23.63
21.83
20.53
20.19
20.98
22.71
24.96
27.21
29.1
30.39
31.05
31.0
30.2
28.61
26.25
23.29
20.0
16.61
13.24
9.91
6.45
2.76
-1.22
-5.38
-9.53
-13.46
-17.04
-20.26
-23.26
-26.27
-29.47
-32.84
-36.07
-38.44
-39.12
-37.35
-32.85
-25.84
-17.14
-7.77
1.21
9.01
15.14
19.44
22.01
23.13
23.2
22.58
21.64
20.6
19.67
19.03
18.87
19.32
20.35
21.75
23.14
24.17
24.68
24.68
24.36
23.91
23.33
22.46
21.05
18.95
16.15
12.84
9.28
5.72
2.37
-0.64
-3.23
-5.46
-7.47
-9.45
-11.68
-14.34
-17.53
-21.18
-25.14
-29.08
-32.54
-34.94
-35.7
-34.35
-30.72
-24.98
-17.68
-9.54
-1.35
6.23
12.71
17.77
21.24
23.12
23.54
22.8
21.29
19.49
17.88
16.77
16.35
16.56
17.24
18.11
18.93
19.53
19.78
19.67
19.18
18.33
17.18
15.74
14.02
12.01
9.71
7.14
4.35
1.46
-1.43
-4.25
-6.98
-9.62
-12.19
-14.78
-17.46
-20.34
-23.44
-26.69
-29.8
-32.27
-33.5
-32.96
-30.33
-25.68
-19.41
-12.2
-4.79
2.22
8.36
13.41
17.24
19.85
21.19
21.33
20.43
18.81
16.93
15.28
14.24
13.94
14.3
15.08
15.96
16.72
17.21
17.39
17.23
16.73
15.89
14.69
13.13
11.21
8.91
6.26
3.39
0.47
-2.28
-4.69
-6.76
-8.6
-10.42
-12.46
-14.88
-17.76
-20.99
-24.34
-27.38
-29.57
-30.33
-29.23
-26.12
-21.22
-15.02
-8.19
-1.3
5.21
11.04
16.01
19.96
22.75
24.23
24.39
23.4
21.6
19.47
17.56
16.27
15.8
16.08
16.85
17.77
18.54
19.0
19.1
