0
17.57
17.97
18.42
18.89
19.38
19.81
20.06
19.97
19.44
18.37
16.78
14.79
12.58
10.36
8.24
6.26
4.36
2.39
0.27
-2.0
-4.36
-6.68
-8.94
-11.17
-13.47
-15.98
-18.77
-21.93
-25.56
-29.74
-34.39
-39.2
-43.47
-46.3
-46.81
-44.49
-39.37
-32.09
-23.64
-15.07
-7.17
-0.36
5.3
9.9
13.54
16.24
17.95
18.66
18.54
17.97
17.43
17.34
17.92
19.04
20.38
21.56
22.33
22.64
22.63
22.5
22.35
22.11
21.56
20.45
18.67
16.29
13.59
10.89
8.42
6.22
4.12
1.87
-0.63
-3.31
-5.9
-8.14
-9.95
-11.49
-13.12
-15.23
-18.09
-21.81
-26.27
-31.18
-36.09
-40.32
-43.09
-43.61
-41.38
-36.38
-29.17
-20.73
-12.17
-4.39
2.08
7.08
10.73
13.22
14.79
15.68
16.15
16.51
17.05
17.94
19.23
20.81
22.45
23.95
25.08
25.72
25.89
25.64
25.07
24.27
23.26
22.02
20.47
18.6
16.42
14.02
11.53
9.07
6.76
4.65
2.74
0.92
-0.93
-3.02
-5.55
-8.62
-12.23
-16.23
-20.44
-24.63
-28.6
-32.09
-34.68
-35.9
-35.21
-32.29
-27.23
-20.61
-13.34
-6.37
-0.36
4.45
8.19
11.12
13.41
15.04
15.95
16.11
15.71
15.12
14.71
14.76
15.31
16.24
17.29
18.25
18.96
19.34
19.36
19.04
18.31
17.08
15.26
12.84
9.95
6.89
4.06
1.7
-0.12
-1.64
-3.19
-5.06
-7.35
-9.92
-12.52
-14.94
-17.13
-19.27
-21.62
-24.5
-28.14
-32.57
-37.52
-42.42
-46.43
-48.64
-48.33
-45.18
-39.44
-31.82
-23.33
-14.93
-7.34
-0.9
4.34
8.47
11.56
13.58
14.51
14.47
13.83
13.08
12.76
13.16
14.28
15.87
17.51
18.9
19.86
20.4
20.62
20.62
20.4
19.87
18.93
17.5
15.65
13.53
11.33
9.16
7.0
4.74
2.28
-0.43
-3.26
-6.03
-8.53
-10.66
-12.42
-13.95
-15.43
-17.16
-19.48
-22.71
-27.04
-32.3
-37.9
-42.84
-45.99
-46.44
-43.83
-38.48
-31.28
-23.37
-15.76
-9.06
-3.46
1.2
5.14
8.51
11.3
13.43
14.8
15.4
15.4
15.1
14.84
14.94
15.58
16.77
18.34
20.03
21.53
22.64
23.2
23.18
22.57
21.41
19.82
17.95
16.01
14.17
12.52
11.0
9.49
7.86
6.01
3.93
1.61
-0.95
-3.75
-6.75
-9.89
-13.1
-16.37
-19.78
-23.45
-27.39
-31.34
-34.68
-36.64
-36.44
-33.67
-28.4
-21.24
-13.13
-5.06
2.16
8.02
12.37
15.33
17.15
18.09
18.38
18.17
17.61
16.84
16.09
15.65
15.74
16.47
17.75
19.32
20.78
21.81
22.17
21.84
20.95
19.7
18.22
16.56
14.64
12.35
9.72
6.86
3.97
1.24
-1.3
-3.75
-6.25
-8.89
-11.64
-14.43
-17.24
-20.23
-23.61
-27.55
-31.9
-36.12
-39.34
-40.62
-39.3
-35.26
-29.01
-21.52
-13.9
-7.06
-1.47
2.8
5.96
8.24
9.81
10.73
11.06
10.94
10.64
10.49
10.76
11.61
13.0
14.7
16.4
17.73
18.45
18.44
17.78
16.65
15.22
13.59
11.75
9.72
7.56
5.42
3.42
1.57
-0.25
-2.2
-4.41
-6.83
-9.28
-11.56
-13.58
-15.48
-17.55
-20.22
-23.82
-28.44
-33.78
-39.17
-43.62
-46.12
-45.94
-42.84
-37.19
-29.81
-21.67
-13.71
-6.57
-0.6
4.1
7.58
10.0
11.58
12.58
13.26
13.88
14.6
15.49
16.54
17.69
18.86
20.02
21.1
22.03
22.72
23.06
22.98
22.46
21.54
20.32
18.87
17.24
15.48
13.61
11.64
9.53
7.26
4.78
2.09
-0.69
-3.44
-6.0
-8.33
-10.53
-12.82
-15.48
-18.76
-22.81
-27.54
-32.59
-37.3
-40.79
-42.18
-40.86
-36.74
-30.34
-22.62
-14.65
-7.33
-1.15
3.73
7.41
10.04
11.79
12.85
13.48
13.99
14.7
15.85
17.52
19.61
21.85
23.92
25.51
26.47
26.8
26.67
26.33
25.95
25.56
25.04
24.18
22.84
21.04
18.88
16.53
14.1
11.61
9.03
6.37
3.71
1.15
-1.22
-3.36
-5.36
-7.38
-9.62
-12.34
-15.73
-19.85
-24.49
-29.11
-32.9
-34.93
-34.49
-31.31
-25.72
-18.55
-10.89
-3.74
2.22
6.79
10.1
12.44
14.06
15.05
15.47
15.45
15.28
15.36
16.03
17.43
19.39
21.48
23.25
24.39
24.78
24.52
23.81
22.83
21.68
20.35
18.76
16.8
14.47
11.86
9.18
6.67
4.49
2.62
0.9
-0.9
-2.99
-5.48
-8.36
-11.64
-15.32
-19.5
-24.2
-29.24
-34.2
-38.4
-41.07
-41.54
-39.46
-34.91
-28.4
-20.76
-12.91
-5.73
0.24
4.82
8.13
10.44
12.01
13.01
13.54
13.73
13.82
14.11
14.88
16.2
17.91
19.7
21.21
22.21
22.66
22.61
22.17
21.41
20.32
18.87
17.06
14.91
12.5
9.89
7.17
4.42
1.74
-0.81
-3.21
-5.51
-7.8
-10.12
-12.47
-14.83
-17.27
-19.92
-23.05
-26.86
-31.35
-36.18
-40.65
-43.88
-45.06
-43.68
-39.67
-33.45
-25.76
-17.52
-9.58
-2.6
3.06
7.34
10.42
12.57
14.04
15.02
15.7
16.29
17.01
18.03
19.39
21.0
22.66
24.11
25.19
25.83
26.02
25.81
25.17
24.1
22.58
20.68
18.5
16.21
13.98
11.91
9.97
8.08
6.08
3.87
1.46
-1.02
-3.39
-5.54
-7.5
-9.38
-11.4
-13.74
-16.58
-20.02
-24.11
-28.74
-33.58
-37.97
-41.07
-42.02
-40.27
-35.8
-29.15
-21.27
-13.2
-5.84
0.28
5.02
8.51
11.0
12.72
13.84
14.44
14.64
14.65
14.75
15.26
16.31
17.86
19.67
21.38
22.75
23.67
24.15
24.22
23.9
23.16
21.96
20.33
18.37
16.22
14.04
11.93
9.93
8.01
6.06
3.97
1.7
-0.71
-3.11
-5.29
-7.22
-9.0
-10.97
-13.48
-16.76
-20.74
-25.05
-28.99
-31.8
-32.79
-31.49
-27.83
-22.12
-15.04
-7.45
-0.19
6.05
10.9
14.25
16.25
17.16
17.33
17.05
16.56
16.04
15.6
15.37
15.5
16.14
17.3
18.83
20.37
21.48
21.82
21.24
19.81
17.79
15.48
13.1
10.79
8.64
6.66
4.79
2.95
1.02
-1.06
-3.3
-5.61
-7.87
-9.99
-12.06
-14.32
-17.09
-20.64
-25.06
-30.16
-35.42
-40.12
-43.37
-44.46
-42.96
-38.93
-32.9
-25.69
-18.27
-11.41
-5.6
-0.97
2.55
5.15
6.98
8.16
8.79
9.04
9.14
9.38
10.02
11.19
12.82
14.68
16.43
17.77
18.61
18.95
18.91
18.52
17.74
16.46
14.7
12.56
10.33
8.24
6.4
4.75
3.12
1.36
-0.55
-2.53
-4.47
-6.33
-8.2
-10.23
-12.58
-15.39
-18.71
-22.6
-27.0
-31.78
-36.56
-40.75
-43.59
-44.29
-42.36
-37.74
-30.87
-22.62
-13.98
-5.88
1.06
6.51
10.42
12.91
14.24
14.74
14.84
14.96
15.4
16.31
17.64
19.21
20.78
22.15
23.22
23.93
24.31
24.35
24.03
23.32
22.18
20.64
18.77
16.72
14.64
12.61
10.61
8.56
6.36
3.97
1.43
-1.17
-3.72
-6.14
-8.38
-10.42
-12.32
-14.23
-16.42
-19.22
-22.91
-27.49
-32.6
-37.46
-41.07
-42.5
-41.19
-37.1
-30.79
-23.2
-15.37
-8.19
-2.19
2.51
6.04
8.65
10.6
12.04
13.06
13.76
14.27
14.79
15.47
16.43
17.66
19.05
20.46
21.71
22.67
23.25
23.47
23.35
22.94
22.21
21.12
19.63
17.76
15.65
13.47
11.38
9.39
7.37
5.17
2.75
0.2
-2.25
-4.44
-6.41
-8.38
-10.68
-13.58
-17.13
-21.19
-25.36
-29.14
-31.89
-33.04
-32.11
-28.96
-23.84
-17.39
-10.46
-3.89
1.73
6.11
9.26
11.3
12.41
12.8
12.65
12.25
11.91
11.94
12.56
13.79
15.48
17.33
19.02
20.29
21.05
21.33
21.18
20.66
19.73
18.32
16.39
14.03
11.46
8.99
6.81
4.96
3.26
1.35
-1.01
-3.93
-7.21
-10.52
-13.56
-16.24
-18.72
-21.33
-24.45
-28.22
-32.56
-37.14
-41.46
-44.97
-47.08
-47.29
-45.25
-40.97
-34.8
-27.38
-19.54
-12.06
-5.46
-0.05
4.12
7.09
8.97
9.98
10.43
10.74
11.3
12.36
13.95
15.84
17.73
19.37
20.67
21.67
22.48
23.16
23.63
23.68
23.1
21.84
19.96
17.76
15.52
13.45
11.62
9.94
8.28
6.5
4.56
2.42
0.07
-2.49
-5.24
-8.09
-10.87
-13.53
-16.07
-18.74
-21.83
-25.59
-30.02
-34.79
-39.21
-42.43
-43.64
-42.32
-38.42
-32.39
-25.06
-17.37
-10.13
-3.78
1.52
5.83
9.19
11.64
13.17
13.92
14.2
14.44
15.05
16.22
17.9
19.81
21.69
23.34
24.71
25.82
26.68
27.23
27.36
26.95
25.95
24.42
22.52
20.45
18.34
16.3
14.32
12.37
10.41
8.44
6.44
4.4
2.28
0.05
-2.29
-4.71
-7.19
-9.77
-12.56
-15.74
-19.39
-23.44
-27.47
-30.86
-32.86
-32.84
-30.47
-25.88
-19.62
-12.52
-5.44
0.9
6.09
9.99
12.65
14.2
14.83
14.76
14.34
13.97
14.0
14.64
15.85
17.34
18.74
19.7
20.1
20.0
19.64
19.21
18.79
18.31
17.58
16.42
14.83
12.99
11.13
9.43
7.89
6.34
4.58
2.48
0.08
-2.48
-5.08
-7.67
-10.26
-12.93
-15.73
-18.77
-22.24
-26.31
-30.97
-35.95
-40.52
-43.69
-44.56
-42.61
-37.98
-31.34
-23.68
-15.94
-8.83
-2.67
2.45
6.55
9.7
11.94
13.34
14.01
14.18
14.11
14.12
14.45
15.28
16.59
18.22
19.92
21.42
22.52
23.16
23.33
23.03
22.22
20.81
18.76
16.15
13.2
10.26
7.63
5.49
3.83
2.45
1.11
-0.46
-2.39
-4.71
-7.31
-10.09
-12.89
-15.65
-18.37
-21.16
-24.22
-27.72
-31.75
-36.16
-40.48
-43.98
-45.81
-45.27
-42.03
-36.33
-28.87
-20.68
-12.75
-5.76
-0.04
4.47
7.97
10.66
12.69
14.15
15.22
16.15
17.21
18.63
20.43
22.44
24.37
25.95
27.03
27.56
27.56
27.07
26.15
24.88
23.34
21.63
19.78
17.76
15.57
13.27
11.0
8.95
7.22
5.76
4.37
2.83
1.01
-1.06
-3.25
-5.42
-7.53
-9.71
-12.13
-14.98
-18.4
-22.42
-26.92
-31.59
-35.88
-39.14
-40.65
-39.87
-36.66
-31.27
-24.34
-16.71
-9.23
-2.59
2.86
7.0
9.98
12.02
13.34
14.16
14.66
15.04
15.55
16.37
17.56
19.0
20.47
21.76
22.78
23.55
24.13
24.52
24.62
24.29
23.45
22.17
20.65
19.12
17.69
16.33
14.92
13.32
11.49
9.51
7.5
5.5
3.5
1.4
-0.9
-3.48
-6.36
-9.51
-12.99
-16.89
-21.24
-25.84
-30.21
-33.62
-35.28
-34.62
-31.55
-26.46
-20.03
-13.11
-6.4
-0.41
4.62
8.53
11.29
12.93
13.55
13.38
12.78
12.18
12.01
12.56
13.86
15.64
17.47
18.87
19.56
19.5
18.86
17.89
16.77
15.56
14.25
12.79
11.22
9.63
8.08
6.6
5.13
3.54
1.63
-0.69
-3.44
-6.42
-9.28
-11.68
-13.44
-14.66
-15.74
-17.23
-19.64
-23.22
-27.98
-33.54
-39.22
-44.12
-47.29
-47.92
-45.61
-40.56
-33.52
-25.55
-17.69
-10.66
-4.78
-0.03
3.71
6.63
8.82
10.39
11.47
12.22
12.85
13.59
14.61
15.97
17.55
19.08
20.25
20.85
20.95
20.78
20.63
20.62
20.59
20.22
19.18
17.4
15.08
12.6
10.31
8.4
6.82
5.41
3.98
2.38
0.54
-1.57
-3.91
-6.38
-8.8
-11.0
-12.9
-14.63
-16.46
-18.82
-22.05
-26.26
-31.14
-36.02
-39.93
-41.95
-41.47
-38.4
-33.13
-26.47
-19.25
-12.2
-5.85
-0.49
3.74
6.79
8.69
9.6
9.83
9.77
9.86
10.44
11.71
13.6
15.86
18.12
20.06
21.46
22.35
22.83
23.04
23.07
22.9
22.47
21.74
20.69
19.36
17.85
16.27
14.72
13.25
11.78
10.15
8.15
5.69
2.82
-0.17
-2.97
-5.27
-6.97
-8.17
-9.12
-10.22
-11.9
-14.54
-18.27
-22.87
-27.75
-31.99
-34.65
-35.02
-32.84
-28.32
-22.06
-14.92
-7.81
-1.52
3.46
6.99
9.32
10.84
11.93
12.77
13.37
13.65
13.66
13.61
13.81
14.45
15.55
16.86
18.08
18.94
19.38
19.46
19.32
19.02
18.49
17.62
16.22
14.22
11.71
8.91
6.1
3.52
1.25
-0.73
-2.57
-4.39
-6.29
-8.31
-10.53
-13.06
-16.16
-20.05
-24.93
-30.77
-37.18
-43.47
-48.73
-52.02
-52.63
-50.28
-45.22
-38.1
-29.83
-21.3
-13.26
-6.15
-0.19
4.57
8.24
10.94
12.86
14.12
14.82
14.96
14.55
13.58
12.14
10.37
8.53
6.87
5.61
4.9
4.76
5.17
6.06
7.31
8.76
10.22
11.49
12.42
13.02
13.47
14.08
15.09
16.48
17.91
18.83
18.89
18.13
17.08
16.43
16.62
17.56
18.54
18.63
17.1
13.86
9.41
4.65
0.4
-2.77
-4.68
-5.48
-5.37
-4.57
-3.3
-1.84
-0.46
0.57
0.99
0.7
-0.35
-2.1
-4.42
-7.15
-10.07
-12.95
-15.58
-17.8
-19.53
-20.74
-21.41
-21.44
-20.64
-18.88
-16.07
-12.29
-7.71
-2.59
2.89
8.59
14.37
20.07
25.41
30.02
33.6
35.97
37.21
37.48
36.97
35.77
33.83
31.08
27.58
23.67
19.81
16.46
13.75
11.34
8.55
4.68
-0.56
-6.81
-13.14
-18.4
-21.7
-22.72
-21.81
-19.8
-17.63
-16.08
-15.48
-15.69
-16.22
-16.5
-16.09
-14.99
-13.59
-12.49
-12.18
-12.74
-13.83
-14.91
-15.51
-15.57
-15.32
-15.13
-15.2
-15.45
-15.6
-15.39
-14.76
-13.92
-13.25
-13.11
-13.7
-14.99
-16.73
-18.54
-20.07
-21.07
-21.52
-21.62
-21.65
-21.86
-22.33
-22.99
-23.66
-24.3
-24.97
-25.9
-27.31
-29.3
-31.69
-34.0
-35.52
-35.59
-33.71
-29.79
-24.14
-17.39
-10.23
-3.24
3.26
9.14
14.35
18.85
22.54
25.36
27.29
28.47
29.13
29.55
29.97
30.51
31.16
31.81
32.32
32.57
32.56
32.35
31.98
31.44
30.66
29.54
28.07
26.35
24.55
22.8
21.15
19.5
17.73
15.74
13.52
11.17
8.76
6.32
3.8
1.11
-1.86
-5.23
-9.03
-13.19
-17.45
-21.36
-24.32
-25.71
-25.06
-22.21
-17.38
-11.16
-4.34
2.28
8.13
12.92
16.62
19.32
21.11
22.01
22.02
21.29
20.11
18.9
18.04
17.7
17.84
18.23
18.65
18.94
19.07
19.02
18.76
18.2
17.22
15.78
13.93
11.83
9.7
7.72
6.03
4.65
3.44
2.21
0.77
-1.0
-3.04
-5.23
-7.43
-9.62
-11.9
-14.44
-17.42
-20.95
-25.03
-29.48
-33.87
-37.55
-39.74
-39.75
-37.31
-32.66
-26.58
-20.02
-13.85
-8.55
-4.15
-0.47
2.75
5.63
8.19
10.32
11.98
13.19
14.02
14.6
15.01
15.29
15.45
15.47
15.33
15.08
14.73
14.31
13.85
13.26
12.42
11.19
9.47
7.3
4.82
2.33
0.16
-1.44
-2.41
-2.89
-3.15
-3.47
-4.04
-4.87
-5.94
-7.26
-8.93
-11.18
-14.12
-17.66
-21.42
-24.85
-27.37
-28.48
-27.94
-25.73
-22.04
-17.19
-11.67
-6.0
-0.67
3.95
7.75
10.81
13.31
15.42
17.16
18.4
19.0
18.96
18.47
17.86
17.51
17.6
18.04
18.5
18.62
18.11
16.92
15.22
13.33
11.5
9.89
8.5
7.19
5.82
4.27
2.58
0.87
-0.72
-2.11
-3.38
-4.79
-6.57
-8.89
-11.73
-14.88
-18.11
-21.22
-24.13
-26.77
-28.97
-30.45
-30.79
-29.59
-26.65
-22.15
-16.59
-10.72
-5.23
-0.54
3.22
6.22
8.61
10.45
11.57
11.81
11.16
9.94
8.72
8.09
8.42
9.7
11.59
13.59
15.21
16.17
16.37
15.96
15.11
14.05
12.86
11.52
9.93
8.0
5.76
3.38
1.09
-0.98
-2.83
-4.6
-6.47
-8.5
-10.65
-12.82
-15.0
-17.3
-19.9
-22.87
-26.04
-28.88
-30.69
-30.81
-28.82
-24.75
-19.09
-12.59
-6.09
-0.29
4.44
8.04
10.61
12.38
13.46
13.97
14.01
13.68
13.21
12.82
12.7
13.01
13.79
14.96
16.34
17.62
18.51
18.79
18.39
17.4
16.02
14.41
12.68
10.86
8.9
6.79
4.51
2.09
-0.42
-2.94
-5.36
-7.6
-9.59
-11.41
-13.2
-15.2
-17.61
-20.49
-23.7
-26.85
-29.36
-30.63
-30.15
-27.79
-23.81
-18.79
-13.47
-8.43
-3.95
0.0
3.54
6.74
9.47
11.52
12.68
12.97
12.67
12.24
12.14
12.69
13.89
15.43
16.82
17.68
17.83
17.41
16.73
16.04
15.4
14.66
13.57
12.0
10.02
7.83
5.64
3.62
1.78
0.08
-1.49
-2.95
-4.32
-5.7
-7.22
-9.07
-11.35
-14.06
-17.02
-19.89
-22.21
-23.48
-23.29
-21.47
-18.14
-13.75
-8.88
-4.09
0.22
3.88
6.87
9.22
10.93
12.01
12.49
12.51
12.28
12.07
12.06
12.32
12.76
13.27
13.67
13.9
13.95
13.87
13.7
13.42
12.96
12.2
11.01
9.35
7.25
4.84
2.27
-0.27
-2.7
-4.97
-7.13
-9.22
-11.27
-13.28
-15.26
-17.22
-19.21
-21.34
-23.61
-25.9
-27.86
-29.0
-28.78
-26.89
-23.32
-18.45
-12.94
-7.45
-2.53
1.52
4.63
6.86
8.29
9.01
9.12
8.8
8.35
8.1
8.32
9.18
10.64
12.42
14.13
15.37
15.84
15.45
14.34
12.79
11.14
9.58
8.17
6.79
5.25
3.44
1.33
-0.98
-3.35
-5.62
-7.65
-9.41
-10.92
-12.3
-13.75
-15.47
-17.63
-20.3
-23.35
-26.5
-29.31
-31.22
-31.72
-30.43
-27.23
-22.38
-16.5
-10.4
-4.83
-0.32
2.98
5.22
6.69
7.7
8.45
9.02
9.43
9.72
9.92
10.14
10.43
10.82
11.28
11.68
11.91
11.89
11.64
11.26
10.89
10.58
10.21
9.58
8.47
6.8
4.7
2.43
0.24
-1.73
-3.54
-5.36
-7.39
-9.71
-12.32
-15.13
-18.03
-20.95
-23.87
-26.69
-29.15
-30.82
-31.17
-29.74
-26.4
-21.44
-15.49
-9.32
-3.57
1.42
5.58
8.99
11.67
13.54
14.45
14.35
13.43
12.13
10.98
10.48
10.83
11.92
13.36
14.69
15.51
15.67
15.23
14.39
13.33
12.17
10.84
9.3
7.54
5.61
3.68
1.86
0.17
-1.47
-3.2
-5.11
-7.21
-9.38
-11.51
-13.55
-15.61
-17.88
-20.51
-23.43
-26.24
-28.32
-28.98
-27.79
-24.7
-20.06
-14.52
-8.71
-3.12
1.92
6.25
9.72
12.2
13.58
13.88
13.31
12.26
11.16
10.41
10.27
10.82
11.96
13.47
15.06
16.45
17.44
17.89
17.73
16.98
15.68
13.92
11.8
9.44
6.95
4.45
2.03
-0.27
-2.4
-4.41
-6.4
-8.54
-10.92
-13.62
-16.56
-19.56
-22.42
-24.95
-26.92
-28.06
-28.06
-26.67
-23.85
-19.8
-15.0
-9.99
-5.25
-1.05
2.55
5.53
7.88
9.52
10.41
10.56
10.19
9.61
9.26
9.49
10.48
12.16
14.19
16.09
17.44
17.96
17.62
16.61
15.15
13.39
11.35
9.03
6.46
3.84
1.37
-0.75
-2.47
-3.9
-5.26
-6.77
-8.6
-10.84
-13.47
-16.47
-19.82
-23.47
-27.31
-31.08
-34.32
-36.48
-37.02
-35.65
-32.43
-27.77
-22.29
-16.67
-11.34
-6.53
-2.22
1.67
5.2
8.33
10.91
12.77
13.88
14.34
14.47
14.66
15.25
16.35
17.84
19.41
20.7
21.42
21.46
20.88
19.83
18.5
17.06
15.62
14.26
13.01
11.85
10.7
9.4
7.79
5.76
3.32
0.61
-2.17
-4.84
-7.4
-10.01
-12.92
-16.34
-20.33
-24.71
-29.1
-32.95
-35.65
-36.65
-35.57
-32.38
-27.42
-21.33
-14.87
-8.68
-3.12
1.71
5.8
9.15
11.69
13.33
14.14
14.37
14.43
14.77
15.69
17.17
19.0
20.83
22.32
23.34
23.85
23.97
23.82
23.46
22.89
22.07
20.97
19.6
17.98
16.17
14.21
12.18
10.11
8.05
6.03
4.03
2.01
-0.04
-2.1
-4.22
-6.5
-9.14
-12.28
-15.93
-19.82
-23.42
-26.07
-27.19
-26.46
-23.87
-19.72
-14.5
-8.78
-3.08
2.17
6.69
10.3
12.88
14.44
15.07
14.97
14.52
14.15
14.23
14.91
16.06
17.34
18.44
19.17
19.53
19.62
19.46
18.99
18.13
16.83
15.17
13.31
11.43
9.58
7.77
5.95
4.09
2.2
0.3
-1.62
-3.51
-5.32
-7.0
-8.56
-10.18
-12.19
-14.94
-18.62
-23.11
-27.92
-32.31
-35.41
-36.52
-35.21
-31.54
-25.98
-19.34
-12.52
-6.31
-1.15
2.85
5.83
7.99
9.5
10.53
11.21
11.76
12.39
13.25
14.38
15.65
16.88
17.9
18.63
19.07
19.32
19.48
19.62
19.67
19.45
18.72
17.31
15.24
12.75
10.17
7.84
5.89
4.27
2.8
1.27
-0.47
-2.45
-4.58
-6.7
-8.65
-10.38
-11.99
-13.8
-16.21
-19.48
-23.54
-27.93
-31.87
-34.53
-35.25
-33.8
-30.31
-25.22
-19.11
-12.64
-6.36
-0.71
4.05
7.86
10.8
12.97
14.5
15.5
16.11
16.52
16.93
17.48
18.21
19.05
19.9
20.69
21.35
21.85
22.1
22.05
21.66
20.94
19.94
18.72
17.3
15.69
13.98
12.32
10.88
9.73
8.74
7.61
6.01
3.81
1.07
-1.92
-4.85
-7.54
-9.96
-12.29
-14.74
-17.54
-20.8
-24.48
-28.31
-31.83
-34.47
-35.67
-35.0
-32.38
-27.96
-22.2
-15.68
-9.05
-2.88
2.4
6.55
9.52
11.36
12.25
12.38
12.02
11.5
11.14
11.22
11.87
13.02
14.48
16.04
17.55
18.93
20.06
20.84
21.1
20.77
19.89
18.66
17.34
16.1
14.94
13.73
12.26
10.4
8.17
5.73
3.26
0.88
-1.4
-3.64
-5.91
-8.24
-10.61
-13.02
-15.56
-18.45
-21.83
-25.6
-29.29
-32.09
-33.12
-31.79
-28.09
-22.61
-16.3
-10.06
-4.52
0.1
3.84
6.8
9.01
10.46
11.18
11.33
11.28
11.47
12.2
13.54
15.27
16.98
18.29
19.0
19.16
19.03
18.81
18.59
18.21
17.4
15.94
13.81
11.22
8.5
5.98
3.83
2.07
0.58
-0.85
-2.33
-3.95
-5.69
-7.46
-9.17
-10.79
-12.41
-14.19
-16.31
-18.9
-22.03
-25.7
-29.79
-34.03
-37.92
-40.79
-41.91
-40.74
-37.19
-31.68
-25.03
-18.19
-11.93
-6.68
-2.48
0.81
3.37
5.33
6.79
7.84
8.65
9.45
10.46
11.81
13.49
15.34
17.15
18.71
19.93
20.82
21.44
21.8
21.84
21.43
20.46
18.88
16.79
14.43
12.06
9.92
8.1
6.57
5.17
3.66
1.88
-0.27
-2.7
-5.24
-7.68
-9.86
-11.8
-13.63
-15.6
-17.99
-20.98
-24.59
-28.6
-32.53
-35.72
-37.5
-37.37
-35.14
-31.06
-25.64
-19.57
-13.5
-7.92
-3.11
0.84
3.99
6.51
8.6
10.41
12.01
13.4
14.57
15.53
16.37
17.15
17.94
18.69
19.33
19.78
19.98
20.01
19.96
19.91
19.81
19.54
18.89
17.72
16.04
14.02
11.93
10.0
8.38
7.01
5.75
4.42
2.94
1.32
-0.39
-2.12
-3.88
-5.7
-7.72
-10.02
-12.69
-15.75
-19.14
-22.7
-26.11
-28.99
-30.88
-31.39
-30.23
-27.33
-22.92
-17.44
-11.49
-5.62
-0.24
4.41
8.22
11.11
13.04
14.03
14.23
13.99
13.69
13.64
13.97
14.6
15.34
16.07
16.77
17.5
18.26
18.98
19.47
19.52
19.03
18.03
16.61
14.9
13.02
11.0
8.89
6.73
4.6
2.53
0.56
-1.32
-3.16
-5.02
-7.0
-9.12
-11.47
-14.11
-17.13
-20.62
-24.49
-28.47
-32.03
-34.48
-35.23
-33.93
-30.64
-25.7
-19.72
-13.35
-7.15
-1.58
3.01
6.42
8.62
9.76
10.18
10.28
10.42
10.83
11.63
12.76
14.06
15.37
16.52
17.41
18.01
18.35
18.44
18.27
17.74
16.76
15.32
13.51
11.54
9.62
7.9
6.36
4.89
3.28
1.36
-0.96
-3.62
-6.4
-9.04
-11.32
-13.17
-14.74
-16.38
-18.54
-21.52
-25.43
-30.05
-34.82
-38.96
-41.67
-42.27
-40.44
-36.31
-30.45
-23.67
-16.78
-10.42
-4.9
-0.29
3.47
6.45
8.67
10.2
11.18
11.9
12.65
13.7
15.17
16.94
18.79
20.43
21.68
22.48
22.94
23.24
23.47
23.59
23.37
22.56
21.02
18.8
16.15
13.42
10.88
8.66
6.77
5.09
3.48
1.8
-0.08
-2.21
-4.58
-7.1
-9.63
-12.06
-14.41
-16.81
-19.45
-22.53
-26.14
-30.15
-34.19
-37.69
-39.92
-40.23
-38.2
-33.85
-27.66
-20.47
-13.18
-6.54
-0.98
3.41
6.75
9.25
11.09
12.4
13.28
13.86
14.29
14.74
15.38
16.31
17.51
18.88
20.26
21.51
22.52
23.22
23.5
23.22
22.26
20.61
18.49
16.26
14.35
13.01
12.22
11.74
11.19
10.22
8.7
6.69
4.42
2.18
0.2
-1.47
-2.99
-4.69
-6.96
-10.09
-14.1
-18.7
-23.36
-27.36
-30.06
-30.9
-29.59
-26.14
-20.91
-14.53
-7.84
-1.62
3.61
7.64
10.56
12.58
13.91
14.72
15.17
15.44
15.74
16.25
17.03
18.02
19.03
19.9
20.57
21.01
21.24
21.2
20.84
20.07
18.87
17.31
15.56
13.76
12.01
10.34
8.65
6.88
4.91
2.76
0.48
-1.84
-4.1
-6.26
-8.36
-10.44
-12.56
-14.83
-17.34
-20.28
-23.8
-27.97
-32.63
-37.34
-41.35
-43.84
-44.08
-41.72
-36.87
-30.15
-22.44
-14.69
-7.66
-1.78
2.9
6.55
9.35
11.48
12.99
13.96
14.55
15.01
15.62
16.53
17.74
19.06
20.26
21.2
21.84
22.3
22.69
23.03
23.26
23.17
22.58
21.37
19.6
17.47
15.29
13.34
11.77
10.5
9.31
7.9
6.09
3.86
1.35
-1.25
-3.83
-6.4
-9.07
-11.93
-15.07
-18.51
-22.24
-26.31
-30.63
-34.97
-38.8
-41.37
-41.92
-39.93
-35.41
-28.94
-21.5
-14.13
-7.6
-2.23
2.06
5.51
8.36
10.67
12.43
13.65
14.45
15.07
15.78
16.8
18.15
19.71
21.3
22.66
23.69
24.37
24.8
25.05
25.1
24.78
23.86
22.21
19.9
17.22
14.58
12.32
10.56
9.2
8.03
6.81
5.4
3.76
1.89
-0.12
-2.15
-4.11
-5.96
-7.81
-9.91
-12.57
-15.99
-20.15
-24.71
-29.12
-32.68
-34.71
-34.71
-32.45
-28.06
-22.0
-15.05
-8.03
-1.7
3.44
7.19
9.61
10.93
11.44
11.51
11.48
11.71
12.43
13.72
15.46
17.39
19.23
20.78
21.94
22.69
23.04
22.92
22.27
21.02
19.19
16.9
14.36
11.79
9.38
7.22
5.31
3.55
1.83
0.08
-1.71
-3.49
-5.24
-7.02
-8.95
-11.21
-13.92
-17.14
-20.84
-24.94
-29.22
-33.34
-36.78
-38.86
-38.97
-36.71
-32.13
-25.72
-18.29
-10.73
-3.83
1.93
6.35
9.48
11.53
12.77
13.41
13.68
13.76
13.86
14.09
14.55
15.15
15.75
16.21
16.49
16.7
17.03
17.53
18.08
18.35
18.01
16.85
14.96
12.55
9.97
7.47
5.23
3.29
1.62
0.07
-1.58
-3.48
-5.71
-8.14
-10.55
-12.78
-14.84
-16.96
-19.51
-22.79
-26.86
-31.55
-36.36
-40.67
-43.74
-44.89
-43.69
-40.07
-34.39
-27.38
-19.92
-12.77
-6.45
-1.18
3.04
6.3
8.7
10.35
11.34
11.8
11.94
12.01
12.3
13.03
14.27
15.93
17.78
19.55
21.01
22.05
22.66
22.88
22.76
22.29
21.4
20.0
18.07
15.68
13.09
10.61
8.55
7.03
5.87
4.67
3.0
0.63
-2.33
-5.48
-8.37
-10.75
-12.68
-14.54
-16.81
-19.87
-23.81
-28.45
-33.33
-37.78
-41.07
-42.54
-41.76
-38.67
-33.56
-27.07
-19.97
-12.97
-6.6
-1.14
3.35
6.9
9.58
11.48
12.66
13.27
13.57
13.87
14.49
15.62
17.21
18.96
20.51
21.54
21.99
21.95
21.65
21.21
20.65
19.83
18.67
17.2
15.54
13.89
12.31
10.79
9.27
7.63
5.89
4.07
2.25
0.46
-1.34
-3.24
-5.36
-7.82
-10.73
-14.14
-18.02
-22.24
-26.47
-30.29
-33.1
-34.3
-33.42
-30.26
-25.08
-18.52
-11.45
-4.74
1.04
5.69
9.24
11.84
13.56
14.45
14.61
14.27
13.82
13.63
13.94
14.79
16.0
17.31
18.43
19.16
19.4
19.14
18.43
17.34
15.95
14.3
12.45
10.45
8.38
6.34
4.4
2.61
0.93
-0.73
-2.44
-4.25
-6.19
-8.27
-10.54
-13.04
-15.86
-19.04
-22.66
-26.69
-31.05
-35.43
-39.27
-41.84
-42.44
-40.6
-36.33
-30.13
-22.86
-15.49
-8.8
-3.25
1.13
4.47
7.03
8.96
10.34
11.27
11.92
12.58
13.5
14.88
16.64
18.5
20.08
21.12
21.57
21.59
21.39
21.03
20.45
19.42
17.88
15.89
13.74
11.74
10.1
8.8
7.6
6.2
4.34
2.0
-0.72
-3.51
-6.15
-8.49
-10.55
-12.54
-14.72
-17.35
-20.6
-24.49
-28.85
-33.29
-37.17
-39.68
-40.09
-37.93
-33.24
-26.61
-18.99
-11.41
-4.66
0.81
4.92
7.85
9.91
11.4
12.64
13.84
15.06
16.28
17.39
18.33
19.09
19.77
20.43
21.02
21.43
21.56
21.38
20.95
20.38
19.71
18.88
17.77
16.3
14.5
12.46
10.3
8.08
5.77
3.35
0.87
-1.53
-3.63
-5.29
-6.5
-7.51
-8.72
-10.67
-13.75
-18.02
-23.11
-28.23
-32.35
-34.58
-34.39
-31.75
-27.07
-20.98
-14.18
-7.27
-0.79
4.79
9.1
11.96
13.46
13.97
14.06
14.26
14.91
16.08
17.59
19.19
20.67
21.93
22.98
23.83
24.4
24.6
24.3
23.46
22.19
20.65
19.01
17.3
15.42
13.2
10.5
7.31
3.85
0.48
-2.47
-4.8
-6.53
-7.95
-9.43
-11.31
-13.83
-17.04
-20.87
-25.08
-29.32
-33.05
-35.62
-36.39
-34.97
-31.32
-25.89
-19.47
-12.98
-7.1
-2.17
1.82
5.12
7.94
10.38
12.43
14.01
15.12
15.86
16.38
16.85
17.4
18.06
18.78
19.49
20.1
20.53
20.73
20.63
20.19
19.35
18.01
16.15
13.84
11.25
8.64
6.23
4.09
2.11
0.09
-2.17
-4.69
-7.37
-10.09
-12.76
-15.37
-18.06
-20.94
-24.09
-27.53
-31.15
-34.73
-37.86
-40.02
-40.65
-39.3
-35.81
-30.4
-23.61
-16.18
-8.82
-2.09
3.72
8.46
12.08
14.62
16.08
16.55
16.25
15.58
15.0
14.88
15.4
16.49
17.92
19.38
20.69
21.79
22.64
23.15
23.17
22.51
21.09
19.06
16.72
14.49
12.71
11.46
10.65
10.01
9.21
7.99
6.18
3.78
0.94
-2.1
-5.05
-7.7
-9.99
-12.08
-14.28
-16.99
-20.48
-24.82
-29.69
-34.39
-37.98
-39.56
-38.53
-34.84
-29.02
-21.97
-14.66
-7.84
-1.91
2.99
6.85
9.69
11.54
12.52
12.93
13.13
13.52
14.34
15.65
17.3
19.08
20.74
22.12
23.14
23.74
23.9
23.6
22.87
21.74
20.27
18.53
16.59
14.53
12.42
10.3
8.23
6.18
4.13
2.1
0.16
-1.56
-2.89
-3.82
-4.54
-5.46
-7.12
-9.95
-14.06
-19.13
-24.46
-29.1
-32.11
-32.8
-30.93
-26.77
-21.02
-14.58
-8.36
-3.0
1.21
4.3
6.49
7.99
8.98
9.59
9.98
10.36
10.93
11.81
12.99
14.33
15.64
16.74
17.53
17.98
18.12
17.96
17.53
16.86
15.95
14.78
13.3
11.54
9.54
7.4
5.25
3.17
1.13
-0.93
-3.08
-5.36
-7.73
-10.14
-12.53
-14.89
-17.29
-19.88
-22.84
-26.32
-30.29
-34.4
-38.04
-40.41
-40.76
-38.72
-34.42
-28.44
-21.69
-15.04
-9.14
-4.3
-0.53
2.36
4.64
6.54
8.16
9.57
10.72
11.64
12.38
13.1
13.93
14.96
16.18
17.45
18.63
19.55
20.12
20.29
20.02
19.31
18.21
16.77
15.11
13.34
11.57
9.85
8.14
6.42
4.6
2.64
0.53
-1.71
-4.0
-6.26
-8.43
-10.55
-12.74
-15.19
-18.13
-21.67
-25.77
-30.13
-34.28
-37.61
-39.48
-39.42
-37.19
-32.88
-26.94
-20.04
-12.99
-6.5
-1.05
3.14
6.13
8.12
9.36
10.1
10.57
11.05
11.8
13.01
14.67
16.56
18.35
19.71
20.48
20.68
20.54
20.23
19.83
19.33
18.6
17.59
16.31
14.85
13.36
11.92
10.57
9.21
7.7
5.91
3.8
1.5
-0.78
-2.79
-4.39
-5.62
-6.72
-8.06
-10.03
-12.93
-16.84
-21.57
-26.59
