0
97.79
97.31
95.15
91.62
87.15
82.0
76.14
69.37
61.42
52.29
42.32
32.22
22.76
14.48
7.45
1.2
-5.11
-12.32
-21.0
-31.17
-42.33
-53.62
-64.2
-73.59
-81.87
-89.75
-98.34
-108.91
-122.5
-139.53
-159.41
-180.28
-199.08
-211.99
-215.29
-206.49
-185.22
-153.48
-115.15
-74.77
-36.29
-2.22
26.55
50.23
69.37
84.29
95.04
101.62
104.46
104.5
103.1
101.61
100.94
101.34
102.42
103.48
103.86
103.18
101.46
98.98
96.01
92.64
88.68
83.75
77.51
69.82
60.95
51.46
42.08
33.48
26.0
19.57
13.75
7.81
0.99
-7.22
-16.98
-27.96
-39.48
-50.78
-61.37
-71.14
-80.49
-90.14
-101.0
-113.92
-129.48
-147.64
-167.38
-186.42
-201.38
-208.43
-204.51
-188.34
-161.08
-126.03
-87.55
-49.7
-15.23
14.68
39.98
60.96
77.71
90.01
97.7
101.05
101.07
99.28
97.35
96.51
97.19
99.07
101.29
102.96
103.54
102.93
101.41
99.25
96.44
92.6
87.2
79.86
70.7
60.42
50.07
40.68
32.78
26.24
20.28
13.83
5.96
-3.65
-14.67
-26.2
-37.2
-46.96
-55.46
-63.36
-71.87
-82.27
-95.6
-112.28
-131.81
-152.6
-171.97
-186.44
-192.45
-187.33
-170.26
-142.67
-107.87
-70.03
-32.98
0.7
29.84
54.19
73.79
88.53
98.19
102.84
103.25
100.87
97.55
94.85
93.65
93.9
94.97
95.95
96.18
95.41
93.74
91.4
88.41
84.49
79.08
71.68
62.2
51.15
39.56
28.62
19.12
11.19
4.12
-3.2
-11.76
-22.06
-33.79
-46.12
-58.04
-68.79
-78.27
-87.13
-96.61
-108.22
-123.19
-141.9
-163.37
-185.12
-203.41
-214.13
-213.89
-201.02
-176.2
-142.22
-103.19
-63.27
-25.72
7.67
36.35
60.36
79.82
94.54
104.33
109.42
110.74
109.89
108.62
108.26
109.22
111.12
113.06
114.18
114.06
112.72
110.53
107.83
104.73
100.92
95.86
89.02
80.15
69.56
58.09
46.81
36.6
27.77
19.85
11.9
2.9
-7.78
-20.07
-33.31
-46.53
-58.88
-69.97
-80.05
-89.86
-100.49
-113.11
-128.56
-147.09
-167.96
-189.16
-207.52
-219.21
-220.66
-209.77
-186.65
-153.68
-114.82
-74.39
-35.81
-1.08
29.14
54.82
75.92
92.11
103.03
108.77
110.29
109.32
107.84
107.41
108.67
111.23
114.03
115.98
116.37
115.15
112.78
109.83
106.67
103.26
99.1
93.62
86.46
77.79
68.35
59.18
51.11
44.42
38.62
32.7
25.64
16.86
6.57
-4.38
-14.94
-24.37
-32.55
-40.05
-47.96
-57.47
-69.64
-85.07
-103.7
-124.52
-145.44
-163.36
-174.67
-176.16
-166.0
-144.47
-113.95
-78.33
-41.75
-7.56
22.3
47.2
67.25
82.66
93.46
99.61
101.48
100.08
97.04
94.11
92.59
92.89
94.5
96.43
97.78
98.09
97.49
96.34
94.8
92.58
88.92
83.04
74.51
63.66
51.55
39.56
28.83
19.74
11.74
3.68
-5.61
-16.71
-29.27
-42.28
-54.52
-65.24
-74.53
-83.23
-92.66
-104.17
-118.76
-136.71
-157.26
-178.36
-196.79
-208.56
-210.01
-199.0
-175.79
-142.99
-104.81
-65.6
-28.68
4.18
32.57
56.56
76.13
90.97
100.73
105.6
106.55
105.28
103.63
102.95
103.69
105.4
107.08
107.82
107.21
105.51
103.29
101.07
98.86
96.13
91.95
85.55
76.65
65.74
53.91
42.46
32.37
23.94
16.65
9.44
1.2
-8.73
-20.23
-32.52
-44.55
-55.55
-65.38
-74.68
-84.57
-96.27
-110.73
-128.29
-148.38
-169.37
-188.45
-202.07
-206.63
-199.66
-180.63
-151.4
-115.58
-77.46
-40.68
-7.48
21.3
45.64
65.66
81.2
91.97
98.02
100.05
99.48
98.02
97.1
97.47
99.01
100.93
102.37
102.73
102.0
100.55
98.86
97.09
94.87
91.41
85.88
77.9
67.75
56.42
45.19
35.12
26.69
19.61
13.06
6.02
-2.23
-11.84
-22.37
-33.01
-43.03
-52.08
-60.4
-68.74
-78.15
-89.65
-103.96
-121.07
-139.94
-158.33
-172.96
-180.15
-176.87
-161.81
-135.96
-102.39
-65.28
-28.6
4.85
33.85
58.27
78.43
94.48
106.33
113.79
116.96
116.39
112.97
107.66
101.21
94.12
86.69
79.18
71.98
65.57
60.34
56.46
53.68
51.35
48.58
44.58
38.96
31.95
24.27
16.84
10.26
4.5
-1.04
-7.26
-14.87
-23.99
-34.12
-44.4
-54.07
-62.83
-71.01
-79.47
-89.4
-101.95
-117.84
-136.91
-157.71
-177.36
-191.94
-197.53
-191.35
-172.83
-143.82
-108.04
-69.78
-32.69
0.97
30.29
55.18
75.59
91.22
101.73
107.07
108.03
106.15
103.29
101.07
100.26
100.72
101.7
102.32
102.07
100.96
99.27
97.28
94.92
91.66
86.78
79.68
70.18
58.76
46.42
34.38
23.59
14.37
6.3
-1.62
-10.39
-20.57
-32.02
-44.0
-55.59
-66.21
-75.9
-85.32
-95.55
-107.74
-122.8
-141.01
-161.67
-182.8
-201.14
-212.74
-213.94
-202.59
-178.88
-145.43
-106.39
-66.25
-28.5
4.96
33.67
57.9
77.97
93.84
105.17
111.86
114.42
114.04
112.44
111.17
111.2
112.58
114.66
116.38
116.93
115.95
113.63
110.44
106.83
102.84
98.16
92.23
84.56
75.04
64.1
52.6
41.58
31.85
23.65
16.45
9.3
1.11
-8.77
-20.32
-32.83
-45.28
-56.75
-66.9
-76.04
-84.98
-94.79
-106.49
-120.85
-138.14
-157.79
-178.07
-195.99
-207.81
-209.9
-200.0
-177.99
-146.15
-108.37
-68.94
-31.41
2.07
30.69
54.41
73.39
87.63
97.08
102.01
103.24
102.14
100.36
99.28
99.59
101.21
103.42
105.36
106.42
106.51
105.87
104.76
103.14
100.52
96.19
89.55
80.48
69.56
57.91
46.81
37.29
29.68
23.53
17.76
11.16
2.85
-7.33
-18.77
-30.43
-41.34
-51.05
-59.85
-68.65
-78.61
-90.8
-105.86
-123.73
-143.37
-162.55
-177.99
-186.03
-183.54
-169.1
-143.55
-109.92
-72.41
-35.15
-1.13
28.13
52.26
71.34
85.37
94.28
98.2
97.87
94.79
90.91
88.11
87.54
89.32
92.57
95.89
97.99
98.24
96.73
94.13
91.1
87.86
84.09
79.07
72.13
63.15
52.64
41.63
31.21
22.07
14.23
7.05
-0.52
-9.49
-20.38
-33.01
-46.47
-59.61
-71.45
-81.69
-90.83
-99.99
-110.55
-123.72
-140.21
-159.88
-181.42
-202.23
-218.6
-226.45
-222.43
-205.17
-175.84
-137.89
-95.99
-54.6
-16.84
15.9
43.45
66.15
84.19
97.45
105.78
109.49
109.67
108.03
106.4
106.07
107.35
109.6
111.66
112.52
111.79
109.71
106.9
103.82
100.46
96.31
90.7
83.15
73.72
62.99
51.85
41.23
31.71
23.37
15.74
8.07
-0.47
-10.37
-21.57
-33.48
-45.3
-56.36
-66.38
-75.71
-85.04
-95.4
-107.82
-123.1
-141.53
-162.4
-183.67
-202.01
-213.37
-214.07
-202.03
-177.6
-143.49
-103.97
-63.5
-25.58
7.83
36.1
59.36
77.82
91.52
100.49
105.03
106.09
105.17
103.99
103.93
105.61
108.68
112.12
114.75
115.8
115.18
113.4
111.09
108.54
105.44
101.09
94.76
86.18
75.78
64.56
53.75
44.28
36.45
29.88
23.62
16.61
8.07
-2.14
-13.51
-25.12
-36.01
-45.64
-54.1
-62.13
-70.79
-81.28
-94.5
-110.87
-129.92
-150.04
-168.39
-181.33
-185.26
-177.73
-158.31
-128.88
-93.04
-55.05
-18.6
13.87
41.29
63.48
80.53
92.44
99.21
101.21
99.46
95.66
91.83
89.59
89.71
91.82
94.74
97.14
98.12
97.56
95.97
93.95
91.7
88.83
84.46
77.8
68.6
57.4
45.39
33.94
24.05
15.95
9.11
2.47
-5.07
-14.15
-24.78
-36.33
-47.9
-58.68
-68.4
-77.37
-86.44
-96.71
-109.33
-125.15
-144.3
-165.82
-187.27
-204.96
-214.64
-212.72
-197.6
-170.22
-133.92
-93.28
-52.72
-15.43
17.04
44.38
66.84
84.61
97.68
105.98
109.86
110.3
108.74
106.82
105.78
106.15
107.59
109.18
109.92
109.22
107.14
104.23
101.12
97.99
94.44
89.61
82.68
73.45
62.49
50.98
40.2
30.9
23.01
15.67
7.72
-1.79
-13.1
-25.74
-38.7
-50.97
-61.91
-71.53
-80.44
-89.63
-100.27
-113.39
-129.7
-149.14
-170.58
-191.53
-208.31
-216.9
-213.98
-198.2
-170.73
-134.96
-95.42
-56.43
-20.93
9.73
35.43
56.49
73.02
84.85
91.84
94.35
93.58
91.31
89.39
89.04
90.47
92.91
95.11
96.0
95.19
93.07
90.53
88.38
86.92
85.75
83.96
80.66
75.42
68.54
60.95
53.77
47.83
43.28
39.52
35.42
29.84
21.99
11.87
0.16
-12.03
-23.62
-34.02
-43.35
-52.43
-62.42
-74.52
-89.49
-107.43
-127.42
-147.49
-164.68
-175.57
-177.06
-167.35
-146.61
-117.03
-82.2
-46.06
-11.85
18.37
43.73
64.0
79.14
89.11
94.13
94.88
92.68
89.3
86.48
85.36
86.21
88.48
91.14
93.24
94.18
93.89
92.63
90.69
88.07
84.45
79.28
72.17
63.18
52.96
42.59
33.17
25.33
18.91
13.01
6.43
-1.81
-12.02
-23.74
-35.95
-47.55
-57.88
-66.9
-75.3
-84.18
-94.8
-108.24
-125.04
-144.82
-165.97
-185.59
-199.85
-204.93
-198.14
-178.96
-149.34
-113.14
-74.87
-38.37
-5.88
21.94
45.47
65.19
81.13
92.92
100.25
103.4
103.42
101.96
100.63
100.42
101.46
103.15
104.59
105.08
104.39
102.75
100.59
98.13
95.2
91.2
85.44
77.51
67.6
56.51
45.43
35.46
27.15
20.29
13.99
7.1
-1.31
-11.56
-23.31
-35.66
-47.63
-58.51
-68.16
-77.0
-85.95
-96.13
-108.59
-123.96
-142.12
-161.9
-180.83
-195.5
-202.26
-198.32
-182.72
-156.77
-123.69
-87.54
-52.0
-19.48
9.02
33.45
53.97
70.52
82.81
90.65
94.43
95.15
94.28
93.28
93.11
94.01
95.6
97.22
98.3
98.62
98.31
97.6
96.54
94.79
91.74
86.76
79.58
70.54
60.58
50.89
42.44
35.59
29.97
24.65
18.59
11.11
2.1
-7.91
-18.13
-27.82
-36.75
-45.21
-53.95
-63.95
-76.02
-90.66
-107.69
-126.1
-143.83
-157.99
-165.31
-163.04
-149.93
-126.77
-96.29
-62.35
-28.72
1.84
28.01
49.58
66.73
79.59
88.09
92.25
92.67
90.56
87.58
85.29
84.64
85.7
87.78
89.97
91.4
91.71
90.91
89.19
86.63
83.01
77.86
70.82
61.88
51.64
41.08
31.22
22.59
15.02
7.69
-0.4
-9.87
-20.7
-32.16
-43.27
-53.23
-61.85
-69.63
-77.68
-87.33
-99.79
-115.65
-134.53
-154.78
-173.54
-187.14
-192.03
-185.75
-167.86
-140.15
-106.14
-70.05
-35.47
-4.65
21.65
43.58
61.47
75.29
84.79
89.91
91.26
90.24
88.62
87.83
88.46
90.14
91.92
92.93
92.73
91.5
89.72
87.8
85.73
83.03
78.88
72.54
63.69
52.73
40.64
28.71
17.98
8.86
0.94
-6.79
-15.35
-25.28
-36.38
-47.79
-58.54
-68.02
-76.33
-84.23
-92.87
-103.4
-116.68
-132.98
-151.73
-171.25
-188.74
-200.66
-203.59
-195.25
-175.46
-146.31
-111.52
-75.26
-40.82
-9.98
16.87
40.05
59.76
75.68
87.22
94.06
96.68
96.4
94.98
93.94
94.05
95.18
96.58
97.46
97.35
96.29
94.68
92.94
91.19
89.12
86.11
81.41
74.59
65.8
55.8
45.76
36.81
29.51
23.6
18.04
11.56
3.18
-7.27
-19.17
-31.37
-42.78
-52.86
-61.8
-70.43
-79.94
-91.47
-105.76
-122.83
-141.82
-160.8
-176.89
-186.78
-187.42
-177.01
-155.62
-125.34
-89.73
-52.74
-17.77
13.1
39.12
60.34
77.06
89.46
97.56
101.6
102.3
100.88
98.83
97.35
97.07
97.85
99.12
100.16
100.5
99.98
98.64
96.53
93.5
89.19
83.26
75.58
66.39
56.34
46.2
36.53
27.4
18.39
8.82
-1.84
-13.58
-25.88
-37.87
-48.81
-58.49
-67.44
-76.76
-87.84
-101.91
-119.47
-139.96
-161.34
-180.33
-192.89
-195.35
-185.53
-163.6
-132.16
-95.39
-57.71
-22.5
8.53
35.11
57.6
76.24
90.78
100.76
106.17
107.83
107.34
106.57
106.88
108.69
111.42
113.96
115.3
115.0
113.27
110.71
107.82
104.62
100.57
94.86
86.8
76.32
64.13
51.45
39.57
29.29
20.66
13.02
5.31
-3.41
-13.63
-25.25
-37.66
-50.06
-61.74
-72.45
-82.52
-92.81
-104.61
-119.14
-137.22
-158.6
-181.67
-203.39
-219.7
-226.59
-221.15
-202.59
-172.62
-134.86
-93.82
-53.51
-16.55
16.06
44.34
68.59
88.68
104.11
114.34
119.48
120.55
119.35
117.8
117.27
118.18
119.99
121.72
122.45
121.79
119.93
117.38
114.63
111.81
108.59
104.28
98.23
90.13
80.27
69.47
58.78
49.02
40.46
32.73
25.0
16.37
6.28
-5.35
-18.06
-31.1
-43.67
-55.28
-65.86
-75.87
-86.17
-97.82
-111.81
-128.75
-148.49
-169.83
-190.37
-206.72
-215.21
-212.76
-197.97
-171.61
-136.52
-96.75
-56.35
-18.42
15.38
44.5
68.92
88.56
103.19
112.65
117.33
118.27
117.1
115.51
114.72
115.23
116.78
118.72
120.34
121.22
121.24
120.54
119.21
117.12
113.83
108.76
101.46
91.96
80.9
69.32
58.31
48.44
39.57
30.85
21.23
9.95
-3.05
-17.09
-31.04
-43.85
-55.01
-64.68
-73.76
-83.56
-95.43
-110.39
-128.7
-149.49
-170.59
-188.77
-200.24
-201.65
-191.15
-168.97
-137.54
-100.68
-62.52
-26.33
6.0
33.86
57.23
76.1
90.16
99.11
103.17
103.38
101.52
99.55
98.86
99.83
101.86
103.83
104.75
104.2
102.38
99.77
96.76
93.29
88.89
82.9
74.85
64.81
53.46
41.9
31.21
22.01
14.17
6.9
-0.9
-10.08
-20.88
-32.88
-45.17
-56.91
-67.67
-77.61
-87.39
-97.99
-110.44
-125.61
-143.85
-164.65
-186.28
-205.73
-219.21
-223.08
-214.98
-194.64
-164.06
-126.84
-87.08
-48.26
-12.53
19.2
46.84
70.37
89.51
103.69
112.56
116.43
116.47
114.52
112.48
111.61
112.21
113.62
114.76
114.76
113.34
110.86
107.92
104.91
101.69
97.65
92.0
84.25
74.47
63.44
52.24
41.93
33.02
25.32
18.01
10.02
0.53
-10.69
-23.17
-36.01
-48.27
-59.33
-69.21
-78.48
-88.1
-99.22
-112.83
-129.56
-149.26
-170.67
-191.19
-207.17
-214.61
-210.42
-193.43
-164.98
-128.53
-88.62
-49.41
-13.76
17.14
43.28
64.99
82.33
95.05
102.91
106.29
106.35
104.84
103.49
103.4
104.67
106.6
108.23
108.82
108.22
106.79
105.06
103.29
101.27
98.29
93.47
86.15
76.18
64.13
51.13
38.44
27.05
17.3
8.8
0.68
-8.03
-17.89
-28.82
-40.16
-51.03
-60.71
-69.04
-76.49
-84.03
-92.93
-104.29
-118.76
-136.18
-155.24
-173.44
-187.36
-193.34
-188.51
-171.76
-144.23
-109.05
-70.45
-32.56
1.65
30.61
53.98
71.95
84.75
92.56
95.71
95.09
92.19
88.9
86.83
86.84
88.77
91.63
94.21
95.66
95.78
94.97
93.69
92.09
89.76
85.85
79.55
70.62
59.64
47.87
36.79
27.43
19.95
13.53
6.72
-1.88
-13.1
-26.89
-42.33
-58.16
-73.28
-87.17
-100.08
-112.89
-126.8
-142.87
-161.42
-181.63
-201.2
-216.56
-223.64
-219.01
-201.19
-171.23
-132.62
-90.08
-48.21
-10.14
22.75
50.51
73.7
92.59
107.04
116.67
121.53
122.3
120.33
117.1
113.74
110.67
107.67
104.25
100.1
95.32
90.37
85.75
81.67
77.86
73.61
68.13
60.93
52.04
42.11
32.17
23.28
16.0
10.22
5.07
-0.75
-8.43
-18.52
-30.66
-43.79
-56.55
-68.0
-77.98
-87.18
-96.87
-108.4
-122.75
-140.19
-159.97
-180.1
-197.42
-208.09
-208.57
-196.69
-172.59
-138.86
-99.67
-59.58
-22.15
10.73
38.69
62.12
81.37
96.35
106.7
112.34
113.91
112.83
110.94
109.78
110.11
111.67
113.46
114.38
113.8
111.8
109.01
106.15
103.55
100.84
97.17
91.56
83.48
73.14
61.46
49.71
39.08
30.1
22.58
15.7
8.34
-0.32
-10.56
-21.88
-33.27
-43.62
-52.21
-59.08
-65.11
-71.83
-81.03
-94.26
-112.34
-134.79
-159.62
-183.31
-201.44
-209.65
-204.98
-186.8
-157.06
-119.69
-79.36
-40.17
-4.85
25.4
50.35
70.18
84.98
94.8
99.94
101.21
99.98
97.88
96.25
95.79
96.39
97.41
98.08
98.0
97.19
95.96
94.52
92.64
89.66
84.74
77.34
67.65
56.55
45.34
35.12
26.41
18.88
11.61
3.57
-5.9
-16.84
-28.63
-40.37
-51.28
-61.04
-69.96
-78.95
-89.21
-101.95
-117.84
-136.66
-156.81
-175.37
-188.4
-192.06
-183.74
-163.01
-131.93
-94.47
-55.14
-17.73
15.5
43.84
67.46
86.61
101.13
110.72
115.33
115.7
113.44
110.52
108.69
108.84
110.83
113.69
116.2
117.37
116.91
115.15
112.82
110.56
108.51
106.17
102.67
97.25
89.77
80.94
72.1
64.59
59.19
55.68
52.91
49.21
42.9
32.67
17.89
-1.46
-24.82
-51.26
-79.65
-108.98
-138.55
-168.15
-198.02
-228.35
-258.73
-287.53
-311.62
-326.88
-329.28
-316.22
-287.73
-246.63
-197.81
-146.77
-98.04
-54.3
-16.39
15.89
42.95
64.81
81.19
92.0
97.87
100.22
100.96
101.82
103.83
107.03
110.71
113.83
115.56
115.65
114.36
112.26
109.82
107.15
103.84
99.18
92.49
83.54
72.71
61.04
49.81
40.05
32.13
25.57
19.33
12.18
3.3
-7.42
-19.38
-31.58
-43.02
-53.13
-61.94
-70.12
-78.72
-88.94
-101.84
-118.01
-137.25
-158.25
-178.41
-194.07
-201.32
-197.07
-180.16
-151.92
-115.82
-76.45
-38.04
-3.42
26.32
51.29
71.96
88.43
100.42
107.62
110.4
109.93
108.0
106.33
105.93
106.86
108.36
109.47
109.55
108.61
107.04
105.35
103.68
101.65
98.47
93.3
85.79
76.24
65.66
55.29
46.15
38.53
31.88
25.07
17.01
7.17
-4.21
-16.22
-27.78
-38.11
-47.14
-55.48
-64.21
-74.57
-87.61
-103.93
-123.19
-143.88
-163.19
-177.39
-182.7
-176.54
-158.35
-129.98
-95.06
-57.8
-21.84
10.53
38.34
61.44
79.77
93.14
101.31
104.42
103.42
99.95
96.01
93.29
92.59
93.72
95.73
97.49
98.17
97.5
95.68
93.08
89.89
85.88
80.52
73.25
63.81
52.55
40.42
28.65
18.27
9.59
2.1
-5.37
-14.08
-24.76
-37.28
-50.69
-63.75
-75.43
-85.34
-93.84
-101.93
-110.94
-122.32
-137.18
-155.79
-177.11
-198.46
-215.91
-225.05
-222.39
-206.46
-178.45
-141.76
-100.94
-60.31
-22.89
9.89
37.92
61.57
81.09
96.33
106.97
113.04
115.27
115.09
114.17
113.8
114.47
115.76
116.79
116.77
115.4
113.03
110.28
107.69
105.27
102.46
98.32
92.0
83.18
72.25
60.29
48.61
38.24
29.46
21.68
13.74
4.45
-6.84
-19.94
-33.93
-47.6
-60.01
-70.89
-80.7
-90.49
-101.6
-115.24
-132.17
-152.41
-174.78
-196.87
-215.09
-225.46
-224.6
-210.87
-185.0
-149.97
-110.02
-69.42
-31.3
2.71
32.21
57.32
78.07
94.17
105.33
111.7
114.15
114.19
113.51
113.38
114.32
116.03
117.77
118.8
118.74
117.7
116.05
114.09
111.75
108.54
103.73
96.78
87.64
76.97
65.92
55.62
46.79
39.37
32.52
25.07
15.97
4.84
-7.91
-21.19
-33.8
-44.89
-54.37
-62.96
-71.91
-82.63
-96.17
-112.92
-132.27
-152.52
-170.89
-183.95
-188.34
-181.69
-163.47
-135.25
-100.3
-62.64
-25.88
7.57
36.58
60.91
80.55
95.31
105.01
109.76
110.42
108.57
106.12
104.68
105.02
106.92
109.45
111.5
112.37
111.99
110.76
109.16
107.29
104.72
100.65
94.35
85.63
75.06
63.8
53.13
43.94
36.29
29.56
22.7
14.74
5.25
-5.59
-17.03
-28.2
-38.4
-47.5
-55.99
-64.85
-75.35
-88.53
-104.88
-123.9
-143.82
-161.8
-174.42
-178.58
-172.53
-156.5
-132.7
-104.58
-75.66
-48.43
-23.97
-2.26
17.11
34.16
48.32
58.76
65.06
67.62
67.77
67.24
67.6
69.66
73.3
77.67
81.64
84.36
85.47
85.22
84.08
82.46
80.39
77.55
73.4
67.59
60.16
51.64
42.85
34.6
27.32
20.91
14.76
8.02
-0.09
-9.94
-21.33
-33.52
-45.55
-56.66
-66.54
-75.5
-84.38
-94.25
-106.19
-121.01
-139.03
-159.72
-181.32
-200.82
-214.35
-218.13
-209.67
-188.74
-157.56
-120.08
-80.73
-43.08
-9.12
20.63
46.48
68.71
87.18
101.34
110.73
115.5
116.58
115.55
114.07
113.37
113.94
115.47
117.2
118.39
118.57
117.66
115.84
113.33
110.16
106.13
100.94
94.31
86.18
76.77
66.58
56.23
46.36
37.39
29.39
22.03
14.68
6.6
-2.72
-13.34
-24.9
-36.77
-48.37
-59.35
-69.78
-79.98
-90.51
-102.07
-115.47
-131.38
-150.01
-170.49
-190.57
-206.73
-214.97
-212.04
-196.56
-169.55
-134.14
-94.58
-54.95
-18.22
14.12
41.77
65.02
84.14
99.13
109.89
116.51
119.6
120.36
120.22
120.41
121.57
123.63
125.99
127.91
128.82
128.52
127.09
124.71
121.49
117.37
112.21
105.9
98.52
90.32
81.7
72.96
64.19
55.16
45.46
34.61
22.35
8.77
-5.74
-20.61
-35.23
-49.08
-61.83
-73.25
-83.31
-92.19
-100.4
-108.69
-118.1
-129.64
-143.94
-160.88
-179.07
-195.82
-207.51
-210.4
-201.84
-181.19
-150.2
-112.52
-72.56
-34.2
0.1
29.39
53.79
73.64
89.04
99.82
105.9
107.73
106.49
103.87
101.55
100.68
101.59
103.79
106.35
108.33
109.09
108.45
106.55
103.64
99.94
95.47
90.13
83.71
76.12
67.35
57.62
47.28
36.76
26.47
16.77
7.75
-0.68
-8.84
-17.23
-26.36
-36.55
-47.84
-59.93
-72.27
-84.3
-95.7
-106.45
-117.02
-128.21
-141.06
-156.45
-174.69
-194.94
-214.88
-230.91
-238.85
-235.18
-218.27
-189.01
-150.65
-107.77
-64.87
-25.29
9.33
38.8
63.59
84.14
100.49
112.41
119.84
123.31
124.04
123.6
123.4
124.17
125.82
127.75
129.21
129.79
129.49
128.44
126.66
123.88
119.65
113.63
105.93
97.01
87.61
78.36
69.57
61.12
52.68
43.88
34.57
24.92
15.33
6.2
-2.27
-10.3
-18.49
-27.56
-38.03
-49.98
-62.91
-76.07
-88.69
-100.43
-111.45
-122.46
-134.48
-148.6
-165.55
-185.13
-205.75
-224.31
-236.7
-238.87
-228.15
-204.28
-169.62
-128.38
-85.27
-44.19
-7.43
24.32
51.32
73.93
92.25
106.0
115.06
119.83
121.38
121.22
120.76
120.89
121.75
122.98
124.04
124.61
124.66
124.29
123.53
122.08
119.46
115.2
109.13
101.52
93.0
84.27
75.81
67.75
59.79
51.46
42.46
32.86
23.11
13.82
5.44
-2.05
-9.22
-16.93
-25.99
-36.71
-48.77
-61.37
-73.61
-84.88
-95.11
-104.8
-114.87
-126.48
-140.65
-157.89
-177.65
-198.07
-215.83
-226.79
-227.09
-214.39
-188.73
-152.73
-110.68
-67.4
-26.81
8.76
38.57
62.92
82.4
97.35
107.83
113.96
116.29
115.98
114.59
113.58
113.77
115.14
117.01
118.47
118.84
117.89
115.76
112.71
108.91
104.38
99.09
93.0
86.15
78.6
70.4
61.58
52.29
42.75
33.37
24.45
16.13
8.29
0.54
-7.63
-16.65
-26.72
-37.77
-49.43
-61.2
-72.67
-83.7
-94.55
-105.87
-118.51
-133.36
-150.92
-170.96
-192.08
-211.66
-226.0
-231.22
-224.29
-204.21
-172.45
-132.66
-89.48
-47.22
-8.81
24.45
52.39
75.27
93.26
106.24
114.21
117.64
117.62
115.69
113.52
112.32
112.63
114.27
116.55
118.63
119.84
119.84
118.55
116.07
112.45
107.64
101.56
94.17
85.63
76.2
66.26
56.1
45.9
35.69
25.44
15.15
4.9
-5.17
-15.01
-24.68
-34.47
-44.79
-55.96
-68.06
-80.75
-93.5
-105.74
-117.33
-128.72
-141.0
-155.5
-173.26
-194.2
-216.67
-237.44
-252.2
-256.74
-248.13
-225.78
-191.59
-149.49
-104.19
-59.97
-19.69
15.44
45.44
70.85
92.03
108.92
121.31
129.22
133.29
134.7
134.9
135.1
135.92
137.32
138.91
140.2
140.9
140.84
139.93
137.92
134.46
129.3
122.39
114.01
104.71
95.16
85.84
76.97
68.4
59.79
50.77
41.21
31.29
21.39
11.88
2.83
-6.09
-15.53
-26.12
-38.16
-51.47
-65.47
-79.42
-92.84
-105.69
-118.44
-131.96
-147.31
-165.35
-186.27
-209.03
-231.12
-248.69
-257.36
-253.57
-235.74
-204.97
-164.75
-119.82
-74.72
-32.72
4.62
36.99
64.65
87.69
105.89
118.91
126.78
130.23
130.59
129.51
128.45
128.25
129.06
130.44
131.71
132.27
131.8
130.2
127.62
124.18
119.94
114.8
108.61
101.26
92.79
83.44
73.6
63.67
54.0
44.8
36.11
27.85
19.81
11.71
3.16
-6.15
-16.39
-27.41
-38.88
-50.33
-61.38
-71.92
-82.17
-92.69
-104.29
-117.84
-134.08
-153.03
-173.63
-193.34
-208.42
-214.75
-209.14
-190.44
-160.1
-121.74
-79.98
-39.04
-1.81
30.4
57.42
79.45
96.55
108.56
115.45
117.75
116.77
114.39
112.52
112.47
114.52
117.97
121.61
124.27
125.31
124.75
123.01
120.5
117.28
112.98
107.06
99.08
89.06
77.52
65.39
53.68
43.15
34.07
26.11
18.43
10.09
0.32
-11.1
-23.78
-36.88
-49.51
-61.09
-71.61
-81.69
-92.37
-104.87
-120.17
-138.68
-159.86
-181.94
-201.91
-215.94
-220.24
-212.18
-191.15
-158.96
-119.33
-76.88
-35.82
0.98
32.23
57.97
78.62
94.54
105.72
112.13
114.16
112.95
110.32
108.14
107.69
109.27
112.14
115.07
116.83
116.78
114.85
111.44
107.05
102.03
96.42
90.09
82.79
74.39
64.96
54.75
44.21
33.82
23.97
14.88
6.5
-1.48
-9.58
-18.39
-28.38
-39.65
-51.93
-64.61
-77.04
-88.81
-99.96
-111.02
-122.92
-136.74
-153.39
-173.16
-195.31
-217.63
-236.52
-247.65
-247.1
-232.78
-205.17
-167.38
-124.05
-79.96
-38.7
-2.12
29.42
56.33
78.99
97.45
111.45
120.83
125.96
127.82
127.88
127.6
127.99
129.33
131.28
133.14
134.31
134.5
133.76
132.21
129.86
126.5
121.84
115.68
108.06
99.29
89.85
80.24
70.87
61.98
53.49
44.91
35.42
24.06
10.11
-6.54
-25.25
-44.76
-63.63
-80.76
-95.64
-108.5
-120.18
-131.87
-144.89
-160.37
-178.92
-200.14
-222.28
-242.19
-255.81
-259.21
-249.71
-226.91
-192.86
-151.51
-107.53
-64.94
-26.31
7.41
36.3
60.63
80.45
95.45
105.43
110.75
112.55
112.53
112.36
113.12
115.0
117.47
119.66
120.87
120.84
119.79
118.11
116.06
113.45
109.69
104.03
96.0
85.78
74.24
62.67
52.23
43.43
35.92
28.63
20.29
10.07
-2.1
-15.5
-28.97
-41.41
-52.25
-61.68
-70.6
-80.4
-92.49
-107.93
-126.93
-148.54
-170.45
-189.26
-201.01
-202.27
-191.13
-167.89
-135.08
-96.68
-56.96
-19.3
14.29
43.08
66.99
85.97
99.83
108.41
112.11
112.05
110.01
107.8
106.73
107.18
108.75
110.5
111.53
111.38
110.0
107.64
104.49
100.44
95.03
87.69
78.1
66.54
53.86
41.3
29.89
20.08
11.48
3.08
-6.26
-17.3
-30.09
-43.95
-57.85
-70.87
-82.6
-93.35
-104.07
-116.11
-130.78
-148.86
-170.1
-192.98
-214.49
-230.78
-237.87
-232.89
-214.93
-185.46
-147.89
-106.47
-65.09
-26.34
8.56
39.38
66.05
88.26
105.42
117.08
123.47
125.73
125.61
124.89
124.76
125.57
126.86
127.83
127.84
126.69
124.61
122.0
119.05
115.51
110.69
103.8
94.42
82.84
70.08
57.49
46.25
36.75
28.48
20.27
10.82
-0.66
-14.21
-29.08
-44.18
-58.47
-71.45
-83.36
-95.06
-107.87
-123.13
-141.75
-163.74
-187.85
-211.44
-230.81
-241.94
-241.46
-227.79
-201.59
-165.66
-124.14
-81.16
-39.91
-2.15
31.46
60.69
85.2
104.38
117.77
125.56
128.86
129.51
129.43
129.99
131.62
133.9
135.99
137.21
137.32
136.52
135.19
133.45
131.0
127.17
121.23
112.83
102.22
90.32
78.31
67.2
57.33
48.29
39.15
28.95
17.17
4.04
-9.6
-22.65
-34.33
-44.51
-53.83
-63.6
-75.34
-90.4
-109.44
-132.08
-156.6
-179.99
-198.35
-207.73
-205.27
-190.04
-163.46
-128.89
-90.54
-52.27
-16.72
14.93
42.44
65.8
84.77
98.84
107.67
111.56
111.65
109.66
107.39
106.12
106.34
107.8
109.79
111.51
112.34
111.92
110.06
106.67
101.65
94.95
86.62
76.95
66.44
55.69
45.2
35.1
25.18
14.97
4.1
-7.55
-19.72
-32.04
-44.12
-55.93
-67.75
-80.27
-94.34
-110.79
-129.94
-151.07
-172.08
-189.58
-199.6
-198.79
-185.62
-160.95
-127.73
-90.01
-51.64
-15.46
17.06
45.33
69.14
88.18
102.08
110.65
114.31
114.23
112.13
109.8
108.48
108.55
109.51
110.44
110.52
109.39
107.19
104.26
100.74
96.34
90.51
82.74
72.97
61.75
50.12
39.11
29.32
20.6
12.17
2.88
-8.11
-20.95
-35.0
-49.05
-61.97
-73.24
-83.22
-93.08
-104.38
-118.55
-136.29
-157.3
-179.89
-201.07
-216.83
-223.06
-216.66
-196.7
-164.92
-125.24
-82.56
-41.25
-4.05
28.05
55.23
77.98
96.39
110.14
118.93
123.04
123.58
122.28
120.92
120.65
121.72
123.48
124.91
125.15
123.88
121.41
118.37
115.26
112.14
108.55
103.76
97.14
88.51
78.25
67.21
56.35
46.43
37.7
29.92
22.46
14.73
6.4
-2.52
-11.92
-21.97
-33.41
-47.47
-65.41
-87.93
-114.9
-145.37
-177.9
-210.74
-241.83
-268.53
-287.63
-295.74
-290.33
-270.73
-238.69
-198.04
-153.47
-109.25
-68.23
-31.64
0.32
27.73
50.47
68.15
80.47
87.79
91.26
92.69
93.98
96.4
100.29
105.06
109.61
112.95
114.59
114.65
113.57
111.71
109.1
105.4
100.14
93.03
84.22
74.28
64.06
54.39
45.71
37.96
30.52
22.6
13.56
3.29
-7.74
-18.68
-28.74
-37.6
-45.61
-53.64
-62.89
-74.52
-89.32
-107.42
-127.96
-148.81
-166.74
-177.88
-178.84
-167.76
-145.03
-113.21
-76.27
-38.34
-2.67
28.8
55.29
76.58
92.58
103.16
108.39
108.91
106.09
101.78
97.9
95.75
95.65
97.0
98.69
99.64
99.29
97.66
95.13
92.0
88.23
83.35
76.79
68.18
57.73
46.21
34.68
24.14
15.01
6.98
-0.85
-9.57
-19.96
-32.09
-45.26
-58.43
-70.56
-81.2
-90.64
-99.84
-110.14
-122.91
-139.1
-158.77
-180.67
-202.05
-218.91
-226.89
-222.55
-204.6
-174.43
-135.71
-93.22
-51.35
-13.1
20.24
48.49
71.89
90.45
103.9
112.07
115.32
114.78
112.24
109.62
108.33
108.91
110.89
113.22
114.79
114.9
113.53
111.08
108.04
104.53
100.19
94.4
86.6
76.66
65.13
53.03
41.51
31.43
22.96
15.53
8.03
-0.7
-11.37
-23.97
-37.73
-51.53
-64.37
-75.81
-86.1
-96.06
-106.79
-119.47
-135.04
-153.93
-175.61
-198.18
-218.28
-231.57
-233.84
-222.44
-197.31
-161.19
-118.71
-74.96
-34.0
1.92
32.25
57.37
77.74
93.48
104.41
110.54
112.53
111.75
110.0
108.78
108.97
110.41
112.35
113.77
114.03
113.0
111.07
108.7
106.14
103.19
99.21
93.42
85.32
74.96
63.01
50.65
39.09
29.15
20.91
13.67
6.27
-2.38
-12.82
-24.8
-37.41
-49.54
-60.36
-69.76
-78.31
-87.09
-97.28
-109.94
-125.71
-144.55
-165.52
-186.45
-204.01
-214.19
-213.34
-199.41
-172.76
-136.26
-94.49
-52.29
-13.43
20.0
47.53
69.49
86.28
97.99
104.64
106.62
105.07
101.79
98.71
97.22
97.73
99.67
101.95
103.55
103.94
103.08
101.21
98.42
94.53
89.03
81.5
71.91
60.82
49.25
38.31
28.73
20.46
12.76
4.53
-5.1
-16.39
-28.8
-41.37
-53.19
-63.9
-73.92
-84.31
-96.53
-111.89
-131.1
-153.82
-178.28
-201.25
-218.52
-225.87
-220.29
-201.0
-169.79
-130.53
-87.99
-46.46
-8.91
23.34
50.08
71.61
88.16
99.76
106.55
109.11
108.61
106.71
105.0
104.55
105.52
107.37
109.23
110.31
110.29
109.15
107.01
103.75
98.97
92.14
82.96
71.66
59.06
46.32
34.46
23.96
14.54
5.32
-4.66
-16.04
-28.81
-42.33
-55.63
-67.98
-79.21
-89.87
-101.23
-114.84
-132.03
-153.22
-177.38
-201.72
-222.03
-233.61
-232.62
-217.36
-188.94
-150.94
-108.2
-65.39
-25.75
9.27
39.47
65.12
86.22
102.34
113.07
118.57
119.86
118.67
116.77
115.41
114.95
114.99
114.89
114.18
112.83
111.06
109.05
106.63
103.23
98.15
90.92
81.59
70.82
59.6
48.83
38.93
29.64
20.22
9.88
-1.82
-14.68
-27.98
-40.85
-52.68
-63.46
-73.9
-85.23
-98.89
-116.04
-136.95
-160.49
-183.9
-203.09
-213.54
-211.65
-195.92
-167.54
-130.07
-88.24
-46.51
