0
31.01
33.38
35.21
36.43
37.16
37.57
37.76
37.71
37.21
36.05
34.05
31.25
27.92
24.44
21.14
18.19
15.54
12.89
9.93
6.45
2.42
-1.92
-6.24
-10.26
-13.85
-17.15
-20.54
-24.43
-29.2
-35.08
-42.04
-49.79
-57.7
-64.74
-69.65
-71.16
-68.41
-61.35
-50.84
-38.5
-26.13
-15.18
-6.29
0.61
6.02
10.44
14.05
16.79
18.56
19.49
19.98
20.57
21.7
23.5
25.83
28.32
30.65
32.6
34.06
35.03
35.44
35.23
34.27
32.51
30.0
26.98
23.8
20.84
18.33
16.22
14.25
11.99
9.12
5.61
1.69
-2.22
-5.81
-8.97
-11.95
-15.15
-19.05
-24.02
-30.22
-37.41
-44.93
-51.63
-56.07
-56.94
-53.41
-45.6
-34.55
-21.93
-9.55
1.18
9.53
15.43
19.2
21.34
22.3
22.47
22.28
22.12
22.42
23.5
25.52
28.31
31.47
34.42
36.61
37.73
37.84
37.31
36.56
35.84
35.01
33.71
31.54
28.44
24.72
21.0
17.86
15.51
13.77
12.05
9.77
6.5
2.2
-2.85
-8.18
-13.26
-17.73
-21.54
-24.99
-28.61
-33.07
-38.88
-46.11
-54.31
-62.44
-69.05
-72.61
-71.94
-66.5
-56.73
-43.96
-30.04
-16.84
-5.75
2.69
8.69
12.98
16.32
19.19
21.72
23.84
25.52
26.93
28.44
30.4
32.91
35.7
38.3
40.28
41.46
42.05
42.37
42.69
42.92
42.71
41.61
39.31
35.85
31.57
26.98
22.63
18.85
15.78
13.27
11.01
8.61
5.7
2.13
-2.0
-6.38
-10.67
-14.65
-18.32
-21.93
-25.87
-30.54
-36.31
-43.29
-51.19
-59.23
-66.07
-70.15
-70.1
-65.28
-56.06
-43.79
-30.31
-17.41
-6.31
2.47
9.06
13.83
17.2
19.45
20.81
21.52
21.96
22.52
23.54
25.2
27.44
30.01
32.57
34.81
36.51
37.56
37.91
37.5
36.32
34.32
31.57
28.2
24.48
20.67
17.06
13.78
10.82
8.03
5.17
2.03
-1.48
-5.29
-9.18
-12.88
-16.28
-19.51
-23.01
-27.4
-33.22
-40.64
-49.16
-57.65
-64.51
-68.17
-67.47
-62.12
-52.69
-40.51
-27.22
-14.39
-3.16
5.94
12.89
18.02
21.69
24.24
25.86
26.71
27.06
27.32
27.94
29.3
31.46
34.17
36.96
39.37
41.14
42.25
42.8
42.9
42.48
41.37
39.38
36.44
32.66
28.32
23.81
19.57
15.92
13.0
10.7
8.63
6.3
3.23
-0.73
-5.36
-10.19
-14.7
-18.6
-22.02
-25.4
-29.29
-34.2
-40.42
-47.89
-56.19
-64.48
-71.45
-75.68
-75.88
-71.36
-62.35
-49.94
-35.81
-21.73
-9.13
1.18
9.03
14.71
18.78
21.75
24.03
25.87
27.4
28.78
30.24
32.01
34.15
36.48
38.58
39.98
40.39
39.82
38.65
37.27
35.93
34.56
32.85
30.5
27.4
23.76
20.03
16.65
13.92
11.83
10.16
8.51
6.48
3.79
0.35
-3.63
-7.76
-11.6
-14.86
-17.56
-20.04
-22.9
-26.79
-32.2
-39.26
-47.58
-56.23
-63.82
-68.72
-69.53
-65.48
-56.79
-44.67
-30.97
-17.59
-5.9
3.44
10.49
15.6
19.13
21.31
22.33
22.56
22.51
22.82
23.93
25.99
28.77
31.82
34.63
36.88
38.4
39.2
39.4
39.11
38.39
37.2
35.38
32.83
29.54
25.71
21.71
17.92
14.59
11.73
9.1
6.35
3.17
-0.57
-4.85
-9.44
-14.07
-18.46
-22.45
-26.07
-29.65
-33.8
-39.17
-46.23
-54.85
-64.13
-72.51
-78.1
-79.3
-75.32
-66.47
-54.09
-40.07
-26.3
-14.12
-4.17
3.58
9.55
14.2
17.9
20.83
23.09
24.83
26.31
27.79
29.52
31.57
33.8
35.98
37.82
39.2
40.16
40.86
41.38
41.69
41.55
40.63
38.7
35.71
31.9
27.71
23.67
20.2
17.49
15.42
13.56
11.34
8.29
4.19
-0.79
-6.16
-11.34
-15.88
-19.7
-23.11
-26.7
-31.16
-37.0
-44.41
-53.0
-61.83
-69.44
-74.2
-74.69
-70.23
-61.11
-48.53
-34.29
-20.29
-7.99
1.8
8.9
13.63
16.54
18.21
19.15
19.76
20.39
21.3
22.65
24.54
26.89
29.5
32.1
34.45
36.45
38.06
39.27
39.95
39.81
38.52
35.86
31.97
27.32
22.61
18.47
15.16
12.55
10.16
7.44
4.06
0.01
-4.42
-8.9
-13.12
-17.03
-20.78
-24.74
-29.39
-35.13
-42.16
-50.16
-58.19
-64.74
-68.15
-67.07
-61.07
-50.77
-37.72
-23.84
-10.85
0.17
8.88
15.45
20.27
23.75
26.14
27.66
28.55
29.16
29.91
31.2
33.25
35.97
38.97
41.72
43.75
44.84
45.04
44.56
43.64
42.34
40.57
38.19
35.15
31.55
27.66
23.84
20.37
17.43
15.0
12.84
10.54
7.7
4.02
-0.5
-5.54
-10.55
-15.04
-18.8
-21.97
-25.03
-28.62
-33.3
-39.42
-47.0
-55.61
-64.34
-71.77
-76.28
-76.43
-71.51
-61.82
-48.68
-34.07
-19.99
-7.9
1.53
8.34
13.04
16.22
18.37
19.83
20.85
21.69
22.59
23.76
25.29
27.12
29.1
31.05
32.85
34.46
35.91
37.19
38.16
38.53
38.0
36.3
33.38
29.47
25.04
20.7
16.89
13.82
11.33
8.93
6.11
2.53
-1.78
-6.44
-10.91
-14.77
-17.86
-20.44
-23.04
-26.32
-30.84
-36.86
-44.15
-51.91
-58.78
-63.13
-63.52
-59.21
-50.49
-38.64
-25.52
-12.98
-2.29
6.05
12.25
16.79
20.13
22.41
23.6
23.7
22.99
22.13
21.89
22.83
25.02
27.96
30.87
33.05
34.21
34.52
34.36
34.02
33.46
32.37
30.4
27.43
23.67
19.6
15.77
12.53
9.98
7.91
5.91
3.48
0.26
-3.87
-8.71
-13.72
-18.4
-22.39
-25.78
-29.06
-32.94
-38.14
-45.01
-53.41
-62.58
-71.19
-77.54
-80.01
-77.46
-69.72
-57.7
-43.18
-28.24
-14.66
-3.52
4.95
11.08
15.49
18.74
21.26
23.29
25.05
26.69
28.39
30.24
32.29
34.5
36.7
38.65
40.15
41.03
41.27
40.99
40.33
39.36
37.98
36.0
33.19
29.57
25.36
21.09
17.31
14.42
12.41
10.94
9.42
7.25
4.14
0.16
-4.31
-8.82
-13.04
-16.88
-20.47
-24.17
-28.34
-33.38
-39.56
-46.91
-55.02
-62.98
-69.36
-72.59
-71.41
-65.4
-55.13
-42.11
-28.28
-15.46
-4.83
3.21
8.92
12.86
15.58
17.49
18.76
19.56
20.14
20.86
22.07
23.95
26.41
29.08
31.55
33.47
34.71
35.31
35.34
34.83
33.73
31.96
29.53
26.56
23.24
19.82
16.46
13.23
10.08
6.97
3.83
0.67
-2.47
-5.48
-8.3
-11.02
-13.88
-17.28
-21.63
-27.24
-34.07
-41.63
-48.98
-54.83
-57.82
-56.88
-51.58
-42.39
-30.56
-17.83
-5.91
4.04
11.55
16.8
20.31
22.61
24.07
24.9
25.28
25.46
25.76
26.48
27.79
29.64
31.8
33.94
35.75
37.06
37.77
37.92
37.48
36.41
34.57
31.86
28.33
24.24
20.01
16.11
12.86
10.3
8.17
6.01
3.43
0.19
-3.68
-7.92
-12.22
-16.31
-20.15
-23.89
-27.92
-32.67
-38.56
-45.67
-53.63
-61.45
-67.67
-70.67
-69.24
-63.01
-52.68
-39.84
-26.43
-14.13
-3.92
4.0
10.02
14.73
18.56
21.69
24.1
25.76
26.82
27.56
28.4
29.63
31.34
33.33
35.21
36.61
37.29
37.29
36.79
36.01
35.01
33.68
31.78
29.16
25.81
21.99
18.13
14.63
11.78
9.6
7.86
6.19
4.17
1.48
-1.97
-5.98
-10.17
-14.08
-17.42
-20.21
-22.83
-25.9
-30.02
-35.54
-42.31
-49.64
-56.41
-61.21
-62.78
-60.28
-53.64
-43.6
-31.6
-19.35
-8.33
0.57
7.23
12.07
15.66
18.48
20.71
22.33
23.33
23.85
24.22
24.83
25.94
27.58
29.51
31.34
32.68
33.34
33.33
32.84
32.1
31.22
30.14
28.68
26.7
24.11
21.05
17.78
14.65
11.96
9.91
8.46
7.42
6.4
4.97
2.8
-0.22
-3.86
-7.72
-11.34
-14.5
-17.3
-20.07
-23.21
-27.02
-31.63
-36.95
-42.81
-48.86
-54.44
-58.61
-60.24
-58.36
-52.59
-43.38
-31.98
-20.05
-9.16
-0.36
6.03
10.21
12.69
13.96
14.43
14.39
14.14
13.94
14.15
15.02
16.66
18.9
21.38
23.58
25.09
25.68
25.45
24.68
23.66
22.52
21.22
19.59
17.51
14.98
12.23
9.49
6.98
4.77
2.77
0.77
-1.5
-4.21
-7.44
-11.03
-14.7
-18.13
-21.15
-23.89
-26.81
-30.5
-35.42
-41.58
-48.28
-54.28
-58.1
-58.49
-54.84
-47.46
-37.4
-26.19
-15.37
-6.02
1.31
6.7
10.52
13.21
15.09
16.3
16.93
17.15
17.24
17.6
18.55
20.23
22.44
24.74
26.63
27.75
28.03
27.68
27.0
26.22
25.35
24.17
22.4
19.86
16.63
13.07
9.7
6.92
4.87
3.34
1.86
-0.04
-2.66
-6.0
-9.82
-13.77
-17.55
-21.03
-24.27
-27.43
-30.76
-34.54
-39.03
-44.38
-50.48
-56.78
-62.36
-66.02
-66.65
-63.6
-56.91
-47.32
-36.13
-24.76
-14.44
-5.9
0.66
5.5
9.11
11.9
14.1
15.75
16.83
17.41
17.81
18.43
19.57
21.28
23.28
25.13
26.49
27.21
27.39
27.21
26.82
26.17
25.2
23.83
22.07
19.94
17.48
14.74
11.82
8.94
6.37
4.29
2.66
1.13
-0.72
-3.29
-6.62
-10.48
-14.46
-18.13
-21.31
-24.05
-26.59
-29.25
-32.44
-36.46
-41.52
-47.56
-54.15
-60.42
-65.14
-67.07
-65.26
-59.5
-50.44
-39.41
-28.04
-17.76
-9.41
-3.17
1.24
4.28
6.34
7.66
8.48
9.03
9.67
10.73
12.39
14.61
17.15
19.64
21.8
23.5
24.72
25.54
26.0
26.04
25.57
24.43
22.56
20.04
17.11
14.17
11.6
9.59
8.06
6.64
4.87
2.33
-1.03
-4.93
-8.87
-12.37
-15.24
-17.69
-20.22
-23.47
-27.93
-33.82
-40.97
-48.79
-56.36
-62.45
-65.8
-65.39
-60.81
-52.42
-41.36
-29.24
-17.66
-7.77
-0.01
5.74
9.94
13.11
15.51
17.25
18.39
19.06
19.59
20.42
21.89
24.16
27.05
30.15
32.91
34.95
36.09
36.42
36.21
35.69
34.93
33.86
32.25
29.95
27.08
23.95
21.03
18.66
16.94
15.61
14.17
12.15
9.27
5.53
1.23
-3.24
-7.55
-11.56
-15.38
-19.25
-23.54
-28.59
-34.66
-41.84
-49.98
-58.53
-66.51
-72.52
-75.1
-73.19
-66.57
-55.99
-43.1
-29.84
-17.85
-8.07
-0.66
4.78
8.81
11.84
14.12
15.78
16.99
18.04
19.29
21.0
23.26
25.97
28.88
31.75
34.38
36.66
38.55
39.97
40.78
40.77
39.77
37.74
34.84
31.42
27.95
24.83
22.25
20.15
18.22
16.02
13.22
9.61
5.29
0.6
-4.02
-8.19
-11.79
-15.04
-18.54
-23.03
-29.08
-36.82
-45.61
-54.18
-60.82
-64.0
-62.72
-56.88
-47.24
-35.22
-22.38
-10.12
0.6
9.33
16.03
20.9
24.23
26.33
27.57
28.35
29.14
30.38
32.38
35.12
38.35
41.66
44.62
46.97
48.57
49.4
49.42
48.6
46.91
44.42
41.28
37.71
33.88
30.0
26.27
22.93
20.15
17.88
15.81
13.39
10.1
5.73
0.51
-5.0
-10.17
-14.68
-18.59
-22.33
-26.43
-31.41
-37.57
-44.99
-53.38
-61.94
-69.35
-73.95
-74.21
-69.29
-59.48
-46.19
-31.47
-17.35
-5.22
4.44
11.87
17.63
22.21
25.89
28.73
30.79
32.32
33.67
35.19
37.15
39.54
42.17
44.7
46.78
48.18
48.87
48.97
48.7
48.25
47.67
46.78
45.31
43.02
39.86
36.03
31.94
28.03
24.59
21.69
19.17
16.74
14.05
10.82
6.92
2.43
-2.37
-7.07
-11.35
-15.06
-18.41
-21.95
-26.31
-32.02
-39.28
-47.77
-56.63
-64.5
-69.82
-71.18
-67.77
-59.7
-48.07
-34.62
-21.21
-9.25
0.56
8.17
13.89
18.09
21.02
22.84
23.78
24.16
24.45
25.09
26.34
28.25
30.61
33.08
35.34
37.18
38.54
39.44
39.93
39.91
39.17
37.46
34.65
30.9
26.63
22.4
18.68
15.69
13.29
11.09
8.59
5.46
1.59
-2.82
-7.35
-11.6
-15.29
-18.5
-21.65
-25.36
-30.32
-36.91
-45.0
-53.83
-62.05
-68.0
-70.19
-67.68
-60.45
-49.41
-36.19
-22.66
-10.4
-0.37
7.19
12.58
16.35
19.02
20.94
22.31
23.3
24.15
25.21
26.79
29.05
31.83
34.7
37.16
38.85
39.73
40.06
40.15
40.18
40.01
39.28
37.6
34.75
30.91
26.54
22.23
18.5
15.58
13.38
11.55
9.62
7.18
3.97
-0.01
-4.52
-9.14
-13.41
-17.09
-20.19
-23.09
-26.38
-30.71
-36.53
-43.93
-52.42
-60.98
-68.17
-72.45
-72.58
-68.01
-59.08
-47.03
-33.62
-20.65
-9.49
-0.79
5.53
10.02
13.36
16.06
18.34
20.22
21.69
22.89
24.12
25.72
27.9
30.58
33.39
35.87
37.67
38.74
39.26
39.48
39.49
39.13
38.05
35.94
32.74
28.69
24.31
20.18
16.71
14.02
11.91
9.94
7.64
4.67
0.92
-3.35
-7.73
-11.76
-15.16
-17.99
-20.59
-23.53
-27.38
-32.53
-39.04
-46.45
-53.81
-59.78
-62.88
-61.95
-56.53
-47.11
-35.07
-22.22
-10.29
-0.38
7.16
12.63
16.5
19.16
20.77
21.36
21.1
20.45
20.06
20.58
22.35
25.28
28.81
32.19
34.78
36.26
36.66
36.29
35.49
34.45
33.14
31.33
28.8
25.46
21.49
17.33
13.51
10.39
8.09
6.36
4.75
2.78
0.08
-3.41
-7.49
-11.8
-15.95
-19.74
-23.21
-26.64
-30.44
-35.08
-40.84
-47.71
-55.32
-62.83
-69.03
-72.52
-72.14
-67.32
-58.38
-46.47
-33.36
-20.8
-10.09
-1.78
4.32
8.77
12.25
15.21
17.84
20.16
22.14
23.81
25.3
26.78
28.37
30.11
31.92
33.63
35.1
36.18
36.83
37.06
36.88
36.22
34.98
33.08
30.51
27.39
24.0
20.65
17.61
15.03
12.88
11.01
9.16
7.04
4.42
1.16
-2.66
-6.82
-11.0
-14.93
-18.5
-21.85
-25.34
-29.45
-34.59
-40.96
-48.32
-55.97
-62.77
-67.35
-68.47
-65.46
-58.42
-48.29
-36.55
-24.72
-14.04
-5.2
1.69
6.82
10.54
13.15
14.89
15.95
16.58
17.06
17.75
18.91
20.7
23.09
25.84
28.55
30.85
32.49
33.39
33.68
33.53
33.01
32.07
30.58
28.44
25.71
22.62
19.54
16.8
14.55
12.75
11.14
9.36
7.09
4.18
0.7
-3.05
-6.72
-9.99
-12.84
-15.51
-18.48
-22.26
-27.2
-33.35
-40.43
-47.76
-54.42
-59.27
-61.21
-59.44
-53.76
-44.7
-33.45
-21.5
-10.23
-0.6
7.01
12.59
16.36
18.55
19.43
19.27
18.52
17.69
17.31
17.75
19.15
21.38
24.06
26.75
29.01
30.52
31.18
31.09
30.47
29.55
28.44
27.09
25.35
23.1
20.4
17.43
14.48
11.79
9.48
7.57
5.93
4.4
2.75
0.77
-1.76
-4.97
-8.79
-12.97
-17.13
-20.98
-24.45
-27.74
-31.33
-35.72
-41.31
-48.18
-55.93
-63.61
-69.85
-73.16
-72.36
-67.01
-57.61
-45.49
-32.4
-20.01
-9.49
-1.35
4.55
8.72
11.77
14.19
16.28
18.15
19.87
21.52
23.27
25.28
27.62
30.16
32.59
34.59
35.89
36.48
36.45
35.94
35.04
33.76
32.05
29.93
27.49
24.85
22.13
19.47
16.96
14.7
12.72
10.98
9.35
7.62
5.5
2.82
-0.48
-4.32
-8.46
-12.62
-16.54
-20.14
-23.5
-26.94
-30.92
-35.88
-42.08
-49.32
-56.96
-63.86
-68.68
-70.15
-67.51
-60.73
-50.61
-38.54
-26.17
-14.95
-5.8
1.02
5.76
8.97
11.19
12.76
13.87
14.69
15.43
16.4
17.94
20.2
23.03
26.01
28.61
30.44
31.35
31.53
31.31
30.95
30.49
29.76
28.46
26.38
23.61
20.47
17.42
14.79
12.63
10.73
8.68
6.15
3.05
-0.47
-4.09
-7.51
-10.57
-13.31
-15.94
-18.75
-22.06
-26.19
-31.37
-37.58
-44.42
-51.0
-56.07
-58.31
-56.77
-51.26
-42.42
-31.52
-20.1
-9.41
-0.24
7.13
12.74
16.75
19.26
20.41
20.42
19.69
18.8
18.31
18.67
20.06
22.26
24.84
27.24
29.08
30.17
30.65
30.8
30.81
30.66
30.02
28.46
25.68
21.75
17.18
12.72
9.09
6.63
5.16
4.0
2.37
-0.29
-4.1
-8.64
-13.2
-17.17
-20.27
-22.71
-25.06
-28.06
-32.31
-38.12
-45.39
-53.59
-61.71
-68.41
-72.19
-71.81
-66.75
-57.49
-45.38
-32.28
-19.93
-9.44
-1.19
5.02
9.61
12.97
15.36
16.97
18.11
19.13
20.38
22.06
24.16
26.48
28.77
30.77
32.32
33.37
33.98
34.24
34.28
34.11
33.59
32.48
30.57
27.82
24.46
20.93
17.68
15.01
12.96
11.33
9.79
8.03
5.81
3.04
-0.19
-3.68
-7.12
-10.29
-13.18
-16.06
-19.43
-23.87
-29.73
-37.0
-45.16
-53.24
-59.95
-63.97
-64.27
-60.41
-52.76
-42.43
-30.96
-19.87
-10.22
-2.39
3.77
8.71
12.8
16.2
18.87
20.71
21.73
22.21
22.6
23.39
24.89
27.13
29.8
32.4
34.42
35.56
35.79
35.31
34.36
33.06
31.42
29.3
26.63
23.54
20.31
17.34
14.91
13.09
11.63
10.08
8.0
5.11
1.46
-2.6
-6.61
-10.1
-12.9
-15.08
-17.04
-19.31
-22.54
-27.24
-33.61
-41.38
-49.57
-56.75
-61.23
-61.66
-57.46
-49.08
-37.83
-25.51
-13.83
-3.98
3.54
8.85
12.42
14.75
16.21
17.05
17.44
17.68
18.16
19.28
21.26
23.94
26.82
29.33
31.03
31.85
32.05
32.0
31.92
31.73
31.08
29.58
27.02
23.49
19.39
15.3
11.74
9.05
7.22
5.92
4.6
2.74
0.02
-3.49
-7.45
-11.46
-15.28
-18.93
-22.69
-26.91
-31.86
-37.7
-44.42
-51.74
-59.01
-65.13
-68.68
-68.39
-63.6
-54.67
-42.96
-30.38
-18.7
-8.97
-1.39
4.46
9.2
13.23
16.64
19.34
21.21
22.4
23.27
24.32
25.95
28.33
31.26
34.28
36.85
38.58
39.35
39.33
38.84
38.13
37.23
35.98
34.21
31.82
28.95
25.86
22.88
20.23
17.97
16.0
14.12
12.06
9.63
6.69
3.28
-0.42
-4.16
-7.75
-11.09
-14.35
-17.79
-21.75
-26.55
-32.41
-39.4
-47.32
-55.68
-63.5
-69.42
-72.03
-70.26
-63.87
-53.64
-41.18
-28.45
-17.07
-7.92
-0.98
4.32
8.69
12.55
15.98
18.79
20.86
22.31
23.51
24.91
26.8
29.19
31.82
34.3
36.29
37.62
38.32
38.51
38.27
37.6
36.38
34.54
32.04
29.03
25.77
22.55
19.63
17.19
15.27
13.77
12.4
10.77
8.51
5.38
1.52
-2.65
-6.52
-9.65
-12.02
-14.06
-16.51
-20.09
-25.22
-31.93
-39.77
-47.91
-55.2
-60.28
-61.85
-59.06
-51.87
-41.15
-28.59
-16.09
-5.2
3.27
9.36
13.59
16.6
18.85
20.49
21.57
22.19
22.57
23.09
24.08
25.77
28.11
30.81
33.43
35.55
36.91
37.44
37.32
36.75
35.89
34.77
33.29
31.38
29.04
26.39
23.62
20.9
18.26
15.66
13.09
10.51
7.91
5.21
2.26
-1.11
-4.97
-9.23
-13.63
-17.9
-21.88
-25.61
-29.28
-33.26
-37.93
-43.67
-50.62
-58.56
-66.64
-73.49
-77.47
-77.19
-72.06
-62.55
-50.05
-36.41
-23.39
-12.22
-3.4
3.14
7.86
11.29
13.88
15.93
17.62
19.06
20.4
21.9
23.76
26.09
28.76
31.43
33.73
35.41
36.44
37.0
37.26
37.23
36.8
35.81
34.21
32.12
29.79
27.47
25.24
23.1
20.95
18.76
16.58
14.45
12.32
10.05
7.42
4.28
0.64
-3.42
-7.67
-11.95
-16.19
-20.34
-24.43
-28.55
-32.93
-37.91
-43.89
-51.05
-59.06
-66.95
-73.23
-76.29
-74.95
-68.9
-58.84
-46.23
-32.83
-20.2
-9.32
-0.54
6.24
11.34
15.04
17.54
18.98
19.57
19.73
19.99
20.9
22.81
25.69
29.19
32.76
35.85
38.18
39.67
40.43
40.59
40.16
39.11
37.37
34.92
31.83
28.25
24.42
20.6
17.06
14.02
11.52
9.38
7.26
4.75
1.56
-2.31
-6.64
-11.05
-15.19
-18.91
-22.26
-25.54
-29.21
-33.79
-39.67
-46.96
-55.31
-63.77
-70.95
-75.31
-75.53
-71.03
-62.08
-49.82
-35.94
-22.25
-10.17
-0.53
6.62
11.73
15.48
18.46
20.96
23.09
24.82
26.29
27.76
29.54
31.78
34.44
37.23
39.81
41.93
43.51
44.59
45.22
45.36
44.94
43.83
42.0
39.47
36.37
32.89
29.26
25.72
22.48
19.61
17.05
14.61
12.0
8.97
5.36
1.2
-3.34
-7.99
-12.47
-16.62
-20.43
-24.12
-28.05
-32.68
-38.4
-45.36
-53.33
-61.54
-68.8
-73.59
-74.55
-70.83
-62.53
-50.67
-36.98
-23.36
-11.33
-1.72
5.43
10.56
14.28
17.08
19.25
20.94
22.29
23.47
24.72
26.2
27.94
29.83
31.69
33.37
34.81
36.0
36.96
37.57
37.68
37.05
35.5
33.03
29.82
26.22
22.65
19.46
16.81
14.66
12.77
10.84
8.56
5.78
2.53
-1.05
-4.71
-8.31
-11.81
-15.34
-19.19
-23.68
-29.13
-35.66
-43.01
-50.37
-56.51
-59.92
-59.38
-54.33
-45.21
-33.33
-20.47
-8.31
2.07
10.23
16.28
20.52
23.2
24.47
24.49
23.58
22.27
21.22
21.04
22.06
24.24
27.19
30.32
33.02
34.86
35.68
35.57
34.72
33.31
31.37
28.85
25.77
22.29
18.76
15.59
13.0
10.91
8.93
6.57
3.43
-0.61
-5.32
-10.26
-14.96
-19.06
-22.48
-25.42
-28.34
-31.84
-36.5
-42.66
-50.23
-58.65
-66.83
-73.38
-76.89
-76.3
-71.21
-62.06
-50.03
-36.76
-23.87
-12.58
-3.44
3.6
8.98
13.17
16.52
19.2
21.29
22.96
24.47
26.16
28.28
30.9
33.8
36.62
38.95
40.57
41.46
41.83
41.89
41.74
41.26
40.09
37.91
34.55
30.25
25.58
21.26
17.83
15.51
13.98
12.64
10.83
8.13
4.53
0.32
-4.03
-8.17
-11.99
-15.68
-19.61
-24.14
-29.59
-36.11
-43.6
-51.6
-59.15
-64.9
-67.37
-65.49
-58.97
-48.59
-35.98
-23.01
-11.28
-1.66
5.77
11.42
15.81
19.32
22.06
24.08
25.48
26.53
27.62
29.08
31.05
33.42
35.86
37.98
39.54
40.51
41.03
41.28
41.27
40.81
39.62
37.46
34.38
30.71
26.97
23.67
21.04
19.01
17.24
15.25
12.71
9.5
5.8
1.92
-1.77
-5.08
-8.07
-11.05
-14.46
-18.71
-24.04
-30.31
-36.97
-43.06
-47.36
-48.69
-46.24
-39.91
-30.43
-19.23
-7.97
1.95
9.77
15.46
19.42
22.14
23.97
25.0
25.27
24.98
24.5
24.29
24.72
25.83
27.42
29.1
30.51
31.42
31.82
31.79
31.46
30.89
29.96
28.48
26.25
23.18
19.53
15.76
12.46
10.0
8.36
7.08
5.54
3.21
-0.1
-4.15
-8.39
-12.32
-15.66
-18.51
-21.33
-24.71
-29.19
-34.92
-41.56
-48.23
-53.69
-56.66
-56.22
-52.07
-44.65
-35.01
-24.48
-14.31
-5.44
1.69
7.08
10.96
13.7
15.59
16.89
17.79
18.46
19.12
19.96
21.11
22.58
24.24
25.84
27.08
27.79
27.9
27.5
26.75
25.78
24.6
23.12
21.24
18.88
16.18
13.4
10.8
8.55
6.58
4.61
2.33
-0.47
-3.75
-7.27
-10.68
-13.68
-16.17
-18.26
-20.27
-22.59
-25.64
-29.73
-34.95
-40.99
-47.09
-52.11
-54.79
-54.14
-49.85
-42.4
-33.02
-23.21
-14.3
-7.09
-1.71
2.15
4.89
6.84
8.13
8.79
9.0
9.08
9.44
10.38
11.96
13.98
16.0
17.63
18.6
18.89
18.63
17.98
17.06
15.91
14.49
12.74
10.73
8.57
6.45
4.52
2.83
1.32
-0.2
-1.87
-3.81
-6.04
-8.44
-10.89
-13.26
-15.48
-17.63
-19.95
-22.82
-26.65
-31.63
-37.57
-43.75
-49.01
-52.04
-51.83
-48.0
-40.98
-31.89
-22.2
-13.24
-5.92
-0.56
2.97
5.07
6.14
6.52
6.47
6.24
6.09
6.32
7.11
8.49
10.22
11.95
13.34
14.25
14.73
14.91
14.85
14.46
13.54
11.93
9.72
7.24
4.9
3.04
1.69
0.64
-0.42
-1.79
-3.64
-5.96
-8.72
-11.77
-14.96
-18.07
-20.97
-23.68
-26.4
-29.51
-33.39
-38.23
-43.79
-49.38
-53.91
-56.23
-55.48
-51.37
-44.36
-35.51
-26.18
-17.52
-10.24
-4.47
0.03
3.64
6.58
8.88
10.49
11.4
11.82
12.04
12.43
13.23
14.5
16.14
17.91
19.55
20.86
21.73
22.16
22.19
21.82
21.02
19.67
17.73
15.25
12.53
9.99
8.0
6.75
6.07
5.49
4.48
2.63
-0.2
-3.78
-7.69
-11.47
-14.86
-17.8
-20.5
-23.27
-26.5
-30.55
-35.62
-41.67
-48.25
-54.5
-59.2
-61.09
-59.29
-53.67
-44.96
-34.57
-24.11
-14.93
-7.72
-2.57
0.92
3.31
5.1
6.64
8.13
9.63
11.15
12.69
14.21
15.72
17.25
18.87
20.6
22.41
24.15
25.62
26.6
26.86
26.3
24.89
22.77
20.15
17.3
14.47
11.83
9.43
7.25
5.18
3.1
0.87
-1.57
-4.22
-7.02
-9.89
-12.81
-15.95
-19.59
-24.06
-29.54
-35.84
-42.31
-47.9
-51.4
-51.76
-48.5
-41.8
-32.55
-22.05
-11.63
-2.3
5.42
11.48
16.06
19.28
21.22
21.91
21.55
20.65
19.89
19.88
20.95
22.95
25.4
27.76
29.65
30.98
31.87
32.45
32.67
32.32
31.15
28.97
25.86
22.15
18.35
15.0
12.37
10.42
8.85
7.12
4.8
1.7
-2.05
-6.08
-9.98
-13.56
-16.85
-20.14
-23.82
-28.29
-33.89
-40.73
-48.56
-56.63
-63.69
-68.23
-68.93
-65.15
-57.21
-46.31
-34.12
-22.27
-11.86
-3.35
3.33
8.47
12.36
15.24
17.26
18.68
19.9
21.36
23.47
26.38
29.89
33.53
36.7
38.98
40.22
40.63
40.62
40.56
40.6
40.54
39.95
38.41
35.76
32.19
28.23
24.47
21.29
18.72
16.43
13.94
10.86
7.09
2.81
-1.61
-5.79
-9.58
-13.07
-16.59
-20.59
-25.48
-31.53
-38.74
-46.78
-54.93
-62.13
-67.15
-68.8
-66.3
-59.6
-49.39
-37.07
-24.32
-12.65
-3.01
4.36
9.74
13.69
16.68
18.96
20.6
21.64
22.26
22.75
23.54
24.92
26.98
29.59
32.41
35.05
37.16
38.51
38.96
38.51
37.25
35.29
32.79
29.89
26.68
23.24
19.61
15.83
11.96
8.06
4.21
0.5
-3.03
-6.39
-9.74
-13.38
-17.76
-23.24
-30.02
-37.91
-46.26
-53.97
-59.62
-61.87
-59.78
-53.18
-42.81
-30.16
-17.08
-5.21
4.43
11.61
16.71
20.29
22.79
24.38
25.17
25.38
25.53
26.28
28.14
31.23
35.13
39.08
42.33
44.45
45.42
45.52
45.14
44.46
43.44
41.81
39.35
36.01
32.07
28.02
24.36
21.4
19.04
16.86
14.32
11.0
6.87
2.24
-2.37
-6.53
-10.06
-13.18
-16.36
-20.21
-25.31
-32.01
-40.28
-49.52
-58.57
-65.84
-69.73
-69.05
-63.45
-53.55
-40.77
-26.93
-13.78
-2.66
5.77
11.47
14.9
16.8
17.88
18.73
19.68
20.81
22.19
23.85
25.87
28.29
31.01
33.71
36.02
37.58
38.27
38.2
37.63
36.73
35.5
33.73
31.21
27.98
24.32
20.72
17.63
15.25
13.38
11.62
9.51
6.77
3.42
-0.33
-4.2
-7.94
-11.49
-14.99
-18.74
-23.15
-28.62
-35.3
-42.94
-50.75
-57.47
-61.64
-62.0
-57.88
-49.47
-37.8
-24.52
-11.41
0.06
9.08
15.52
19.76
22.36
23.83
24.47
24.52
24.28
24.13
24.53
25.82
28.02
30.81
33.67
36.09
37.74
38.57
38.66
38.1
36.91
34.98
32.29
28.92
25.15
21.36
17.92
14.99
12.48
10.04
7.25
3.81
-0.31
-4.83
-9.32
-13.33
-16.7
-19.59
-22.53
-26.19
-31.17
-37.76
-45.76
-54.34
-62.18
-67.73
-69.52
-66.68
-59.18
-47.98
-34.74
-21.33
-9.31
0.45
7.84
13.25
17.22
20.17
22.31
23.75
24.73
25.63
26.93
28.96
31.76
35.03
38.19
40.71
42.26
42.88
42.88
42.57
42.07
41.19
39.5
36.61
32.49
27.61
22.77
18.83
16.21
14.78
13.85
12.55
10.2
6.62
2.1
-2.8
-7.47
-11.59
-15.1
-18.32
-21.73
-25.86
-31.13
-37.74
-45.44
-53.54
-60.91
-66.19
-68.12
-65.87
-59.36
-49.35
-37.24
-24.78
-13.5
-4.4
2.3
6.96
10.27
12.85
15.06
16.92
18.4
19.49
20.41
21.52
23.12
25.3
27.87
30.49
32.81
34.55
35.55
35.77
35.14
33.61
31.2
28.05
24.43
20.64
16.95
13.49
10.27
7.25
4.38
1.64
-1.06
-3.77
-6.6
-9.69
-13.17
-17.26
-22.19
-28.19
-35.28
-43.13
-50.84
-57.04
-60.26
-59.36
-53.97
-44.71
-32.97
-20.51
-8.92
0.82
8.42
14.07
18.14
20.96
22.71
23.49
23.57
23.39
23.48
24.26
25.9
28.19
30.72
33.07
34.89
36.11
36.78
36.98
36.78
36.14
34.97
33.2
30.81
27.88
24.62
21.33
18.32
15.77
13.68
11.77
9.6
6.74
2.94
-1.66
-6.63
-11.35
-15.3
-18.34
-20.75
-23.18
-26.43
-31.11
-37.48
-45.23
-53.48
-60.93
-66.08
-67.61
-64.77
-57.6
-47.06
-34.66
-22.14
-10.97
-2.0
4.57
9.08
12.06
14.02
15.34
16.28
17.05
17.92
19.16
20.93
23.23
25.78
28.25
30.28
31.74
32.72
33.43
34.0
34.4
34.32
33.37
31.25
27.98
23.89
19.58
15.66
12.48
10.08
8.11
6.12
3.7
0.72
-2.64
-6.04
-9.14
-11.87
-14.39
-17.08
-20.36
-24.52
-29.67
-35.61
-41.88
-47.7
-52.04
-53.79
-52.06
-46.5
-37.56
-26.47
-14.87
-4.28
4.31
10.61
14.92
17.7
19.37
20.11
20.1
19.57
18.95
18.79
19.51
21.21
23.59
26.15
28.37
29.92
30.74
30.94
30.66
29.91
28.58
26.45
23.43
19.62
15.45
11.49
8.26
5.95
4.33
2.87
0.92
-1.91
-5.62
-9.86
-14.1
-17.92
-21.17
-24.04
-26.92
-30.33
-34.71
-40.31
-46.95
-53.97
-60.24
-64.3
-64.85
-61.18
-53.47
-42.75
-30.7
-18.99
-8.92
-1.07
4.63
8.7
11.72
14.13
16.12
17.72
18.97
20.04
21.24
22.83
24.91
27.29
29.57
31.35
32.41
32.8
32.74
32.43
31.94
31.15
29.8
27.75
24.99
21.69
18.18
14.82
11.89
9.55
7.7
6.05
4.11
1.47
-2.07
-6.33
-10.84
-14.99
-18.37
-20.93
-23.04
-25.3
-28.4
-32.81
-38.68
-45.68
-53.01
-59.48
-63.74
-64.57
-61.34
-54.18
-44.03
-32.42
-20.96
-10.91
-2.93
2.97
7.16
10.13
12.2
13.54
14.19
14.28
14.07
13.97
14.39
15.58
17.51
19.89
22.28
24.28
25.66
26.33
26.33
25.66
24.28
22.21
19.51
16.41
13.19
10.12
7.33
4.78
2.34
-0.15
-2.78
-5.59
-8.55
-11.64
-14.86
-18.21
-21.74
-25.61
-30.03
-35.24
-41.14
-47.2
-52.31
-55.12
-54.47
-49.88
-41.77
-31.3
-20.03
-9.39
-0.35
6.61
11.48
14.48
15.96
16.33
16.04
15.57
15.41
15.93
17.33
19.55
22.3
25.14
27.54
29.14
29.76
29.52
28.65
27.38
25.79
23.79
21.29
18.28
14.94
11.62
8.63
6.14
4.11
2.22
0.07
-2.68
-6.15
-10.23
-14.51
-18.52
-21.89
-24.63
-27.07
-29.87
-33.7
-38.96
-45.59
-52.95
-59.97
-65.36
-67.89
-66.75
-61.75
-53.41
-42.85
-31.51
-20.7
-11.35
-3.81
2.07
6.64
10.24
13.04
15.1
16.49
17.48
18.48
19.91
22.03
24.77
27.81
30.71
33.05
34.6
35.35
35.38
34.84
33.83
32.32
30.27
27.65
24.51
21.12
17.84
15.07
13.0
11.56
10.36
8.88
6.76
3.9
0.54
-2.94
-6.21
-9.15
-11.86
-14.59
-17.68
-21.48
-26.33
-32.47
-39.86
-48.04
-55.97
-62.26
-65.44
-64.48
-59.11
-49.98
-38.44
-26.17
-14.68
-4.95
2.64
8.21
12.16
14.89
16.72
17.89
18.66
19.34
20.28
21.68
23.51
25.58
27.64
29.52
31.17
32.61
33.78
34.47
34.44
33.52
31.72
29.2
26.22
23.01
19.75
16.56
13.54
10.72
8.04
5.37
2.55
-0.49
-3.67
-6.83
-9.87
-12.86
-16.09
-20.0
-24.94
-31.03
-37.97
-44.95
-50.79
-54.15
-53.92
-49.63
-41.66
-31.14
-19.69
-8.85
0.34
7.49
12.83
16.81
19.86
22.21
23.95
