0
-25.07
-31.61
-37.58
-42.93
-47.99
-53.29
-59.53
-67.33
-76.97
-88.08
-99.47
-109.17
-114.86
-114.58
-107.4
-93.81
-75.66
-55.56
-36.05
-18.93
-4.91
6.22
15.18
22.69
29.14
34.58
38.87
41.91
43.87
45.14
46.25
47.53
49.1
50.76
52.23
53.32
54.04
54.6
55.17
55.75
56.04
55.57
53.97
51.18
47.48
43.37
39.35
35.65
32.22
28.8
25.18
21.27
17.17
13.15
9.46
6.2
3.28
0.39
-2.91
-7.04
-12.19
-18.22
-24.6
-30.69
-36.03
-40.6
-44.91
-49.78
-56.09
-64.38
-74.64
-86.17
-97.66
-107.26
-112.92
-112.84
-106.09
-92.98
-75.13
-55.07
-35.41
-18.16
-4.21
6.59
14.93
21.53
26.88
31.13
34.3
36.53
38.06
39.21
40.29
41.42
42.65
44.01
45.52
47.24
49.1
50.91
52.34
53.02
52.73
51.42
49.22
46.36
43.0
39.25
35.16
30.8
26.32
21.9
17.68
13.77
10.09
6.5
2.8
-1.21
-5.67
-10.58
-15.82
-21.16
-26.36
-31.27
-35.87
-40.3
-44.78
-49.64
-55.27
-62.03
-70.17
-79.43
-88.81
-96.54
-100.44
-98.58
-90.12
-75.67
-57.23
-37.49
-18.98
-3.34
8.88
18.05
24.85
29.91
33.5
35.64
36.34
35.84
34.67
33.53
33.13
33.86
35.75
38.37
41.1
43.32
44.72
45.31
45.33
45.02
44.42
43.34
41.43
38.41
34.22
29.11
23.56
18.09
13.14
8.95
5.5
2.52
-0.4
-3.76
-7.96
-13.12
-19.07
-25.36
-31.5
-37.18
-42.35
-47.27
-52.42
-58.37
-65.66
-74.67
-85.35
-96.94
-107.82
-115.73
-118.28
-113.82
-102.05
-84.33
-63.18
-41.57
-21.87
-5.42
7.56
17.64
25.56
31.91
36.96
40.85
43.67
45.63
47.08
48.37
49.82
51.57
53.58
55.66
57.61
59.28
60.59
61.51
62.01
61.99
61.28
59.73
57.29
54.01
50.02
45.47
40.45
35.06
29.38
23.58
17.9
12.55
7.63
3.09
-1.25
-5.65
-10.29
-15.3
-20.63
-26.18
-31.76
-37.28
-42.75
-48.38
-54.59
-61.87
-70.67
-81.09
-92.56
-103.71
-112.5
-116.66
-114.38
-104.96
-89.16
-68.98
-47.07
-25.99
-7.51
7.63
19.5
28.68
35.74
41.11
45.05
47.82
49.78
51.41
53.17
55.3
57.73
60.11
62.03
63.26
63.89
64.25
64.69
65.36
66.03
66.29
65.7
64.02
61.32
57.8
53.7
49.18
44.31
39.11
33.67
28.2
22.92
18.06
13.68
9.69
5.82
1.68
-3.09
-8.69
-15.06
-21.89
-28.7
-35.04
-40.64
-45.59
-50.35
-55.69
-62.48
-71.38
-82.44
-94.83
-106.74
-115.69
-119.16
-115.42
-104.18
-86.71
-65.53
-43.57
-23.32
-6.3
7.11
17.32
25.03
30.83
35.08
37.99
39.8
40.92
41.79
42.82
44.27
46.08
48.09
50.0
51.56
52.63
53.17
53.29
53.14
52.79
52.15
50.9
48.65
45.06
40.16
34.32
28.22
22.53
17.63
13.44
9.61
5.67
1.29
-3.57
-8.72
-13.9
-18.84
-23.41
-27.67
-31.83
-36.22
-41.31
-47.6
-55.48
-65.05
-75.83
-86.66
-95.72
-100.88
-100.3
-93.04
-79.47
-61.24
-40.82
-20.75
-2.9
11.8
23.32
32.07
38.5
42.81
45.11
45.58
44.71
43.35
42.4
42.55
44.0
46.44
49.27
51.92
54.03
55.55
56.59
57.23
57.36
56.64
54.69
51.24
46.34
40.36
33.9
27.59
21.82
16.65
11.79
6.74
1.07
-5.45
-12.67
-20.12
-27.18
-33.34
-38.42
-42.66
-46.71
-51.49
-57.89
-66.57
-77.62
-90.44
-103.54
-114.79
-121.74
-122.28
-115.33
-101.26
-81.87
-59.84
-37.99
-18.45
-2.28
10.53
20.65
28.92
35.96
42.04
47.12
51.07
53.87
55.71
57.04
58.29
59.76
61.45
63.1
64.41
65.19
65.48
65.46
65.25
64.77
63.69
61.61
58.25
53.61
48.02
41.96
35.93
30.31
25.24
20.68
16.36
11.94
7.05
1.4
-5.03
-12.04
-19.25
-26.22
-32.63
-38.34
-43.57
-48.8
-54.8
-62.33
-71.91
-83.48
-96.09
-107.87
-116.38
-119.26
-114.98
-103.38
-85.78
-64.59
-42.55
-21.99
-4.33
10.01
21.37
30.44
37.77
43.67
48.12
51.12
52.83
53.7
54.42
55.6
57.54
60.05
62.65
64.84
66.33
67.15
67.49
67.51
67.15
66.16
64.2
61.07
56.78
51.53
45.66
39.56
33.6
28.06
23.08
18.57
14.27
9.79
4.84
-0.66
-6.56
-12.54
-18.29
-23.65
-28.67
-33.6
-38.85
-44.84
-52.03
-60.82
-71.35
-83.28
-95.51
-106.24
-113.23
-114.45
-108.72
-96.15
-78.24
-57.36
-36.15
-16.77
-0.44
12.51
22.47
30.03
35.68
39.64
41.97
42.84
42.63
42.01
41.69
42.15
43.5
45.45
47.58
49.56
51.27
52.7
53.75
54.1
53.29
50.92
46.92
41.67
35.85
30.19
25.1
20.6
16.32
11.78
6.61
0.74
-5.6
-12.02
-18.08
-23.5
-28.28
-32.73
-37.49
-43.32
-50.92
-60.53
-71.62
-82.74
-91.73
-96.24
-94.47
-85.77
-70.96
-52.07
-31.68
-12.16
4.96
19.14
30.6
39.79
46.99
52.2
55.32
56.49
56.23
55.44
55.03
55.58
57.17
59.34
61.41
62.78
63.14
62.56
61.38
60.04
58.86
57.83
56.65
54.77
51.72
47.25
41.63
35.45
29.43
24.02
19.22
14.65
9.77
4.21
-2.04
-8.65
-15.17
-21.27
-26.83
-32.0
-37.03
-42.29
-48.15
-55.07
-63.52
-73.63
-84.99
-96.28
-105.45
-110.11
-108.4
-99.67
-84.81
-65.99
-45.87
-26.78
-10.12
3.76
15.24
24.82
32.84
39.29
44.06
47.16
48.87
49.75
50.45
51.49
53.03
54.9
56.72
58.11
58.88
59.04
58.79
58.32
57.59
56.4
54.47
51.63
47.98
43.82
39.52
35.29
31.18
27.04
22.76
18.39
14.05
9.9
6.02
2.3
-1.47
-5.52
-9.97
-14.78
-19.72
-24.53
-28.99
-33.05
-37.01
-41.4
-46.93
-54.18
-63.39
-74.14
-85.37
-95.39
-102.21
-103.98
-99.54
-88.84
-73.14
-54.66
-35.98
-19.23
-5.55
5.04
13.19
19.73
25.16
29.56
32.76
34.69
35.49
35.56
35.35
35.26
35.46
36.05
37.0
38.23
39.64
41.06
42.27
43.04
43.14
42.38
40.67
38.07
34.77
31.13
27.53
24.23
21.29
18.53
15.69
12.53
8.95
4.97
0.68
-3.88
-8.68
-13.74
-18.96
-24.23
-29.34
-34.16
-38.67
-42.98
-47.29
-51.82
-56.79
-62.43
-68.9
-76.17
-83.73
-90.46
-94.71
-94.76
-89.36
-78.4
-62.98
-45.2
-27.4
-11.46
1.64
11.81
19.48
25.17
29.19
31.65
32.7
32.61
31.9
31.15
30.9
31.44
32.73
34.47
36.25
37.69
38.58
38.92
38.81
38.35
37.54
36.24
34.31
31.65
28.32
24.52
20.51
16.57
12.91
9.63
6.76
4.2
1.69
-1.12
-4.58
-8.84
-13.79
-19.06
-24.21
-28.92
-33.13
-37.13
-41.34
-46.31
-52.48
-60.15
-69.3
-79.34
-89.05
-96.54
-99.81
-97.26
-88.45
-74.23
-56.6
-38.05
-20.76
-6.15
5.35
14.04
20.56
25.53
29.31
32.08
33.93
34.95
35.46
35.85
36.49
37.61
39.18
40.99
42.77
44.34
45.7
46.92
47.96
48.64
48.61
47.56
45.38
42.22
38.53
34.77
31.31
28.22
25.29
22.19
18.65
14.66
10.44
6.4
2.82
-0.29
-3.23
-6.53
-10.64
-15.77
-21.68
-27.84
-33.62
-38.59
-42.73
-46.47
-50.58
-55.97
-63.31
-72.76
-83.71
-94.71
-103.74
-108.6
-107.59
-100.06
-86.66
-69.23
-50.25
-32.13
-16.56
-4.18
5.32
12.77
19.03
24.59
29.55
33.71
36.92
39.25
40.98
42.48
44.06
45.78
47.49
49.03
50.31
51.35
52.28
53.19
54.09
54.72
54.65
53.45
50.84
46.94
42.28
37.65
33.77
30.99
29.11
27.5
25.4
22.37
18.42
13.99
9.64
5.74
2.28
-1.07
-4.79
-9.25
-14.54
-20.48
-26.65
-32.64
-38.2
-43.29
-48.15
-53.19
-58.96
-65.94
-74.39
-84.1
-94.17
-103.04
-108.69
-109.24
-103.54
-91.69
-75.04
-55.84
-36.48
-18.88
-4.07
7.74
16.92
23.97
29.25
32.93
35.09
35.87
35.67
35.09
34.8
35.32
36.82
39.14
41.88
44.62
47.05
49.02
50.43
51.13
50.97
49.85
47.8
45.05
41.9
38.55
35.07
31.38
27.4
23.14
18.73
14.32
10.06
5.96
1.93
-2.16
-6.41
-10.88
-15.54
-20.33
-25.13
-29.89
-34.65
-39.56
-44.9
-51.06
-58.45
-67.28
-77.34
-87.77
-97.01
-103.05
-103.96
-98.49
-86.7
-69.99
-50.67
-31.26
-13.71
1.0
12.84
22.21
29.56
35.03
38.54
40.09
39.97
38.84
37.62
37.16
37.92
39.92
42.75
45.79
48.52
50.61
51.99
52.77
53.04
52.8
51.9
50.13
47.32
43.47
38.76
33.5
28.08
22.84
17.99
13.6
9.55
5.56
1.31
-3.53
-9.13
-15.42
-22.1
-28.72
-34.86
-40.3
-45.2
-50.06
-55.71
-62.96
-72.36
-83.79
-96.27
-107.87
-116.18
-118.92
-114.63
-103.21
-85.95
-65.19
-43.56
-23.35
-6.0
8.07
19.13
27.87
34.88
40.5
44.89
48.07
50.26
51.85
53.27
54.85
56.66
58.54
60.26
61.68
62.85
63.89
64.89
65.74
66.15
65.76
64.28
61.58
57.74
52.95
47.5
41.73
35.98
30.56
25.68
21.34
17.35
13.36
8.92
3.7
-2.43
-9.32
-16.51
-23.47
-29.74
-35.19
-40.06
-44.99
-50.8
-58.32
-68.05
-79.93
-92.98
-105.34
-114.57
-118.18
-114.53
-103.37
-85.99
-64.86
-42.81
-22.25
-4.65
9.54
20.62
29.21
35.93
41.2
45.31
48.48
50.92
52.89
54.64
56.38
58.17
60.01
61.8
63.48
64.98
66.28
67.31
67.94
67.96
67.16
65.38
62.57
58.78
54.11
48.77
43.04
37.27
31.81
26.92
22.66
18.79
14.89
10.48
5.23
-0.95
-7.87
-15.19
-22.48
-29.4
-35.83
-41.83
-47.73
-54.02
-61.32
-70.14
-80.64
-92.41
-104.2
-114.12
-119.92
-119.68
-112.44
-98.54
-79.65
-58.25
-36.92
-17.69
-1.64
11.05
20.75
28.0
33.2
36.57
38.31
38.78
38.57
38.42
38.94
40.41
42.67
45.24
47.57
49.34
50.54
51.34
51.93
52.25
51.97
50.62
47.89
43.76
38.63
33.11
27.78
22.91
18.36
13.63
8.16
1.59
-5.98
-14.03
-21.73
-28.39
-33.67
-37.84
-41.69
-46.33
-52.81
-61.79
-73.18
-85.89
-97.99
-107.02
-110.62
-107.27
-96.77
-80.34
-60.29
-39.22
-19.29
-1.76
13.02
25.22
35.16
42.95
48.57
52.07
53.79
54.38
54.68
55.41
56.94
59.21
61.89
64.57
66.91
68.78
70.17
71.1
71.43
70.9
69.12
65.74
60.63
54.01
46.48
38.84
31.85
25.91
20.92
16.29
11.25
5.18
-2.15
-10.47
-19.11
-27.29
-34.39
-40.23
-45.15
-49.98
-55.87
-63.94
-74.86
-88.46
-103.37
-117.24
-127.09
-130.24
-125.08
-111.71
-91.89
-68.5
-44.65
-22.74
-3.99
11.53
24.44
35.49
45.02
52.96
59.0
63.02
65.24
66.32
67.03
67.97
69.35
70.93
72.34
73.26
73.68
73.76
73.73
73.67
73.45
72.78
71.26
68.64
64.81
59.86
54.04
47.73
41.32
35.18
29.52
24.34
19.43
14.42
8.97
2.86
-3.89
-11.07
-18.32
-25.3
-31.83
-37.95
-44.02
-50.58
-58.31
-67.8
-79.35
-92.6
-106.34
-118.53
-126.61
-128.25
-122.03
-108.07
-88.02
-64.64
-40.9
-19.17
-0.74
14.2
26.13
35.7
43.31
49.13
53.25
55.86
57.48
58.69
60.0
61.66
63.61
65.53
67.15
68.27
68.87
68.99
68.65
67.82
66.39
64.26
61.3
57.47
52.8
47.45
41.71
35.97
30.54
25.61
21.15
16.95
12.7
8.12
3.08
-2.46
-8.38
-14.55
-20.73
-26.77
-32.54
-38.07
-43.56
-49.43
-56.19
-64.34
-74.16
-85.46
-97.33
-108.14
-115.68
-117.72
-112.73
-100.44
-82.08
-60.09
-37.29
-16.13
1.92
16.43
27.66
36.06
41.88
45.23
46.24
45.43
43.7
42.18
41.83
43.03
45.51
48.55
51.36
53.46
54.82
55.71
56.36
56.72
56.36
54.7
51.31
46.24
39.95
33.26
26.92
21.34
16.45
11.68
6.35
-0.08
-7.61
-15.73
-23.59
-30.43
-35.94
-40.44
-44.79
-50.0
-56.94
-66.06
-77.22
-89.59
-101.68
-111.37
-116.33
-114.61
-105.37
-89.31
-68.6
-46.18
-24.86
-6.49
8.36
20.07
29.45
37.13
43.35
48.06
51.23
53.09
54.1
54.88
55.91
57.41
59.26
61.18
62.88
64.13
64.85
65.06
64.78
63.97
62.51
60.25
57.11
53.07
48.25
42.83
37.09
31.3
25.73
20.59
15.97
11.77
7.75
3.53
-1.3
-7.03
-13.69
-20.97
-28.34
-35.24
-41.29
-46.55
-51.52
-56.99
-63.81
-72.61
-83.57
-96.16
-109.05
-120.2
-127.15
-127.65
-120.47
-105.82
-85.54
-62.51
-39.73
-19.42
-2.6
10.88
21.75
30.74
38.28
44.41
49.11
52.48
54.83
56.58
58.12
59.68
61.26
62.75
64.01
64.96
65.64
66.14
66.51
66.67
66.39
65.36
63.3
60.16
56.15
51.69
47.19
42.86
38.65
34.29
29.51
24.27
18.83
13.6
8.97
5.01
1.47
-2.22
-6.67
-12.28
-19.13
-26.88
-34.94
-42.71
-49.7
-55.83
-61.37
-66.95
-73.45
-81.63
-91.83
-103.59
-115.42
-124.95
-129.53
-127.01
-116.55
-99.04
-76.88
-53.21
-30.92
-11.92
3.2
14.84
23.81
30.86
36.35
40.34
42.89
44.29
45.08
45.87
47.06
48.72
50.61
52.39
53.88
55.17
56.51
58.03
59.57
60.62
60.56
58.98
55.9
51.67
46.86
41.94
37.13
32.49
27.93
23.42
19.01
14.74
10.67
6.82
3.1
-0.64
-4.64
-9.15
-14.36
-20.24
-26.51
-32.73
-38.51
-43.74
-48.72
-54.05
-60.45
-68.49
-78.29
-89.38
-100.5
-109.75
-114.9
-113.93
-105.78
-90.81
-70.83
-48.56
-26.84
-7.79
7.56
19.21
27.64
33.4
36.86
38.31
38.15
37.05
35.89
35.51
36.4
38.54
41.41
44.28
46.57
48.01
48.78
49.27
49.83
50.52
51.07
50.89
49.43
46.37
41.86
36.52
31.23
26.78
23.54
21.22
18.97
15.68
10.42
2.84
-6.64
-17.03
-27.12
-35.96
-43.17
-49.03
-54.27
-59.9
-66.89
-75.86
-86.93
-99.41
-111.77
-121.82
-127.09
-125.65
-116.74
-101.1
-80.82
-58.63
-37.18
-18.29
-2.79
9.34
18.54
25.34
30.1
33.11
34.68
35.21
35.21
35.2
35.62
36.72
38.56
41.02
43.84
46.74
49.39
51.54
52.98
53.58
53.28
52.09
50.0
47.0
43.07
38.26
32.79
27.03
21.46
16.45
12.14
8.31
4.55
0.36
-4.61
-10.45
-16.99
-23.87
-30.71
-37.25
-43.46
-49.53
-55.88
-63.09
-71.76
-82.32
-94.74
-108.24
-121.19
-131.28
-136.14
-133.94
-124.15
-107.71
-86.77
-64.01
-41.93
-22.18
-5.47
8.23
19.37
28.4
35.66
41.32
45.54
48.55
50.72
52.52
54.38
56.54
59.01
61.61
64.05
66.13
67.74
68.88
69.54
69.64
69.03
67.55
65.17
62.04
58.38
54.45
50.33
45.98
41.28
36.12
30.53
24.72
18.9
13.3
8.0
2.92
-2.16
-7.49
-13.24
-19.42
-25.86
-32.28
-38.53
-44.64
-51.0
-58.24
-67.03
-77.7
-89.9
-102.35
-113.01
-119.44
-119.58
-112.42
-98.36
-79.21
-57.59
-36.16
-16.87
-0.64
12.54
23.15
31.69
38.44
43.44
46.77
48.72
49.88
50.9
52.28
54.24
56.59
58.99
61.1
62.77
64.03
65.05
65.92
66.57
66.78
66.18
64.45
61.37
56.95
51.44
45.31
39.09
33.18
27.75
22.67
17.56
12.04
5.86
-0.96
-8.14
-15.28
-21.97
-28.01
-33.39
-38.33
-43.25
-48.71
-55.27
-63.44
-73.43
-84.93
-96.87
-107.46
-114.47
-115.8
-110.15
-97.51
-79.27
-57.79
-35.76
-15.4
1.97
16.02
27.1
35.74
42.27
46.75
49.18
49.77
49.16
48.31
48.23
49.56
52.31
55.91
59.54
62.5
64.51
65.65
66.19
66.31
65.84
64.37
61.44
56.82
50.69
43.65
36.52
30.07
24.65
20.09
15.76
10.83
4.7
-2.81
-11.28
-19.96
-28.02
-34.93
-40.65
-45.58
-50.54
-56.47
-64.34
-74.77
-87.71
-102.15
-115.98
-126.37
-130.52
-126.64
-114.58
-95.97
-73.59
-50.46
-28.93
-10.18
5.62
18.89
30.11
39.53
47.08
52.63
56.23
58.17
59.04
59.54
60.23
61.42
62.98
64.51
65.53
65.76
65.29
64.45
63.71
63.24
62.83
61.88
59.7
55.87
50.46
44.03
37.34
31.07
25.52
20.57
15.76
10.58
4.56
-2.46
-10.32
-18.54
-26.53
-33.82
-40.21
-45.97
-51.69
-58.12
-65.95
-75.58
-87.02
-99.69
-112.33
-123.0
-129.36
-129.23
-121.4
-106.16
-85.35
-61.78
-38.31
-17.06
1.05
16.08
28.52
38.8
47.05
53.26
57.5
60.17
61.96
63.57
65.51
67.95
70.67
73.31
75.51
77.05
77.91
78.15
77.88
77.1
75.72
73.56
70.49
66.45
61.53
55.92
49.93
43.82
37.82
32.03
26.45
20.96
15.36
9.43
2.96
-4.04
-11.4
-18.77
-25.74
-32.1
-37.86
-43.36
-49.16
-55.84
-63.97
-73.84
-85.46
-98.23
-110.91
-121.53
-127.76
-127.51
-119.65
-104.58
-84.21
-61.44
-39.18
-19.53
-3.24
10.02
21.07
30.57
38.65
45.05
49.49
52.07
53.37
54.27
55.47
57.28
59.51
61.72
63.46
64.52
64.95
64.94
64.64
64.0
62.74
60.45
56.75
51.53
45.14
38.26
31.69
26.05
21.48
17.63
13.81
9.36
3.91
-2.45
-9.3
-16.11
-22.42
-28.02
-33.01
-37.79
-43.05
-49.58
-58.12
-69.02
-81.89
-95.44
-107.57
-115.84
-118.09
-113.11
-101.02
-83.31
-62.32
-40.67
-20.51
-3.18
10.92
22.04
30.69
37.32
42.13
45.17
46.63
47.02
47.09
47.69
49.38
52.18
55.62
58.92
61.46
63.0
63.71
63.87
63.67
62.98
61.42
58.58
54.24
48.54
41.9
34.9
28.11
21.86
16.24
11.0
5.66
-0.27
-7.08
-14.73
-22.81
-30.73
-37.99
-44.4
-50.19
-55.91
-62.26
-69.99
-79.69
-91.59
-105.25
-119.29
-131.42
-138.81
-138.99
-130.68
-114.41
-92.42
-67.87
-43.8
-22.29
-4.13
10.84
23.22
33.48
41.8
48.17
52.65
55.53
57.32
58.62
59.9
61.44
63.22
65.04
66.66
67.85
68.51
68.68
68.46
67.92
66.99
65.42
62.91
59.25
54.44
48.76
42.7
36.78
31.36
26.52
22.16
18.0
13.75
9.14
3.98
-1.81
-8.15
-14.83
-21.58
-28.11
-34.35
-40.41
-46.67
-53.67
-62.04
-72.31
-84.64
-98.49
-112.36
-123.87
-130.29
-129.32
-120.01
-103.19
-81.27
-57.4
-34.4
-14.07
3.06
17.31
29.22
39.11
46.93
52.55
56.02
57.75
58.49
59.02
59.94
61.48
63.53
65.77
67.84
69.51
70.69
71.42
71.74
71.55
70.62
68.61
65.28
60.61
54.83
48.33
41.49
34.57
27.67
20.88
14.36
8.27
2.71
-2.46
-7.6
-13.13
-19.26
-25.87
-32.56
-38.83
-44.43
-49.38
-54.09
-59.09
-65.05
-72.61
-82.34
-94.45
-108.32
-122.36
-133.98
-140.29
-139.01
-129.34
-112.27
-90.26
-66.35
-43.22
-22.66
-5.37
8.66
19.73
28.14
34.09
37.8
39.62
40.17
40.24
40.59
41.81
44.09
47.15
50.47
53.49
55.93
57.83
59.4
60.79
61.89
62.28
61.43
58.94
54.81
49.44
43.47
37.56
32.11
27.18
22.46
17.51
11.84
5.24
-2.19
-9.98
-17.47
-24.08
-29.62
-34.44
-39.39
-45.58
-54.01
-65.14
-78.61
-93.04
-106.23
-115.51
-118.42
-113.41
-100.42
-80.96
-57.73
-33.77
-11.7
7.04
22.08
33.87
43.02
49.92
54.66
57.3
58.15
57.87
57.36
57.39
58.38
60.2
62.38
64.38
65.85
66.74
67.2
67.39
67.29
66.57
64.78
61.43
56.3
49.51
41.61
33.39
25.68
18.97
13.26
8.09
2.72
-3.51
-10.92
-19.31
-28.08
-36.49
-43.95
-50.31
-55.9
-61.43
-67.91
-76.3
-87.27
-100.85
-116.05
-130.88
-142.52
-148.04
-145.3
-133.63
-114.19
-89.57
-63.05
-37.59
-15.15
3.63
19.08
32.0
43.05
52.43
59.95
65.36
68.63
70.23
71.01
71.86
73.33
75.44
77.73
79.59
80.67
81.03
80.99
80.86
80.64
79.96
78.26
75.12
70.45
64.51
57.79
50.76
43.76
37.03
30.7
24.84
19.37
14.03
8.44
2.19
-4.93
-12.83
-21.2
-29.6
-37.68
-45.29
-52.51
-59.7
-67.48
-76.57
-87.63
-100.84
-115.47
-129.73
-140.93
-146.23
-143.48
-131.99
-112.84
-88.5
-62.1
-36.43
-13.41
6.24
22.68
36.44
47.99
57.44
64.68
69.59
72.37
73.64
74.25
74.98
76.2
77.82
79.47
80.76
81.6
82.14
82.61
83.01
82.99
82.02
79.68
75.9
71.03
65.64
60.2
54.87
49.5
43.74
37.33
30.33
23.04
15.95
9.49
3.86
-1.1
-5.8
-10.8
-16.57
-23.28
-30.77
-38.6
-46.23
-53.35
-60.01
-66.67
-74.07
-83.0
-93.94
-106.74
-120.35
-132.77
-141.35
-143.43
-137.19
-122.4
-100.58
-74.66
-48.06
-23.62
-2.92
13.81
27.16
37.87
46.28
52.33
55.85
57.01
56.5
55.39
54.72
55.11
56.61
58.74
60.91
62.62
63.72
64.34
64.69
64.87
64.7
63.79
61.63
57.83
52.35
45.56
38.18
31.04
24.8
19.65
15.29
11.07
6.24
0.32
-6.7
-14.42
-22.13
-29.2
-35.31
-40.58
-45.57
-51.08
-57.97
-66.86
-77.99
-90.92
-104.37
-116.25
-123.96
-125.07
-118.12
-103.2
-82.01
-57.47
-32.73
-10.32
8.43
23.31
34.89
43.89
50.81
55.89
59.21
60.91
61.32
60.96
60.44
60.21
60.6
61.63
63.14
64.91
66.64
68.14
69.16
69.49
68.95
67.37
64.68
60.87
56.03
50.32
43.95
37.15
30.24
23.58
17.41
11.84
6.73
1.75
-3.47
-9.25
-15.75
-22.9
-30.49
-38.19
-45.65
-52.57
-58.93
-64.99
-71.38
-78.91
-88.25
-99.61
-112.33
-124.74
-134.41
-138.71
-135.52
-124.04
-105.12
-81.1
-55.14
-30.27
-8.54
9.26
23.42
34.68
43.69
50.77
55.96
59.34
61.24
62.22
62.9
63.71
64.75
65.9
66.93
67.72
68.27
68.72
69.13
69.48
69.53
68.96
67.44
64.73
60.88
56.13
50.9
45.56
40.33
35.23
30.19
25.12
20.06
15.11
10.42
5.92
1.34
-3.69
-9.54
-16.3
-23.75
-31.41
-38.74
-45.4
-51.41
-57.14
-63.18
-70.21
-78.82
-89.34
-101.56
-114.44
-126.01
-133.63
-134.66
-127.42
-111.91
-90.03
-64.97
-40.14
-18.14
-0.12
14.07
25.28
34.35
41.67
47.28
51.08
53.18
54.02
54.2
54.29
54.65
55.37
56.38
57.55
58.81
60.09
61.36
62.51
63.31
63.44
62.58
60.55
57.41
53.47
49.15
44.77
40.42
35.94
31.07
25.68
19.91
14.18
8.96
4.47
0.61
-3.09
-7.24
-12.34
-18.51
-25.45
-32.62
-39.35
-45.19
-50.1
-54.45
-59.0
-64.7
-72.38
-82.42
-94.49
-107.32
-118.77
-126.18
-127.14
-120.19
-105.45
-84.68
-60.79
-36.92
-15.55
2.04
15.71
26.0
33.54
38.66
41.5
42.22
41.39
39.89
38.8
38.93
40.54
43.31
46.49
49.37
51.42
52.51
52.79
52.49
51.77
50.66
49.01
46.61
43.24
38.8
33.45
27.6
21.79
16.47
11.8
7.54
3.18
-1.81
-7.72
-14.41
-21.44
-28.22
-34.3
-39.59
-44.41
-49.48
-55.74
-64.06
-75.01
-88.48
-103.44
-117.88
-129.11
-134.46
-132.0
-121.29
-103.56
-81.3
-57.55
-34.96
-15.26
0.93
13.82
23.99
32.02
38.3
43.06
46.52
48.93
50.65
52.02
53.32
54.67
56.03
57.27
58.27
59.0
59.56
60.08
60.7
61.25
61.38
60.51
58.14
54.0
48.2
41.19
33.62
26.14
19.26
13.22
7.99
3.24
-1.55
-6.94
-13.36
-20.88
-29.17
-37.65
-45.67
-52.85
-59.17
-65.01
-71.04
-78.11
-87.05
-98.4
-112.04
-126.8
-140.4
-149.83
-152.19
-145.69
-130.39
-108.25
-82.39
-56.14
-32.06
-11.48
5.36
18.89
29.71
38.34
45.15
50.41
54.42
57.48
59.92
62.02
63.98
65.94
68.0
70.2
72.54
75.0
77.48
79.74
81.51
82.41
82.12
80.45
77.39
73.19
68.16
62.67
56.99
51.34
45.76
40.29
34.91
29.59
24.23
18.65
12.58
5.8
-1.84
-10.22
-18.98
-27.64
-35.77
-43.15
-49.96
-56.7
-64.15
-73.12
-84.21
-97.43
-111.91
-125.75
-136.28
-140.62
-136.67
-123.83
-103.35
-78.01
-51.26
-26.1
-4.41
13.29
27.42
38.73
47.78
54.76
59.67
62.56
63.84
64.25
64.62
65.54
67.23
69.49
71.88
73.96
75.43
76.23
76.41
76.06
75.22
73.8
71.62
68.5
64.26
58.9
52.62
45.77
38.82
32.19
26.07
20.43
15.03
9.6
3.88
-2.24
-8.77
-15.58
-22.45
-29.09
-35.3
-40.99
-46.36
-51.96
-58.58
-67.06
-77.94
-91.06
-105.32
-118.63
-128.26
-131.54
-126.64
-113.26
-92.79
-67.97
-42.07
-17.94
2.63
19.1
31.79
41.31
48.13
52.43
54.29
54.03
52.39
50.45
49.3
49.71
51.85
55.28
59.23
62.88
65.64
67.33
68.05
68.06
67.5
66.29
64.13
60.69
55.79
49.56
42.5
35.26
28.48
22.49
17.23
12.3
7.13
1.26
-5.48
-12.94
-20.74
-28.36
-35.47
-41.93
-47.96
-54.04
-60.87
-69.24
-79.82
-92.89
-107.96
-123.47
-136.91
-145.26
-145.85
-137.31
-120.03
-96.2
-69.04
-41.84
-17.12
3.89
21.04
34.85
45.95
54.75
61.48
66.29
69.47
71.46
72.77
73.85
74.91
75.95
76.88
77.63
78.2
78.69
79.07
79.2
78.81
77.62
75.46
72.39
68.59
64.25
59.54
54.48
49.06
43.28
37.18
30.87
24.46
18.12
11.92
5.92
0.02
-5.99
-12.36
-19.22
-26.53
-34.03
-41.41
-48.5
-55.42
-62.58
-70.6
-80.09
-91.47
-104.74
-119.21
-133.4
-144.98
-151.2
-149.64
-139.11
-120.19
-95.17
-67.38
-40.1
-15.65
4.97
21.89
35.72
47.03
56.05
62.74
67.14
69.58
70.69
71.24
71.91
73.05
74.64
76.49
78.36
80.08
81.64
83.01
84.02
84.4
83.74
81.72
78.25
73.55
68.15
62.6
57.35
52.47
47.7
42.59
36.74
30.1
23.04
16.17
10.06
4.9
0.45
-3.94
-8.96
-15.1
-22.42
-30.68
-39.38
-47.99
-56.04
-63.4
-70.3
-77.46
-85.91
-96.53
-109.53
-123.94
-137.54
-147.31
-150.3
-144.58
-129.94
-107.98
-81.64
-54.3
-28.92
-7.37
9.69
22.54
31.92
38.53
42.84
45.14
45.78
45.34
44.64
44.49
45.39
47.34
49.94
52.64
55.0
56.79
58.02
58.78
59.11
58.91
57.95
56.01
52.89
48.54
43.09
36.91
30.51
24.42
19.02
14.31
9.92
5.27
-0.17
-6.61
-13.85
-21.4
-28.69
-35.33
-41.25
-46.73
-52.34
-58.85
-67.04
-77.58
-90.54
-105.15
-119.5
-130.86
-136.25
-133.45
-121.75
-102.29
-77.71
-51.32
-26.06
-3.89
14.41
28.99
40.38
49.05
55.3
59.31
61.35
61.85
61.48
60.95
60.87
61.56
63.04
65.1
67.41
69.68
71.68
73.26
74.24
74.36
73.35
70.97
67.18
62.13
56.14
49.58
42.77
35.99
29.46
23.37
17.72
12.27
6.46
-0.27
-8.29
-17.42
-27.03
-36.23
-44.31
-51.04
-56.72
-62.1
-68.04
-75.44
-85.05
-97.27
-111.84
-127.52
-141.96
-152.07
-154.84
-148.38
-132.62
-109.44
-82.06
-54.02
-28.24
-6.35
11.34
25.36
36.63
45.85
53.41
59.37
63.76
66.74
68.65
70.0
71.23
72.55
73.97
75.32
76.47
77.34
77.92
78.19
78.02
77.22
75.61
73.09
69.65
65.4
60.45
54.98
49.18
43.28
37.49
31.96
26.78
21.9
17.2
12.51
7.62
2.25
-3.85
-10.85
-18.7
-27.07
-35.47
-43.46
-50.8
-57.69
-64.7
-72.64
-82.31
-94.14
-107.86
-122.19
-134.88
-143.06
-144.08
-136.35
-120.08
-97.26
-71.14
-45.12
-21.79
-2.4
13.07
25.3
35.03
42.68
48.33
52.0
53.94
54.68
54.92
55.31
56.22
57.69
59.54
61.52
63.44
65.23
66.89
68.32
69.34
69.62
68.8
66.65
63.18
58.67
53.53
48.18
42.87
37.65
32.44
27.15
21.87
16.7
11.71
6.74
1.47
-4.5
-11.34
-18.94
-26.91
-34.82
-42.37
-49.55
-56.59
-63.9
-71.96
-81.29
-92.26
-104.82
-118.11
-130.31
-138.86
-141.1
-135.24
-121.08
-100.13
-75.17
-49.38
-25.42
-4.87
11.77
24.74
34.58
41.79
46.72
49.66
50.97
51.23
51.08
51.19
51.98
53.54
55.59
57.71
59.56
61.03
62.18
63.06
63.51
63.12
61.3
57.67
52.23
45.46
38.18
31.22
25.07
19.79
14.97
10.01
4.3
-2.48
-10.28
-18.63
-26.84
-34.27
-40.58
-46.0
-51.33
-57.75
-66.42
-78.01
-92.31
-107.98
-122.63
-133.3
-137.13
-132.28
-118.48
-97.21
-71.3
-44.11
-18.5
3.73
22.06
36.76
48.38
57.26
63.43
66.91
67.98
67.39
66.2
65.44
65.76
67.2
69.31
71.46
73.12
74.1
74.47
74.46
74.19
73.54
72.13
69.49
65.28
59.4
52.2
44.25
36.27
28.76
21.94
15.65
9.48
2.94
-4.38
-12.57
-21.37
-30.24
-38.55
-45.82
-51.99
-57.53
-63.36
-70.62
-80.31
-92.92
-108.1
-124.45
-139.63
-150.67
-154.7
-149.72
-135.29
-112.81
-85.15
-55.91
-28.31
-4.4
15.18
30.92
43.72
54.33
63.05
69.8
74.48
77.28
78.71
79.46
80.16
81.1
82.29
83.53
84.59
85.33
85.72
85.79
85.48
84.66
83.11
80.57
76.84
71.86
65.77
58.87
51.53
44.16
37.09
30.52
24.52
19.0
13.63
8.0
1.67
-5.68
-14.03
-23.03
-32.06
-40.52
-48.08
-54.88
-61.5
-68.82
-77.73
-88.91
-102.46
-117.7
-132.98
-145.73
-152.88
-151.76
-140.89
-120.7
-93.55
-63.12
-33.27
-6.97
14.33
30.7
43.11
52.68
60.17
65.79
69.51
71.36
71.72
71.26
70.77
70.8
71.55
72.81
74.21
75.41
76.26
76.74
76.87
76.58
75.68
73.89
71.03
67.12
62.33
56.94
51.17
45.18
39.01
32.74
26.48
20.41
14.65
9.16
3.66
-2.21
-8.75
-16.02
-23.76
-31.52
-38.87
-45.6
-51.85
-58.02
-64.72
-72.64
-82.42
-94.47
-108.5
-123.21
-136.19
-144.31
-144.62
-135.48
-117.19
-92.06
-63.62
-35.43
-10.16
10.88
27.51
40.12
49.2
55.08
58.05
58.55
57.33
55.37
53.72
53.19
54.12
56.32
59.19
62.0
64.15
65.41
65.9
65.9
65.54
64.59
62.55
58.84
53.18
45.78
37.37
28.9
21.17
14.58
8.99
3.76
-1.91
-8.62
-16.6
-25.52
-34.71
-43.37
-50.98
-57.46
-63.31
-69.48
-77.03
-86.88
-99.46
-114.34
-130.05
-144.04
-153.13
-154.32
-145.76
-127.52
-101.71
-71.88
-41.92
-14.89
7.59
25.28
38.85
49.15
56.79
62.03
65.04
66.17
66.05
65.51
65.35
66.06
67.66
69.78
71.86
73.37
74.07
74.0
73.4
72.48
71.29
69.6
67.07
63.37
58.36
52.15
45.06
37.48
29.82
22.4
15.36
8.75
2.43
-3.86
-10.46
-17.64
-25.51
-33.85
-42.24
-50.16
-57.23
-63.47
-69.34
-75.67
-83.44
-93.53
-106.36
-121.53
-137.6
-151.95
-161.32
-162.59
-153.83
-135.15
-108.77
-78.41
-48.06
-20.81
1.78
19.64
33.53
44.33
52.56
58.43
62.05
63.76
64.2
64.18
64.37
65.12
66.47
68.19
70.05
71.92
73.75
75.52
77.09
78.14
78.29
77.2
74.7
70.9
66.03
60.41
54.31
47.97
41.58
35.35
29.49
24.01
18.73
13.26
7.16
0.14
-7.84
-16.47
-25.32
-33.9
-41.91
-49.21
-55.93
-62.44
-69.33
-77.42
-87.56
-100.25
-115.23
-130.99
-144.86
-153.54
-154.03
-144.69
-125.89
-99.91
-70.26
-40.58
-13.7
8.87
26.81
40.59
50.83
58.02
62.45
64.35
64.16
62.64
60.74
59.4
59.23
60.31
62.19
64.15
65.6
66.28
66.41
66.23
65.85
64.9
62.68
58.51
52.18
44.13
35.38
27.14
20.29
15.08
11.02
7.17
2.56
-3.46
-10.91
-19.26
-27.58
-34.96
-40.91
-45.59
-49.8
-54.73
-61.65
-71.43
-84.27
-99.37
-114.88
-128.02
-135.62
-134.97
-124.68
-105.33
-79.44
-50.69
-22.83
1.4
20.82
35.56
46.47
54.41
59.9
