0
20.21
16.42
12.42
8.16
3.77
-0.51
-4.5
-8.14
-11.57
-15.11
-19.13
-23.88
-29.44
-35.63
-42.12
-48.58
-54.73
-60.5
-66.05
-71.77
-78.24
-86.0
-95.26
-105.58
-115.62
-123.35
-126.55
-123.49
-113.62
-97.76
-77.83
-56.28
-35.31
-16.48
-0.57
12.29
22.35
30.06
35.94
40.5
44.18
47.27
49.85
51.9
53.35
54.22
54.65
54.87
55.16
55.77
56.92
58.71
61.07
63.71
66.17
67.92
68.55
67.86
65.94
63.02
59.43
55.44
51.31
47.28
43.49
40.01
36.77
33.63
30.5
27.34
24.24
21.3
18.54
15.91
13.3
10.63
7.85
4.91
1.69
-1.93
-6.0
-10.44
-15.02
-19.47
-23.66
-27.69
-31.81
-36.26
-41.16
-46.41
-51.79
-57.08
-62.14
-66.95
-71.56
-76.13
-81.01
-86.66
-93.7
-102.53
-112.99
-124.03
-133.63
-139.25
-138.58
-130.33
-114.84
-93.94
-70.42
-47.11
-26.15
-8.57
5.59
16.84
25.85
33.16
39.06
43.72
47.27
49.83
51.55
52.61
53.21
53.57
53.92
54.56
55.72
57.58
60.12
63.13
66.17
68.68
70.14
70.22
68.9
66.38
62.98
59.08
55.03
51.11
47.56
44.46
41.71
39.09
36.32
33.26
29.94
26.61
23.52
20.84
18.51
16.36
14.18
11.82
9.25
6.44
3.35
-0.11
-3.99
-8.23
-12.71
-17.24
-21.76
-26.3
-31.05
-36.24
-42.02
-48.39
-55.13
-61.91
-68.3
-74.04
-79.06
-83.66
-88.44
-94.13
-101.37
-110.3
-120.34
-130.08
-137.46
-140.23
-136.61
-125.82
-108.4
-86.18
-61.71
-37.65
-16.1
1.79
15.78
26.36
34.3
40.35
45.01
48.57
51.19
53.02
54.29
55.26
56.18
57.19
58.37
59.76
61.4
63.38
65.69
68.22
70.66
72.61
73.67
73.56
72.24
69.84
66.66
63.01
59.17
55.31
51.5
47.68
43.79
39.72
35.48
31.15
26.9
22.92
19.38
16.3
13.58
10.97
8.16
4.86
0.92
-3.62
-8.52
-13.5
-18.36
-23.15
-28.12
-33.61
-39.85
-46.71
-53.8
-60.57
-66.55
-71.66
-76.2
-80.85
-86.45
-93.76
-103.07
-113.88
-124.69
-133.21
-136.84
-133.53
-122.51
-104.61
-82.03
-57.6
-33.9
-12.74
5.05
19.35
30.45
38.79
44.89
49.32
52.65
55.38
57.77
59.94
61.86
63.48
64.82
65.97
67.06
68.22
69.6
71.32
73.42
75.8
78.11
79.86
80.57
79.92
77.91
74.81
71.06
67.07
63.11
59.27
55.5
51.69
47.79
43.81
39.84
36.06
32.65
29.7
27.2
25.0
22.84
20.53
17.99
15.32
12.67
10.12
7.57
4.74
1.37
-2.67
-7.25
-12.03
-16.64
-20.84
-24.69
-28.47
-32.62
-37.47
-43.14
-49.48
-56.1
-62.56
-68.47
-73.7
-78.37
-82.9
-87.91
-94.06
-101.91
-111.62
-122.74
-133.98
-143.32
-148.34
-146.94
-137.99
-121.79
-100.04
-75.42
-50.7
-28.11
-8.9
6.63
18.84
28.34
35.67
41.3
45.53
48.68
51.07
52.97
54.6
56.05
57.37
58.58
59.75
61.03
62.63
64.68
67.2
70.0
72.67
74.67
75.55
75.04
73.21
70.41
67.16
63.87
60.77
57.78
54.67
51.23
47.32
43.05
38.59
34.17
29.98
26.19
22.86
19.99
17.46
15.02
12.34
9.16
5.39
1.16
-3.25
-7.55
-11.56
-15.33
-19.08
-23.12
-27.71
-33.01
-39.06
-45.7
-52.64
-59.47
-65.82
-71.46
-76.49
-81.39
-86.93
-93.95
-102.97
-113.76
-125.1
-134.86
-140.43
-139.42
-130.48
-113.8
-91.07
-65.12
-39.01
-15.28
4.55
20.04
31.56
39.86
45.74
49.84
52.67
54.59
55.93
57.01
58.03
59.14
60.36
61.64
62.88
64.1
65.37
66.89
68.82
71.16
73.68
75.88
77.17
77.09
75.47
72.52
68.75
64.73
60.81
57.1
53.38
49.34
44.73
39.61
34.32
29.34
25.16
21.98
19.64
17.68
15.47
12.5
8.55
3.77
-1.35
-6.27
-10.6
-14.32
-17.78
-21.56
-26.2
-31.97
-38.79
-46.25
-53.81
-61.02
-67.65
-73.73
-79.55
-85.6
-92.5
-100.86
-110.91
-122.17
-133.24
-141.82
-145.3
-141.57
-129.8
-110.75
-86.61
-60.32
-34.7
-11.88
6.97
21.61
32.38
40.05
45.51
49.62
53.02
56.04
58.67
60.77
62.19
62.98
63.39
63.71
64.2
65.03
66.21
67.74
69.53
71.39
72.97
73.84
73.61
72.14
69.59
66.37
62.96
59.75
56.9
54.35
51.9
49.29
46.36
43.07
39.55
36.07
32.95
30.39
28.42
26.9
25.54
24.02
22.16
19.9
17.34
14.68
12.08
9.62
7.18
4.51
1.32
-2.59
-7.17
-12.1
-16.93
-21.28
-25.14
-28.84
-32.98
-38.07
-44.29
-51.38
-58.73
-65.71
-71.89
-77.28
-82.26
-87.48
-93.63
-101.33
-110.86
-121.89
-133.27
-142.98
-148.44
-147.2
-137.86
-120.6
-97.29
-70.88
-44.53
-20.73
-0.83
14.86
26.72
35.4
41.56
45.81
48.75
50.98
52.92
54.8
56.61
58.16
59.28
59.94
60.33
60.81
61.72
63.27
65.36
67.64
69.61
70.7
70.57
69.13
66.53
63.17
59.45
55.68
52.01
48.45
44.9
41.26
37.44
33.43
29.25
24.96
20.69
16.56
12.64
8.94
5.41
1.96
-1.49
-4.98
-8.52
-12.19
-16.1
-20.45
-25.33
-30.7
-36.35
-41.99
-47.39
-52.54
-57.69
-63.28
-69.88
-78.0
-87.88
-99.27
-111.17
-121.79
-128.81
-129.91
-123.54
-109.57
-89.43
-65.8
-41.74
-19.87
-1.72
12.36
22.9
30.78
36.85
41.69
45.61
48.76
51.17
52.87
53.85
54.21
54.13
53.9
53.84
54.26
55.35
57.17
59.67
62.65
65.76
68.51
70.34
70.77
69.62
67.04
63.5
59.57
55.71
52.11
48.72
45.36
41.81
37.97
33.85
29.52
25.13
20.87
16.94
13.46
10.42
7.63
4.84
1.78
-1.65
-5.42
-9.43
-13.66
-18.15
-23.06
-28.46
-34.34
-40.54
-46.87
-53.13
-59.2
-64.95
-70.34
-75.44
-80.59
-86.43
-93.8
-103.32
-114.86
-127.21
-138.07
-144.66
-144.56
-136.6
-121.2
-100.31
-76.63
-52.85
-30.99
-12.08
3.59
16.28
26.46
34.67
41.4
47.07
51.92
55.97
59.19
61.54
63.12
64.2
65.09
66.06
67.24
68.67
70.31
72.17
74.16
76.11
77.68
78.45
78.07
76.38
73.5
69.7
65.39
60.83
56.2
51.52
46.76
41.89
36.96
32.1
27.47
23.13
19.02
14.95
10.69
6.11
1.26
-3.61
-8.2
-12.41
-16.42
-20.62
-25.47
-31.23
-37.79
-44.77
-51.68
-58.12
-64.0
-69.46
-74.93
-81.03
-88.43
-97.67
-108.78
-120.97
-132.47
-140.73
-143.16
-137.95
-124.79
-105.01
-81.18
-56.3
-32.91
-12.6
4.1
17.46
28.19
37.07
44.7
51.47
57.5
62.68
66.84
69.85
71.75
72.76
73.28
73.68
74.27
75.2
76.55
78.28
80.3
82.34
84.0
84.75
84.14
81.93
78.19
73.32
67.85
62.31
57.05
52.17
47.62
43.25
38.9
34.44
29.82
25.03
20.12
15.14
10.21
5.47
1.05
-2.91
-6.47
-9.91
-13.67
-18.27
-24.04
-30.94
-38.55
-46.23
-53.41
-59.86
-65.78
-71.66
-78.15
-85.81
-94.99
-105.66
-117.22
-128.31
-136.84
-140.37
-136.83
-125.32
-106.6
-82.99
-57.67
-33.62
-12.87
3.91
17.16
27.91
37.21
45.74
53.75
61.08
67.39
72.3
75.56
77.2
77.56
77.18
76.65
76.41
76.68
77.44
78.56
79.84
81.04
81.89
82.06
81.22
79.16
75.88
71.65
66.96
62.35
58.23
54.71
51.62
48.56
45.19
41.38
37.26
33.21
29.63
26.77
24.59
22.8
20.99
18.82
16.19
13.26
10.38
7.85
5.77
3.94
1.85
-1.0
-4.91
-9.75
-15.01
-20.0
-24.2
-27.47
-30.1
-32.59
-35.47
-39.08
-43.57
-48.89
-54.83
-61.02
-67.0
-72.35
-76.91
-80.98
-85.34
-91.01
-98.71
-108.48
-119.29
-129.14
-135.56
-136.22
-129.71
-115.92
-96.18
-72.87
-48.79
-26.36
-7.18
8.28
20.32
29.74
37.32
43.63
48.99
53.6
57.53
60.89
63.7
65.94
67.53
68.44
68.74
68.63
68.38
68.28
68.5
69.09
69.93
70.73
71.12
70.7
69.21
66.57
62.93
58.64
54.06
49.53
45.2
41.13
37.28
33.62
30.16
26.98
24.17
21.81
19.82
18.0
16.03
13.62
10.57
6.89
2.75
-1.57
-5.7
-9.37
-12.46
-15.06
-17.61
-20.65
-24.7
-29.94
-36.1
-42.5
-48.34
-53.12
-56.76
-59.74
-62.77
-66.64
-71.96
-78.99
-87.52
-96.75
-105.27
-111.23
-112.83
-108.85
-99.15
-84.67
-67.19
-48.81
-31.38
-16.14
-3.65
6.18
13.9
20.21
25.75
30.89
35.57
39.47
42.28
43.88
44.5
44.58
44.56
44.72
45.12
45.76
46.66
47.86
49.34
50.94
52.29
52.95
52.56
50.98
48.33
44.92
41.15
37.42
34.03
31.12
28.67
26.47
24.21
21.62
18.61
15.37
12.37
10.14
9.06
9.1
9.89
10.84
11.39
11.27
10.44
9.06
7.21
4.9
2.08
-1.16
-4.55
-7.69
-10.24
-12.16
-13.67
-15.24
-17.26
-19.96
-23.29
-27.02
-30.85
-34.52
-37.95
-41.23
-44.62
-48.4
-52.74
-57.54
-62.52
-67.21
-71.36
-75.0
-78.51
-82.42
-87.31
-93.52
-101.12
-109.82
-118.82
-126.82
-132.07
-132.77
-127.71
-116.73
-100.92
-82.32
-63.25
-45.58
-30.38
-17.91
-7.88
0.16
6.72
12.2
16.9
21.02
24.65
27.82
30.55
32.97
35.26
37.62
40.11
42.68
45.21
47.71
50.22
52.81
55.43
57.78
59.45
60.07
59.5
57.95
55.83
53.57
51.4
49.3
47.06
44.46
41.46
38.19
34.91
31.85
29.14
26.74
24.6
22.69
21.02
19.59
18.29
16.94
15.33
13.32
10.91
8.25
5.45
2.53
-0.57
-4.02
-7.88
-12.07
-16.38
-20.59
-24.58
-28.44
-32.37
-36.62
-41.43
-46.88
-52.91
-59.28
-65.67
-71.8
-77.52
-82.93
-88.43
-94.59
-102.06
-111.22
-122.01
-133.7
-144.79
-153.25
-156.88
-153.92
-143.66
-126.71
-104.89
-80.77
-56.9
-35.26
-16.89
-1.93
10.02
19.65
27.61
34.37
40.21
45.24
49.49
52.96
55.72
57.89
59.67
61.3
63.07
65.23
67.95
71.26
74.98
78.76
82.08
84.4
85.31
84.71
82.73
79.77
76.31
72.74
69.28
65.98
62.73
59.37
55.85
52.19
48.51
44.89
41.37
37.94
34.6
31.42
28.51
25.91
23.49
20.96
17.96
14.28
9.89
5.02
-0.04
-5.02
-9.86
-14.6
-19.41
-24.5
-30.09
-36.35
-43.37
-50.99
-58.82
-66.26
-72.79
-78.3
-83.28
-88.75
-95.91
-105.6
-117.8
-131.39
-144.32
-153.94
-157.72
-153.85
-141.73
-122.16
-97.19
-69.61
-42.28
-17.49
3.4
20.02
32.79
42.52
50.08
56.16
61.22
65.51
69.1
72.0
74.23
75.86
77.1
78.26
79.72
81.82
84.68
88.21
91.98
95.46
98.09
99.45
99.38
97.94
95.33
91.84
87.85
83.76
79.88
76.41
73.26
70.17
66.77
62.84
58.43
53.83
49.44
45.57
42.38
39.79
37.62
35.58
33.44
30.97
28.13
25.01
21.87
18.99
16.53
14.35
12.07
9.26
5.65
1.31
-3.49
-8.37
-13.03
-17.42
-21.64
-25.91
-30.53
-35.81
-41.99
-49.18
-57.22
-65.69
-74.03
-81.79
-88.83
-95.44
-102.32
-110.32
-120.18
-132.13
-145.51
-158.66
-169.06
-173.81
-170.48
-157.96
-136.85
-109.42
-78.9
-48.59
-21.07
2.11
20.52
34.41
44.54
51.86
57.36
61.86
65.9
69.56
72.61
74.75
75.86
76.15
76.13
76.37
77.25
78.89
81.13
83.71
86.36
88.75
90.49
91.08
90.1
87.34
82.99
77.6
71.93
66.65
62.08
58.18
54.62
50.98
46.95
42.4
37.43
32.3
27.35
22.9
19.14
16.05
13.37
10.67
7.6
3.96
-0.21
-4.63
-9.02
-13.23
-17.32
-21.58
-26.35
-31.91
-38.37
-45.6
-53.27
-60.99
-68.39
-75.25
-81.65
-87.98
-94.93
-103.35
-113.84
-126.36
-139.87
-152.28
-160.77
-162.52
-155.62
-139.66
-116.0
-87.37
-57.07
-28.17
-2.87
17.81
33.82
45.79
54.6
61.13
66.07
69.85
72.72
74.78
76.1
76.81
77.09
77.19
77.39
77.95
78.99
80.5
82.35
84.28
85.99
87.13
87.44
86.66
84.67
81.48
77.29
72.47
67.43
62.57
58.06
53.83
49.6
45.03
39.98
34.53
29.06
23.96
19.57
15.96
12.95
10.17
7.24
3.85
-0.11
-4.61
-9.48
-14.43
-19.28
-23.97
-28.68
-33.75
-39.55
-46.3
-53.9
-62.0
-70.13
-77.9
-85.14
-91.94
-98.69
-106.0
-114.59
-125.0
-137.11
-149.8
-160.76
-167.0
-165.71
-155.27
-135.93
-109.75
-79.92
-49.79
-22.01
1.85
21.19
36.17
47.29
55.31
61.06
65.31
68.68
71.49
73.83
75.68
77.05
78.02
78.73
79.35
80.04
80.95
82.23
83.88
85.73
87.34
88.22
87.89
86.22
83.38
79.75
75.76
71.67
67.56
63.32
58.87
54.17
49.29
44.4
39.72
35.49
31.91
29.03
26.71
24.67
22.57
20.14
17.31
14.18
10.88
7.56
4.21
0.73
-2.99
-7.06
-11.5
-16.21
-21.12
-26.13
-31.23
-36.55
-42.27
-48.58
-55.51
-62.85
-70.18
-77.01
-83.05
-88.39
-93.53
-99.41
-107.02
-117.1
-129.67
-143.69
-157.01
-166.7
-169.8
-164.15
-149.14
-125.99
-97.43
-66.94
-37.78
-12.3
8.4
24.33
36.18
44.93
51.49
56.54
60.51
63.66
66.14
68.03
69.39
70.27
70.72
70.91
71.08
71.51
72.47
73.99
75.83
77.57
78.71
78.83
77.78
75.66
72.76
69.43
65.94
62.38
58.68
54.68
50.19
45.19
39.88
34.59
29.75
25.64
22.26
19.29
16.21
12.61
8.35
3.63
-1.17
-5.72
-9.98
-14.21
-18.86
-24.31
-30.73
-37.96
-45.63
-53.31
-60.6
-67.34
-73.61
-79.78
-86.51
-94.58
-104.59
-116.52
-129.42
-141.24
-149.23
-150.59
-143.48
-127.6
-104.46
-76.94
-48.49
-22.13
0.17
17.69
30.83
40.51
47.78
53.49
58.15
62.04
65.32
68.05
70.27
71.93
72.91
73.13
72.62
71.67
70.78
70.53
71.3
73.08
75.43
77.62
78.86
78.6
76.67
73.29
68.97
64.33
59.9
55.98
52.61
49.58
46.59
43.45
40.19
37.01
34.15
31.73
29.68
27.75
25.74
23.56
21.27
18.98
16.71
14.38
11.78
8.72
5.04
0.66
-4.44
-10.23
-16.52
-22.98
-29.14
-34.63
-39.34
-43.52
-47.72
-52.5
-58.14
-64.52
-71.23
-77.69
-83.51
-88.57
-93.16
-97.88
-103.56
-111.01
-120.74
-132.5
-145.0
-155.89
-162.23
-161.34
-151.74
-133.65
-109.02
-80.94
-52.69
-26.93
-5.28
11.8
24.67
34.22
41.43
47.21
52.2
56.74
60.82
64.28
66.95
68.74
69.78
70.31
70.62
71.0
71.69
72.82
74.4
76.22
77.89
78.91
78.82
77.41
74.82
71.42
67.71
64.13
60.89
57.98
55.2
52.3
49.06
45.41
41.43
37.33
33.43
29.95
27.01
24.53
22.3
20.09
17.72
15.05
12.0
8.43
4.27
-0.48
-5.64
-10.89
-15.91
-20.56
-25.0
-29.61
-34.8
-40.81
-47.58
-54.78
-61.95
-68.74
-74.9
-80.47
-85.72
-91.18
-97.57
-105.67
-115.88
-127.82
-139.99
-149.97
-154.95
-152.58
-141.81
-123.25
-99.05
-72.17
-45.64
-21.81
-2.01
13.52
25.36
34.42
41.68
47.8
53.08
57.51
60.94
63.34
64.85
65.73
66.32
66.84
67.45
68.24
69.29
70.65
72.25
73.9
75.25
75.91
75.6
74.26
72.03
69.15
65.85
62.3
58.55
54.62
50.5
46.19
41.71
37.07
32.34
27.64
23.11
18.85
14.85
11.02
7.18
3.23
-0.88
-5.17
-9.7
-14.68
-20.35
-26.84
-34.01
-41.46
-48.69
-55.29
-61.18
-66.66
-72.36
-79.05
-87.4
-97.73
-109.67
-121.95
-132.5
-138.79
-138.59
-130.69
-115.32
-94.17
-69.8
-45.0
-22.11
-2.57
13.01
24.85
33.64
40.32
45.81
50.74
55.38
59.66
63.34
66.23
68.32
69.82
71.0
72.12
73.34
74.71
76.21
77.78
79.32
80.68
81.64
81.99
81.48
79.97
77.42
73.98
70.01
65.9
62.01
58.49
55.26
52.04
48.57
44.73
40.64
36.6
32.94
29.86
27.36
25.3
23.5
21.76
19.95
17.94
15.65
13.03
10.15
7.21
4.39
1.87
-0.38
-2.47
-4.66
-7.18
-10.22
-13.84
-17.97
-22.44
-27.03
-31.53
-35.84
-40.01
-44.24
-48.77
-53.74
-59.15
-64.79
-70.36
-75.66
-80.59
-85.33
-90.24
-95.9
-102.95
-111.85
-122.5
-133.95
-144.3
-150.99
-151.51
-144.31
-129.34
-108.27
-83.85
-59.15
-36.59
-17.56
-2.35
9.47
18.64
25.97
32.11
37.54
42.51
47.01
50.83
53.8
55.87
57.22
58.24
59.27
60.53
62.1
63.97
66.09
68.43
70.77
72.76
73.86
73.65
71.99
69.1
65.48
61.61
57.82
54.14
50.41
46.49
42.35
38.06
33.79
29.66
25.84
22.47
19.68
17.48
15.74
14.12
12.22
9.73
6.57
2.84
-1.21
-5.36
-9.44
-13.31
-16.86
-20.04
-22.93
-25.81
-29.1
-33.24
-38.43
-44.56
-51.21
-57.85
-64.08
-69.78
-75.07
-80.3
-85.92
-92.46
-100.4
-109.87
-120.34
-130.38
-137.75
-140.0
-135.27
-123.06
-104.45
-81.87
-58.19
-35.96
-16.77
-1.16
11.06
20.48
27.74
33.4
37.95
41.78
45.2
48.3
51.1
53.49
55.39
56.81
57.89
58.87
59.99
61.44
63.33
65.59
68.0
70.19
71.77
72.42
71.99
70.49
68.11
65.04
61.51
57.73
53.93
50.35
47.14
44.3
41.69
39.09
36.36
33.53
30.78
28.29
26.11
24.07
22.02
19.87
17.73
15.8
14.24
13.01
11.85
10.46
8.59
6.19
3.36
0.28
-2.88
-5.99
-9.0
-11.99
-15.14
-18.62
-22.54
-26.74
-30.93
-34.76
-38.12
-41.25
-44.67
-48.89
-54.09
-59.99
-66.01
-71.62
-76.62
-81.26
-86.17
-92.05
-99.5
-108.74
-119.52
-130.86
-141.05
-147.85
-148.95
-142.78
-129.09
-109.09
-85.19
-60.18
-36.49
-15.74
1.37
14.79
24.83
32.03
37.04
40.6
43.42
46.04
48.64
51.15
53.33
54.99
56.11
56.88
57.66
58.82
60.65
63.26
66.49
69.97
73.18
75.57
76.71
76.41
74.77
72.11
68.85
65.39
62.02
58.87
55.92
53.06
50.13
46.97
43.56
40.01
36.61
33.67
31.45
29.96
28.96
28.06
26.89
25.24
23.13
20.69
18.06
15.34
12.55
9.74
7.0
4.36
1.78
-0.96
-4.13
-7.94
-12.44
-17.48
-22.73
-27.9
-32.72
-37.11
-41.17
-45.14
-49.36
-54.12
-59.54
-65.46
-71.52
-77.33
-82.7
-87.86
-93.43
-100.22
-108.92
-119.68
-131.79
-143.59
-152.71
-156.6
-153.31
-142.08
-123.7
-100.31
-74.69
-49.53
-26.8
-7.53
8.04
20.11
29.07
35.44
39.88
43.15
45.97
48.84
51.86
54.76
57.14
58.75
59.67
60.34
61.36
63.19
65.97
69.44
73.1
76.36
78.77
80.07
80.18
79.17
77.18
74.35
70.88
66.97
62.81
58.58
54.43
50.45
46.7
43.16
39.72
36.28
32.79
29.31
26.03
23.17
20.82
18.88
17.0
14.74
11.71
7.81
3.18
-1.82
-6.8
-11.49
-15.87
-20.17
-24.78
-30.06
-36.22
-43.16
-50.53
-57.81
-64.59
-70.68
-76.22
-81.7
-87.83
-95.43
-105.15
-117.08
-130.42
-143.31
-153.0
-156.59
-151.92
-138.42
-117.36
-91.48
-64.12
-38.2
-15.58
3.02
17.75
29.16
37.86
44.47
49.56
53.7
57.35
60.75
63.85
66.47
68.41
69.66
70.48
71.27
72.5
74.49
77.31
80.82
84.6
88.13
90.81
92.15
91.88
90.03
86.9
82.97
78.74
74.53
70.51
66.67
62.93
59.18
55.38
51.5
47.6
43.76
40.13
36.84
33.96
31.42
29.04
26.59
23.9
20.95
17.84
14.74
11.77
8.93
6.11
3.08
-0.34
-4.34
-9.01
-14.25
-19.79
-25.21
-30.09
-34.29
-38.05
-41.99
-46.79
-52.83
-59.96
-67.52
-74.7
-80.93
-86.16
-90.93
-96.07
-102.56
-111.11
-121.97
-134.62
-147.52
-158.22
-163.85
-161.91
-151.16
-132.15
-107.03
-78.89
-50.76
-24.95
-2.81
15.12
28.86
38.82
45.66
50.31
53.78
56.89
60.0
63.08
65.85
68.05
69.66
70.83
71.86
73.03
74.59
76.71
79.47
82.72
86.03
88.77
90.24
90.05
88.21
85.18
81.58
77.95
74.49
71.15
67.68
63.9
59.73
55.23
50.51
45.71
40.99
36.47
32.27
28.49
25.1
22.01
19.09
16.25
13.44
10.62
7.71
4.55
0.89
-3.41
-8.31
-13.54
-18.75
-23.65
-28.18
-32.61
-37.36
-42.78
-48.95
-55.68
-62.54
-69.13
-75.15
-80.57
-85.62
-90.76
-96.65
-104.11
-113.75
-125.61
-138.72
-150.96
-159.44
-161.3
-154.68
-139.44
-117.22
-90.85
-63.46
-37.6
-14.84
4.22
19.57
31.52
40.51
47.07
51.85
55.54
58.71
61.64
64.27
66.39
67.76
68.39
68.58
68.88
69.77
71.53
74.05
76.92
79.57
81.46
82.24
81.76
80.08
77.38
73.91
70.01
65.98
62.05
58.29
54.57
50.62
46.21
41.29
36.02
30.77
25.87
21.54
17.77
14.38
11.07
7.59
3.76
-0.38
-4.74
-9.16
-13.53
-17.95
-22.69
-28.14
-34.58
-41.97
-49.91
-57.73
-64.82
-70.91
-76.3
-81.7
-88.06
-96.19
-106.45
-118.61
-131.61
-143.64
-152.3
-155.11
-150.18
-136.91
-116.31
-90.75
-63.32
-36.97
-13.77
5.27
20.15
31.44
40.01
46.69
52.19
56.96
61.18
64.78
67.6
69.54
70.75
71.54
72.25
73.13
74.19
75.37
76.6
77.94
79.43
81.0
82.29
82.77
81.91
79.5
75.74
71.23
66.63
62.38
58.56
54.91
51.07
46.81
42.21
37.58
33.28
29.54
26.27
23.13
19.66
15.49
10.57
5.13
-0.37
-5.53
-10.15
-14.4
-18.66
-23.43
-29.04
-35.57
-42.77
-50.21
-57.4
-64.03
-70.05
-75.73
-81.62
-88.49
-97.06
-107.79
-120.49
-134.01
-146.18
-154.25
-155.51
-148.27
-132.48
-109.89
-83.46
-56.49
-31.7
-10.69
6.07
18.98
28.87
36.62
43.01
48.55
53.52
57.9
61.5
64.1
65.66
66.34
66.56
66.79
67.38
68.5
70.14
72.17
74.35
76.4
77.91
78.52
77.91
75.98
72.86
68.87
64.39
59.77
55.23
50.83
46.49
42.07
37.38
32.3
26.82
21.07
15.33
9.88
4.95
0.58
-3.44
-7.51
-12.05
-17.4
-23.62
-30.47
-37.48
-44.15
-50.16
-55.51
-60.61
-66.16
-72.91
-81.48
-92.15
-104.59
-117.73
-129.73
-138.23
-140.88
-136.05
-123.38
-104.12
-80.68
-56.01
-32.72
-12.46
4.26
17.76
28.79
38.09
46.11
53.06
58.94
63.72
67.35
69.86
71.36
72.06
72.23
72.2
72.27
72.72
73.67
75.05
76.71
78.37
79.72
80.41
80.09
78.52
75.64
71.62
66.9
62.04
57.5
53.46
49.79
46.17
42.22
37.79
32.88
27.72
22.55
17.48
12.6
7.93
3.52
-0.52
-4.17
-7.5
-10.8
-14.44
-18.83
-24.22
-30.6
-37.7
-45.0
-51.95
-58.12
-63.42
-68.12
-72.88
-78.54
-85.84
-95.2
-106.39
-118.31
-129.04
-136.18
-137.42
-131.31
-117.78
-98.32
-75.49
-52.15
-30.62
-12.11
3.2
15.86
26.52
35.67
43.5
50.02
55.24
59.25
62.17
64.13
65.19
65.51
65.33
65.03
65.01
65.6
66.9
68.73
70.67
72.24
72.99
72.68
71.24
68.82
65.69
62.21
58.71
55.49
52.61
49.9
46.97
43.41
38.97
33.75
28.19
22.91
18.44
14.93
12.15
9.57
6.67
3.13
-1.05
-5.57
-10.04
-14.13
-17.71
-20.91
-24.11
-27.8
-32.4
-38.08
-44.61
-51.42
-57.79
-63.24
-67.75
-71.84
-76.43
-82.5
-90.69
-100.91
-112.24
-122.89
-130.62
-133.23
-129.19
-118.22
-101.33
-80.64
-58.7
-37.75
-19.33
-4.02
8.22
17.84
25.41
31.47
36.51
40.88
44.78
48.15
50.8
52.5
53.26
53.33
53.15
53.17
53.64
54.63
56.04
57.71
59.46
61.0
61.97
61.91
60.47
57.62
53.68
49.27
44.99
41.19
37.81
34.51
30.85
26.61
21.81
16.68
11.59
6.82
2.52
-1.3
-4.77
-8.19
-11.89
-16.19
-21.2
-26.8
-32.68
-38.45
-43.83
-48.76
-53.44
-58.25
-63.7
-70.3
-78.28
-87.35
-96.51
-104.06
-108.07
-106.9
-99.89
-87.58
-71.57
-53.87
-36.38
-20.33
-6.31
5.57
15.46
23.61
30.27
35.76
40.37
44.25
47.35
49.48
50.53
50.59
50.01
49.34
49.05
49.44
50.5
52.01
53.68
55.26
56.53
57.31
57.44
56.76
55.23
52.92
50.07
46.97
43.88
40.99
38.34
35.85
33.37
30.77
27.94
24.9
21.8
18.83
16.2
13.94
11.94
9.9
7.53
4.64
1.23
-2.53
-6.43
-10.29
-14.02
-17.62
-21.13
-24.64
-28.3
-32.28
-36.72
-41.62
-46.85
-52.1
-57.06
-61.58
-65.78
-70.04
-74.89
-80.81
-88.05
-96.43
-105.18
-112.9
-117.8
-118.15
-112.85
-101.89
-86.46
-68.6
-50.56
-34.15
-20.31
-9.19
-0.33
6.83
12.81
17.87
22.19
25.85
28.88
31.31
33.11
34.33
35.03
35.38
35.6
35.92
36.54
37.65
39.35
41.5
43.83
45.87
47.16
47.33
46.33
44.36
41.84
39.18
36.61
34.13
31.56
28.67
25.41
21.83
18.13
14.56
11.23
8.18
5.32
2.54
-0.25
-3.1
-6.02
-9.02
-12.08
-15.17
-18.3
-21.53
-25.08
-29.18
-33.99
-39.46
-45.27
-50.98
-56.19
-60.77
-64.96
-69.32
-74.61
-81.47
-90.25
-100.61
-111.42
-120.76
-126.36
-126.22
-119.37
-106.17
-88.31
-68.15
-48.0
-29.52
-13.53
-0.23
10.57
19.22
26.08
31.6
36.16
40.02
43.15
45.4
46.59
46.85
46.57
46.34
46.71
47.97
50.09
52.85
55.93
58.97
61.59
63.44
64.18
63.67
61.96
59.35
56.25
53.04
49.93
46.93
43.93
40.79
37.47
34.02
30.55
27.16
23.91
20.73
17.54
14.18
10.54
6.57
2.28
-2.21
-6.78
-11.38
-16.08
-21.01
-26.36
-32.22
-38.61
-45.46
-52.63
-59.98
-67.38
-74.79
-82.31
-90.25
-99.11
-109.37
-121.08
-133.39
-144.41
-151.52
-152.16
-144.75
-129.35
-107.68
-82.54
-56.82
-32.82
-11.82
5.72
19.88
30.99
39.56
46.14
51.43
55.99
60.15
63.99
67.39
70.21
72.45
74.21
75.72
77.2
78.96
81.25
84.22
87.8
91.56
94.81
96.86
97.32
96.22
93.86
90.65
86.87
82.65
78.1
73.45
69.0
65.01
61.49
58.2
54.76
50.9
46.54
41.89
37.25
32.87
28.84
25.07
21.39
17.61
13.58
9.21
4.48
-0.54
-5.79
-11.22
-16.89
-22.94
-29.52
-36.73
-44.51
-52.62
-60.71
-68.4
-75.39
-81.61
-87.36
-93.25
-100.18
-109.03
-120.28
-133.52
-147.2
-158.74
-165.06
-163.5
-152.68
-133.03
-106.7
-76.88
-46.92
-19.51
3.74
22.27
36.31
46.53
53.79
58.92
62.63
65.36
67.29
68.45
68.84
68.59
68.0
67.44
67.27
67.7
68.81
70.54
72.75
75.13
77.27
78.7
79.05
78.16
76.08
73.06
69.38
65.25
60.81
56.17
51.39
46.58
41.79
37.02
32.19
27.25
22.2
17.15
12.22
7.5
2.97
-1.46
-5.99
-10.78
-15.97
-21.73
-28.12
-35.15
-42.65
-50.29
-57.63
-64.3
-70.11
-75.24
-80.21
-85.86
-93.23
-103.17
-115.88
-130.43
-144.6
-155.2
-158.93
-153.47
-138.31
-114.92
-86.31
-55.98
-27.1
-1.84
18.72
34.4
45.68
53.44
58.71
62.46
65.39
67.77
69.51
70.38
70.22
69.12
67.42
65.6
64.19
63.68
64.44
66.63
70.09
74.34
78.51
81.67
83.02
82.21
79.4
75.18
70.25
65.21
60.32
55.51
50.58
45.36
39.89
34.38
29.14
24.38
20.11
16.1
11.97
7.4
2.31
-3.09
-8.37
-13.13
-17.29
-21.13
-25.32
-30.52
-37.1
-44.9
-53.28
-61.4
-68.62
-74.77
-80.23
-85.79
-92.44
-101.04
-112.14
-125.52
-139.94
-153.1
-161.92
-163.4
-155.57
-138.3
-113.4
-84.09
-53.9
-25.75
-1.39
18.61
34.39
46.42
55.26
61.5
65.81
68.9
71.31
73.38
75.11
76.42
77.22
77.59
77.79
78.2
79.14
80.83
83.26
86.16
89.07
91.39
92.56
92.24
90.37
87.15
82.99
78.3
73.46
68.7
64.09
59.59
55.06
50.29
45.24
39.97
34.75
29.9
25.66
22.03
18.82
15.68
12.26
8.36
3.99
-0.73
-5.56
-10.27
-14.74
-19.01
-23.36
-28.24
-34.12
-41.22
-49.37
-57.96
-66.28
-73.78
-80.44
-86.79
-93.76
-102.39
-113.35
-126.57
-140.97
-154.47
-164.29
-167.61
-162.41
-148.12
-125.88
-98.29
-68.57
-39.77
-14.13
7.15
23.86
36.41
45.58
52.23
57.11
60.77
63.51
65.46
66.7
67.34
67.63
67.87
68.34
69.22
70.63
72.62
75.2
78.24
81.39
84.12
85.79
85.87
84.16
80.81
76.23
70.95
65.39
59.84
54.38
49.04
43.76
38.43
32.89
26.99
20.71
14.29
8.16
2.79
-1.6
-5.16
-8.46
-12.25
-17.14
-23.39
-30.84
-39.03
-47.36
-55.29
-62.5
-68.94
-74.96
-81.27
-88.86
-98.62
-110.83
-124.75
-138.38
-148.86
-153.19
-149.16
-136.16
-115.32
-89.18
-60.95
-33.6
-9.28
10.94
26.93
39.19
48.51
55.69
61.36
65.94
69.67
72.64
74.85
76.28
76.97
77.06
76.83
76.71
77.16
78.5
80.79
83.76
86.88
89.51
91.09
91.21
89.72
86.65
82.26
76.94
71.15
65.32
59.69
54.25
48.85
43.31
37.68
32.17
27.14
22.8
19.06
15.49
11.51
6.69
1.0
-5.18
-11.19
-16.48
-20.85
-24.6
-28.42
-33.06
-39.03
-46.4
-54.73
-63.27
-71.2
-78.06
-83.79
-88.9
-94.28
-100.92
-109.61
-120.56
-133.1
-145.6
-155.61
-160.37
-157.53
-145.92
-126.02
-99.98
-71.06
-42.71
-17.65
2.66
18.09
29.43
37.8
44.19
49.26
53.3
56.47
58.85
60.61
61.89
62.82
63.5
63.99
64.39
64.9
65.74
67.1
68.99
71.22
73.36
74.87
75.22
74.05
71.24
66.98
61.68
55.9
50.18
44.85
40.01
35.47
30.96
26.2
21.07
15.63
10.11
4.77
-0.15
-4.57
-8.58
-12.5
-16.75
-21.76
-27.68
-34.33
-41.25
-47.86
-53.87
-59.34
-64.75
-70.78
-78.1
-87.15
-98.02
-110.26
-122.69
-133.38
-139.92
-139.97
-132.09
-116.36
-94.48
-69.32
-43.97
-20.92
-1.46
14.22
26.72
36.81
45.1
51.85
57.04
60.63
62.66
63.4
63.36
63.15
63.32
64.21
65.87
68.13
70.72
73.4
75.96
78.26
80.06
80.97
80.65
78.88
75.68
71.41
66.57
61.62
56.79
52.06
47.27
42.29
37.04
31.56
25.86
19.98
13.94
7.89
2.05
-3.31
-8.03
-12.14
-15.93
-19.86
-24.44
-30.04
-36.77
-44.41
-52.51
-60.41
-67.55
-73.64
-78.8
-83.71
-89.35
-96.74
-106.5
-118.43
-131.24
-142.71
-150.11
-150.9
-143.59
-128.22
-106.39
-80.81
-54.47
-29.87
-8.56
8.92
22.77
33.53
41.84
48.27
53.31
57.38
60.77
63.61
65.91
67.62
68.74
69.42
69.95
70.71
71.97
73.86
76.24
78.8
81.11
82.76
83.38
82.72
80.66
77.24
72.67
67.37
61.87
56.69
52.15
48.26
44.72
41.1
37.06
32.54
27.81
23.32
19.49
16.44
13.91
11.36
8.21
4.14
-0.78
-6.07
-11.15
-15.6
-19.44
-23.16
-27.49
-33.01
-39.89
-47.71
-55.68
-63.01
-69.26
-74.48
-79.2
-84.22
-90.33
-98.21
-108.22
-120.18
-133.14
-145.22
-153.86
-156.37
-150.82
-136.73
-115.36
-89.38
-62.1
-36.47
-14.43
3.28
16.93
27.33
35.37
41.78
46.97
51.11
54.27
56.48
57.88
58.64
58.96
59.07
59.16
59.48
60.25
61.61
63.61
66.04
68.55
70.68
72.0
72.22
71.18
68.87
65.34
60.8
55.59
50.15
44.89
40.08
35.67
31.41
26.92
21.96
16.51
10.85
5.37
0.45
-3.7
-7.17
-10.27
-13.52
-17.47
-22.51
-28.7
-35.75
-43.14
-50.33
-57.03
-63.25
-69.34
-75.84
-83.35
-92.31
-102.86
-114.47
-125.78
-134.59
-138.37
-135.02
-123.69
-105.25
-82.03
-57.08
-33.22
-12.3
4.97
18.78
29.66
38.2
44.84
49.94
53.82
56.81
59.12
60.88
62.13
62.94
63.43
63.85
64.4
65.18
66.13
67.13
68.06
68.9
69.61
70.06
70.0
69.09
67.04
63.86
