0
5.68
4.45
3.09
1.68
0.32
-0.97
-2.26
-3.62
-5.16
-6.89
-8.77
-10.7
-12.54
-14.19
-15.63
-16.95
-18.35
-20.02
-22.12
-24.64
-27.46
-30.28
-32.71
-34.36
-34.85
-33.9
-31.39
-27.41
-22.3
-16.62
-10.97
-5.84
-1.49
2.06
4.98
7.44
9.53
11.29
12.71
13.82
14.7
15.46
16.13
16.74
17.26
17.65
17.99
18.34
18.75
19.24
19.73
20.1
20.25
20.11
19.68
18.99
18.06
16.96
15.74
14.5
13.34
12.34
11.52
10.84
10.24
9.6
8.83
7.86
6.63
5.15
3.48
1.75
0.04
-1.58
-3.14
-4.74
-6.5
-8.49
-10.64
-12.82
-14.9
-16.77
-18.46
-20.11
-21.92
-24.02
-26.47
-29.17
-31.85
-34.14
-35.6
-35.86
-34.68
-32.06
-28.19
-23.43
-18.21
-12.92
-7.88
-3.31
0.7
4.12
6.98
9.3
11.1
12.36
13.1
13.43
13.52
13.62
13.9
14.47
15.27
16.16
16.99
17.68
18.2
18.55
18.74
18.72
18.49
18.04
17.46
16.85
16.31
15.83
15.29
14.51
13.34
11.78
9.96
8.13
6.5
5.16
4.04
2.98
1.8
0.4
-1.26
-3.11
-5.07
-7.06
-8.98
-10.73
-12.23
-13.53
-14.8
-16.23
-17.95
-19.95
-21.96
-23.6
-24.43
-24.12
-22.53
-19.69
-15.82
-11.24
-6.39
-1.72
2.37
5.67
8.14
9.9
11.12
11.91
12.33
12.36
12.04
11.52
11.0
10.69
10.71
11.06
11.64
12.36
13.14
13.91
14.6
15.08
15.19
14.85
14.01
12.78
11.3
9.73
8.2
6.74
5.35
3.97
2.55
1.02
-0.65
-2.42
-4.2
-5.86
-7.3
-8.54
-9.69
-10.92
-12.42
-14.23
-16.29
-18.49
-20.75
-23.07
-25.44
-27.82
-29.91
-31.27
-31.42
-30.06
-27.22
-23.28
-18.77
-14.21
-9.92
-6.0
-2.43
0.77
3.57
5.88
7.7
9.09
10.19
11.14
12.07
13.02
13.98
14.91
15.74
16.41
16.86
17.11
17.25
17.38
17.53
17.66
17.59
17.16
16.33
15.21
14.02
12.95
12.08
11.29
10.43
9.38
8.15
6.9
5.78
4.92
4.24
3.58
2.73
1.55
-0.01
-1.85
-3.82
-5.8
-7.75
-9.73
-11.84
-14.23
-16.97
-20.05
-23.34
-26.72
-29.99
-32.93
-35.26
-36.62
-36.7
-35.26
-32.31
-28.08
-23.05
-17.73
-12.63
-8.07
-4.18
-0.89
1.94
4.45
6.71
8.69
10.35
11.68
12.76
13.72
14.69
15.68
16.59
17.27
17.64
17.76
17.82
17.98
18.29
18.64
18.83
18.7
18.22
17.54
16.81
16.12
15.42
14.54
13.34
11.79
10.0
8.19
6.53
5.05
3.68
2.25
0.67
-1.06
-2.84
-4.55
-6.17
-7.74
-9.38
-11.14
-13.05
-15.07
-17.18
-19.4
-21.68
-23.86
-25.58
-26.33
-25.62
-23.18
-19.1
-13.8
-7.93
-2.12
3.16
7.65
11.29
14.1
16.11
17.37
17.94
17.92
17.51
16.93
16.36
15.94
15.71
15.62
15.57
15.47
15.27
14.98
14.69
14.45
14.28
14.11
13.8
13.17
12.11
10.62
8.82
6.9
4.99
3.19
1.47
-0.25
-2.02
-3.86
-5.68
-7.43
-9.05
-10.55
-11.99
-13.46
-15.07
-16.96
-19.26
-22.01
-25.14
-28.36
-31.24
-33.24
-33.87
-32.86
-30.18
-26.04
-20.88
-15.23
-9.64
-4.54
-0.17
3.43
6.36
8.81
10.93
12.79
14.36
15.64
16.62
17.35
17.91
18.33
18.62
18.82
18.98
19.16
19.42
19.75
20.02
20.08
19.84
19.34
18.68
18.0
17.35
16.73
16.04
15.19
14.18
13.1
12.06
11.09
10.16
9.13
7.92
6.5
4.99
3.56
2.38
1.47
0.78
0.12
-0.7
-1.87
-3.51
-5.64
-8.18
-10.97
-13.8
-16.45
-18.82
-20.94
-22.98
-25.16
-27.62
-30.33
-33.03
-35.29
-36.62
-36.59
-34.99
-31.88
-27.55
-22.48
-17.19
-12.12
-7.55
-3.59
-0.24
2.59
4.96
6.92
8.52
9.83
10.97
12.03
13.12
14.22
15.23
16.03
16.55
16.8
16.88
16.94
17.09
17.37
17.73
18.03
18.12
17.87
17.21
16.18
14.94
13.65
12.48
11.49
10.66
9.83
8.9
7.8
6.61
5.48
4.56
3.89
3.4
2.88
2.13
0.98
-0.62
-2.57
-4.7
-6.86
-8.94
-10.91
-12.83
-14.79
-16.89
-19.19
-21.72
-24.45
-27.24
-29.8
-31.77
-32.73
-32.36
-30.48
-27.2
-22.82
-17.77
-12.53
-7.48
-2.96
0.86
3.9
6.17
7.81
8.99
9.86
10.52
11.02
11.37
11.62
11.83
12.12
12.54
13.09
13.7
14.23
14.6
14.76
14.75
14.62
14.41
14.07
13.52
12.72
11.65
10.38
9.03
7.64
6.25
4.81
3.26
1.56
-0.29
-2.22
-4.16
-6.07
-7.95
-9.83
-11.77
-13.83
-16.08
-18.58
-21.29
-24.05
-26.58
-28.44
-29.18
-28.48
-26.27
-22.78
-18.41
-13.63
-8.87
-4.36
-0.24
3.43
6.58
9.14
11.03
12.25
12.84
12.94
12.72
12.39
12.12
12.06
12.25
12.66
13.18
13.69
14.12
14.44
14.69
14.87
14.93
14.79
14.4
13.75
12.94
12.12
11.4
10.79
10.16
9.33
8.13
6.52
4.66
2.76
1.08
-0.26
-1.28
-2.12
-3.0
-4.11
-5.53
-7.26
-9.21
-11.26
-13.28
-15.21
-17.04
-18.84
-20.73
-22.85
-25.26
-27.93
-30.69
-33.2
-35.05
-35.78
-35.06
-32.75
-29.01
-24.28
-19.13
-14.07
-9.49
-5.53
-2.17
0.72
3.24
5.43
7.3
8.85
10.13
11.2
12.1
12.85
13.46
13.96
14.43
14.94
15.5
16.08
16.56
16.86
16.92
16.78
16.52
16.18
15.75
15.21
14.5
13.67
12.79
11.95
11.18
10.43
9.61
8.64
7.5
6.26
5.0
3.84
2.86
2.02
1.22
0.29
-0.93
-2.53
-4.45
-6.53
-8.59
-10.52
-12.34
-14.22
-16.37
-19.0
-22.19
-25.77
-29.38
-32.51
-34.6
-35.24
-34.23
-31.63
-27.72
-22.88
-17.54
-12.14
-7.05
-2.55
1.21
4.27
6.77
8.87
10.65
12.12
13.24
14.05
14.72
15.43
16.36
17.53
18.81
20.0
20.95
21.58
21.92
22.0
21.81
21.32
20.5
19.34
17.9
16.25
14.44
12.51
10.5
8.44
6.43
4.54
2.81
1.21
-0.33
-1.9
-3.55
-5.32
-7.24
-9.33
-11.65
-14.26
-17.18
-20.34
-23.58
-26.62
-29.13
-30.73
-31.1
-29.99
-27.34
-23.24
-18.01
-12.14
-6.22
-0.82
3.64
7.03
9.44
11.14
12.44
13.51
14.38
15.01
15.36
15.48
15.52
15.64
15.98
16.57
17.33
18.14
18.93
19.63
20.22
20.68
20.97
21.04
20.84
20.35
19.61
18.65
17.53
16.27
14.88
13.39
11.87
10.4
9.08
7.93
6.89
5.83
4.61
3.14
1.43
-0.46
-2.49
-4.59
-6.74
-8.9
-11.01
-13.0
-14.85
-16.57
-18.26
-20.05
-22.07
-24.43
-27.15
-30.17
-33.3
-36.22
-38.49
-39.62
-39.17
-36.94
-33.06
-27.93
-22.14
-16.27
-10.72
-5.73
-1.33
2.45
5.66
8.29
10.41
12.11
13.47
14.61
15.55
16.3
16.86
17.26
17.63
18.04
18.54
19.09
19.59
19.93
20.09
20.08
19.93
19.64
19.17
18.47
17.48
16.28
15.0
13.84
12.9
12.17
11.53
10.81
9.87
8.67
7.27
5.75
4.24
2.83
1.59
0.56
-0.3
-1.11
-2.04
-3.28
-4.93
-6.93
-9.07
-11.14
-12.97
-14.5
-15.82
-17.03
-18.27
-19.64
-21.29
-23.31
-25.75
-28.47
-31.14
-33.29
-34.39
-34.04
-32.08
-28.66
-24.14
-18.96
-13.62
-8.51
-3.93
-0.03
3.18
5.81
8.01
9.89
11.48
12.76
13.67
14.22
14.46
14.52
14.53
14.57
14.65
14.78
14.96
15.19
15.48
15.8
16.04
16.06
15.74
15.03
14.0
12.8
11.6
10.49
9.48
8.48
7.39
6.07
4.47
2.57
0.47
-1.7
-3.83
-5.83
-7.72
-9.59
-11.57
-13.76
-16.15
-18.65
-21.06
-23.14
-24.59
-25.12
-24.48
-22.52
-19.28
-15.0
-10.09
-5.04
-0.24
4.06
7.78
10.87
13.34
15.14
16.26
16.72
16.66
16.25
15.69
15.14
14.68
14.39
14.31
14.49
14.93
15.55
16.2
16.69
16.88
16.7
16.17
15.37
14.37
13.21
11.9
10.47
8.95
7.38
5.82
4.26
2.7
1.1
-0.52
-2.09
-3.55
-4.86
-6.05
-7.22
-8.48
-9.93
-11.6
-13.44
-15.35
-17.27
-19.17
-21.07
-23.05
-25.18
-27.54
-30.11
-32.79
-35.31
-37.25
-38.16
-37.65
-35.56
-31.98
-27.27
-21.87
-16.24
-10.78
-5.72
-1.25
2.55
5.65
8.08
9.94
11.36
12.49
13.45
14.3
15.11
15.88
16.63
17.35
18.04
18.64
19.11
19.41
19.51
19.39
19.02
18.44
17.72
16.95
16.22
15.59
15.02
14.41
13.65
12.66
11.45
10.09
8.7
7.32
5.97
4.61
3.25
1.93
0.72
-0.34
-1.29
-2.24
-3.3
-4.54
-5.92
-7.34
-8.74
-10.11
-11.53
-13.15
-15.04
-17.22
-19.68
-22.42
-25.41
-28.61
-31.81
-34.63
-36.58
-37.18
-36.13
-33.43
-29.35
-24.35
-18.93
-13.58
-8.61
-4.22
-0.46
2.72
5.41
7.69
9.6
11.15
12.37
13.35
14.18
14.98
15.76
16.47
17.02
17.4
17.65
17.91
18.28
18.76
19.26
19.58
19.54
19.1
18.34
17.42
16.54
15.77
15.04
14.24
13.26
12.1
10.89
9.78
8.86
8.07
7.25
6.2
4.83
3.19
1.47
-0.1
-1.44
-2.61
-3.8
-5.25
-7.17
-9.68
-12.78
-16.32
-19.96
-23.29
-25.78
-26.98
-26.61
-24.62
-21.22
-16.81
-11.87
-6.85
-2.09
2.16
5.84
8.91
11.38
13.29
14.62
15.38
15.59
15.38
14.97
14.61
14.5
14.68
15.09
15.55
15.93
16.17
16.28
16.31
16.28
16.17
15.94
15.55
14.99
14.29
13.5
12.65
11.77
10.89
10.0
9.12
8.23
7.29
6.27
5.16
3.97
2.75
1.58
0.48
-0.57
-1.69
-3.0
-4.62
-6.55
-8.74
-11.03
-13.25
-15.28
-17.08
-18.65
-20.09
-21.58
-23.32
-25.55
-28.31
-31.42
-34.4
-36.59
-37.39
-36.47
-33.82
-29.76
-24.77
-19.34
-13.9
-8.8
-4.35
-0.66
2.29
4.73
6.96
9.15
11.31
13.27
14.8
15.78
16.26
16.42
16.49
16.57
16.68
16.76
16.78
16.77
16.8
16.94
17.18
17.43
17.54
17.4
16.94
16.24
15.42
14.64
14.0
13.48
13.03
12.56
12.05
11.51
10.94
10.3
9.51
8.53
7.35
6.03
4.68
3.33
1.99
0.6
-0.89
-2.45
-3.96
-5.29
-6.41
-7.36
-8.28
-9.32
-10.54
-11.9
-13.27
-14.52
-15.59
-16.58
-17.72
-19.24
-21.34
-23.99
-26.98
-29.93
-32.36
-33.87
-34.15
-33.06
-30.62
-26.99
-22.44
-17.35
-12.15
-7.29
-3.11
0.25
2.85
4.91
6.68
8.34
9.91
11.3
12.42
13.24
13.85
14.39
14.98
15.64
16.28
16.8
17.19
17.51
17.86
18.3
18.75
19.01
18.88
18.23
17.11
15.72
14.31
13.08
12.08
11.24
10.41
9.44
8.26
6.91
5.46
4.02
2.64
1.3
-0.1
-1.61
-3.28
-5.06
-6.83
-8.53
-10.12
-11.69
-13.35
-15.2
-17.28
-19.59
-22.1
-24.71
-27.3
-29.6
-31.27
-31.9
-31.19
-29.05
-25.71
-21.52
-16.95
-12.36
-8.03
-4.08
-0.62
2.32
4.74
6.71
8.34
9.74
10.97
12.05
12.98
13.74
14.37
14.87
15.26
15.56
15.81
16.07
16.41
16.9
17.52
18.18
18.75
19.07
19.06
18.68
17.94
16.89
15.58
14.14
12.68
11.35
10.22
9.34
8.64
7.98
7.2
6.17
4.84
3.25
1.52
-0.16
-1.63
-2.84
-3.86
-4.84
-5.98
-7.38
-9.09
-11.03
-13.06
-15.03
-16.86
-18.53
-20.1
-21.7
-23.5
-25.63
-28.14
-30.95
-33.75
-36.1
-37.42
-37.23
-35.29
-31.66
-26.78
-21.24
-15.69
-10.6
-6.23
-2.58
0.47
3.1
5.44
7.56
9.46
11.09
12.41
13.41
14.08
14.49
14.74
14.92
15.07
15.21
15.32
15.41
15.54
15.77
16.16
16.67
17.15
17.4
17.3
16.82
16.09
15.26
14.49
13.84
13.27
12.72
12.11
11.39
10.47
9.31
7.88
6.23
4.48
2.77
1.19
-0.22
-1.52
-2.73
-3.9
-5.01
-6.03
-6.99
-7.95
-8.98
-10.16
-11.54
-13.18
-15.14
-17.5
-20.31
-23.53
-26.98
-30.31
-33.07
-34.79
-35.06
-33.69
-30.71
-26.4
-21.17
-15.54
-9.96
-4.81
-0.32
3.43
6.5
8.99
11.03
12.7
14.07
15.2
16.14
16.96
17.7
18.37
18.97
19.43
19.69
19.76
19.67
19.49
19.27
18.99
18.61
18.01
17.14
15.96
14.55
13.01
11.43
9.91
8.44
7.02
5.59
4.09
2.5
0.77
-1.06
-2.94
-4.83
-6.68
-8.47
-10.19
-11.88
-13.6
-15.44
-17.49
-19.82
-22.42
-25.16
-27.73
-29.71
-30.66
-30.23
-28.32
-25.01
-20.63
-15.63
-10.51
-5.76
-1.71
1.49
3.92
5.84
7.55
9.26
10.97
12.56
13.83
14.73
15.3
15.69
16.02
16.35
16.64
16.86
17.04
17.28
17.66
18.21
18.81
19.25
19.34
18.95
18.09
16.9
15.58
14.31
13.17
12.16
11.18
10.11
8.86
7.39
5.74
3.99
2.25
0.58
-0.98
-2.44
-3.89
-5.43
-7.15
-9.06
-11.06
-13.02
-14.83
-16.44
-17.96
-19.59
-21.56
-24.03
-27.01
-30.25
-33.33
-35.71
-36.85
-36.38
-34.2
-30.47
-25.58
-20.06
-14.46
-9.22
-4.63
-0.77
2.41
5.09
7.41
9.49
11.29
12.72
13.71
14.26
14.47
14.51
14.54
14.65
14.85
15.13
15.49
15.94
16.5
17.12
17.67
17.96
17.88
17.34
16.41
15.22
13.9
12.55
11.2
9.86
8.51
7.17
5.85
4.62
3.52
2.58
1.77
1.01
0.16
-0.94
-2.4
-4.22
-6.25
-8.3
-10.15
-11.74
-13.12
-14.53
-16.22
-18.38
-21.06
-24.07
-27.0
-29.32
-30.48
-30.06
-27.89
-24.15
-19.22
-13.67
-8.02
-2.68
2.1
6.2
9.53
12.05
13.74
14.69
15.05
15.09
15.07
15.14
15.34
15.6
15.82
15.89
15.79
15.49
15.05
14.52
13.98
13.51
13.15
12.9
12.65
12.3
11.69
10.76
9.53
8.09
6.54
4.96
3.38
1.78
0.13
-1.58
-3.3
-5.0
-6.66
-8.29
-9.94
-11.67
-13.52
-15.51
-17.68
-20.03
-22.59
-25.34
-28.13
-30.66
-32.47
-33.08
-32.13
-29.53
-25.52
-20.54
-15.15
-9.82
-4.88
-0.47
3.36
6.61
9.29
11.35
12.79
13.66
14.08
14.26
14.43
14.77
15.34
16.08
16.85
17.56
18.19
18.82
19.55
20.38
21.18
21.76
21.95
21.67
21.01
20.13
19.17
18.23
17.34
16.46
15.53
14.52
13.34
11.96
10.4
8.77
7.28
6.13
5.43
5.12
5.01
4.82
4.36
3.55
2.41
1.05
-0.47
-2.07
-3.74
-5.48
-7.31
-9.22
-11.22
-13.29
-15.42
-17.58
-19.71
-21.81
-23.91
-26.1
-28.49
-31.18
-34.17
-37.31
-40.23
-42.5
-43.6
-43.14
-40.94
-37.12
-32.01
-26.12
-19.97
-14.03
-8.62
-3.91
0.07
3.4
6.15
8.47
10.45
12.2
13.78
15.17
16.34
17.22
17.79
18.05
18.09
18.04
18.05
18.21
18.56
19.06
19.63
20.09
20.31
20.13
19.47
18.36
16.92
15.37
13.94
12.8
12.02
11.57
11.3
11.05
10.65
10.01
9.07
7.9
6.57
5.21
3.93
2.8
1.81
0.87
-0.11
-1.26
-2.62
-4.24
-6.09
-8.16
-10.38
-12.62
-14.76
-16.69
-18.44
-20.18
-22.16
-24.58
-27.44
-30.46
-33.13
-34.9
-35.3
-34.09
-31.26
-27.01
-21.67
-15.66
-9.44
-3.47
1.87
6.31
9.73
12.17
13.75
14.68
15.18
15.45
15.67
15.9
16.17
16.39
16.49
16.47
16.46
16.62
17.11
17.87
18.71
19.3
19.39
18.9
17.96
16.82
15.7
14.67
13.68
12.59
11.35
10.01
8.69
7.48
6.41
5.4
4.32
3.13
1.81
0.45
-0.84
-2.02
-3.12
-4.26
-5.58
-7.2
-9.13
-11.28
-13.45
-15.43
-17.09
-18.48
-19.85
-21.51
-23.68
-26.36
-29.26
-31.88
-33.64
-34.12
-33.08
-30.55
-26.78
-22.1
-16.92
-11.68
-6.76
-2.43
1.2
4.17
6.63
8.75
10.65
12.33
13.74
14.8
15.46
15.77
15.88
16.01
16.35
16.99
17.86
18.73
19.35
19.58
19.45
19.13
18.84
18.65
18.46
18.1
17.45
16.56
15.6
14.72
13.92
13.06
11.96
10.55
8.97
7.49
6.33
5.6
5.17
4.8
4.25
3.37
2.14
0.65
-0.98
-2.64
-4.23
-5.75
-7.27
-8.86
-10.59
-12.45
-14.36
-16.22
-17.97
-19.71
-21.63
-23.97
-26.86
-30.26
-33.85
-37.12
-39.48
-40.45
-39.78
-37.48
-33.79
-29.05
-23.63
-17.9
-12.18
-6.81
-2.06
1.9
5.04
7.48
9.36
10.84
11.99
12.85
13.46
13.92
14.35
14.87
15.5
16.18
16.83
17.39
17.86
18.26
18.61
18.93
19.17
19.26
19.14
18.79
18.22
17.53
16.77
15.98
15.16
14.25
13.22
12.07
10.87
9.7
8.58
7.46
6.28
4.97
3.55
2.14
0.85
-0.29
-1.36
-2.58
-4.11
-6.04
-8.25
-10.51
-12.55
-14.17
-15.37
-16.34
-17.39
-18.84
-20.9
-23.53
-26.49
-29.28
-31.31
-32.07
-31.22
-28.74
-24.87
-20.1
-14.95
-9.86
-5.1
-0.82
2.91
6.09
8.69
10.76
12.36
13.56
14.45
15.07
15.43
15.57
15.55
15.47
15.39
15.39
15.48
15.7
16.02
16.43
16.8
16.97
16.78
16.12
14.98
13.49
11.82
10.15
8.6
7.17
5.85
4.56
3.23
1.84
0.39
-1.13
-2.71
-4.35
-6.05
-7.8
-9.54
-11.22
-12.78
-14.31
-15.99
-18.07
-20.74
-23.97
-27.46
-30.66
-32.93
-33.73
-32.8
-30.14
-26.07
-21.03
-15.55
-10.07
-4.97
-0.49
3.24
6.21
8.54
10.39
11.97
13.36
14.59
15.55
16.13
16.27
16.03
15.59
15.17
14.97
15.1
15.6
16.39
17.36
18.33
19.09
19.44
19.24
18.48
17.31
15.98
14.77
13.85
13.25
12.88
12.59
12.23
11.65
10.74
9.46
7.87
6.11
4.39
2.89
1.67
0.7
-0.19
-1.15
-2.35
-3.85
-5.65
-7.72
-9.94
-12.22
-14.4
-16.38
-18.15
-19.82
-21.65
-23.92
-26.76
-30.09
-33.54
-36.55
-38.51
-38.94
-37.57
-34.45
-29.91
-24.47
-18.7
-13.13
-8.11
-3.78
-0.14
2.91
5.45
7.5
9.03
10.03
10.6
10.97
11.47
12.37
13.76
15.51
17.3
18.82
19.88
20.46
20.66
20.65
20.53
20.31
19.92
19.31
18.48
17.46
16.32
15.14
14.0
12.94
12.0
11.17
10.43
9.75
9.07
8.36
7.6
6.76
5.81
4.76
3.59
2.29
0.86
-0.7
-2.37
-4.11
-5.86
-7.6
-9.32
-11.03
-12.71
-14.35
-15.98
-17.63
-19.46
-21.62
-24.22
-27.21
-30.27
-32.88
-34.44
-34.44
-32.66
-29.21
-24.44
-18.89
-13.13
-7.62
-2.68
1.54
5.02
7.84
10.1
11.92
13.38
14.56
15.54
16.35
17.01
17.51
17.84
17.97
17.94
17.87
17.88
18.06
18.4
18.82
19.1
19.03
18.46
17.38
15.94
14.39
13.01
11.97
11.28
10.79
10.31
9.64
8.69
7.46
6.0
4.38
2.66
0.89
-0.89
-2.68
-4.46
-6.27
-8.14
-10.06
-11.99
-13.88
-15.77
-17.71
-19.83
-22.21
-24.86
-27.65
-30.3
-32.48
-33.81
-33.98
-32.78
-30.15
-26.24
-21.37
-16.03
-10.69
-5.76
-1.43
2.25
5.33
7.9
10.01
11.71
13.0
13.96
14.66
15.19
15.6
15.92
16.18
16.36
16.53
16.76
17.11
17.61
18.19
18.71
19.0
18.98
18.65
18.1
17.46
16.79
16.14
15.46
14.73
13.96
13.14
12.23
11.13
9.72
7.95
5.94
3.91
2.14
0.8
-0.18
-1.01
-2.01
-3.4
-5.24
-7.41
-9.67
-11.77
-13.55
-15.0
-16.19
-17.27
-18.42
-19.84
-21.71
-24.16
-27.18
-30.49
-33.58
-35.77
-36.38
-35.01
-31.67
-26.76
-20.92
-14.86
-9.14
-4.11
0.1
3.53
6.28
8.48
10.22
11.6
12.66
13.42
13.9
14.15
14.22
14.19
14.15
14.18
14.34
14.67
15.17
15.79
16.45
17.06
17.52
17.75
17.69
17.31
16.64
15.75
14.75
13.71
12.72
11.77
10.85
9.92
8.97
8.02
7.1
6.25
5.41
4.53
3.49
2.24
0.77
-0.79
-2.32
-3.66
-4.78
-5.73
-6.64
-7.61
-8.75
-10.05
-11.48
-13.02
-14.72
-16.64
-18.88
-21.48
-24.38
-27.37
-30.11
-32.15
-33.08
-32.59
-30.59
-27.2
-22.69
-17.48
-11.98
-6.57
-1.58
2.77
6.36
9.15
11.23
12.7
13.67
14.2
14.38
14.32
14.17
14.1
14.18
14.42
14.72
14.97
15.12
15.23
15.38
15.62
15.89
16.07
16.02
15.63
14.91
13.89
12.64
11.27
9.86
8.47
7.16
5.89
4.59
3.15
1.51
-0.34
-2.29
-4.26
-6.19
-8.04
-9.82
-11.51
-13.1
-14.63
-16.19
-17.97
-20.14
-22.75
-25.65
-28.5
-30.83
-32.18
-32.17
-30.65
-27.66
-23.48
-18.53
-13.27
-8.16
-3.51
0.49
3.81
6.44
8.44
9.83
10.72
11.24
11.54
11.77
12.03
12.31
12.59
12.85
13.13
13.51
14.05
14.72
15.41
16.0
16.37
16.53
16.48
16.28
15.92
15.35
14.51
13.42
12.17
10.86
9.58
8.32
7.05
5.69
4.26
2.81
1.44
0.22
-0.88
-1.91
-3.03
-4.33
-5.89
-7.66
-9.6
-11.61
-13.63
-15.63
-17.63
-19.73
-22.05
-24.74
-27.81
-31.05
-34.03
-36.11
-36.69
-35.4
-32.25
-27.6
-22.07
-16.31
-10.83
-5.93
-1.75
1.75
4.67
7.14
9.28
11.17
12.78
14.06
14.96
15.49
15.74
15.84
15.91
16.04
16.25
16.56
16.96
17.42
17.91
18.33
18.58
18.58
18.31
17.81
17.15
16.36
15.42
14.32
13.04
11.62
10.14
8.71
7.44
6.38
5.51
4.77
4.0
3.08
1.9
0.43
-1.23
-2.97
-4.63
-6.17
-7.62
-9.09
-10.67
-12.38
-14.19
-15.99
-17.73
-19.5
-21.47
-23.86
-26.74
-29.91
-32.93
-35.21
-36.22
-35.66
-33.51
-29.99
-25.44
-20.2
-14.6
-8.97
-3.68
0.94
4.67
7.46
9.48
11.0
12.23
13.26
14.06
14.56
14.82
15.01
15.37
16.09
17.11
18.23
19.14
19.62
19.61
19.27
18.84
18.47
18.12
17.65
16.86
15.68
14.17
12.53
10.95
9.51
8.13
6.63
4.82
2.65
0.24
-2.16
-4.31
-6.08
-7.54
-8.86
-10.24
-11.82
-13.62
-15.64
-17.9
-20.43
-23.13
-25.73
-27.72
-28.51
-27.66
-25.08
-21.06
-16.13
-10.91
-5.85
-1.23
2.82
6.23
8.99
11.11
12.65
13.71
14.36
14.67
14.68
14.48
14.19
14.0
14.06
14.4
14.98
15.69
16.45
17.2
17.92
18.57
19.08
19.33
19.26
18.85
18.12
17.15
15.97
14.63
13.16
11.64
10.1
8.58
7.02
5.38
3.63
1.85
0.17
-1.29
-2.52
-3.65
-4.94
-6.62
-8.76
-11.2
-13.66
-15.87
-17.72
-19.32
-20.99
-23.04
-25.69
-28.89
-32.34
-35.54
-37.87
-38.74
-37.77
-34.89
-30.39
-24.85
-18.97
-13.33
-8.29
-3.94
-0.17
3.16
6.13
8.77
11.07
12.98
14.51
15.64
16.37
16.74
16.79
16.65
16.46
16.37
16.44
16.69
17.04
17.43
17.8
18.12
18.31
18.33
18.12
17.67
17.04
16.28
15.47
14.65
13.82
12.89
11.79
10.43
8.82
7.04
5.27
3.68
2.36
1.23
0.1
-1.27
-3.06
-5.22
-7.55
-9.76
-11.61
-13.07
-14.27
-15.47
-16.94
-18.85
-21.26
-24.09
-27.14
-30.12
-32.58
-34.07
-34.15
-32.6
-29.46
-25.05
-19.88
-14.48
-9.29
-4.53
-0.32
3.37
6.54
9.17
11.25
12.78
13.83
14.51
14.97
15.35
15.76
16.24
16.79
17.37
17.9
18.31
18.57
18.68
18.73
18.78
18.9
18.98
18.89
18.43
17.51
16.13
14.44
12.61
10.81
9.12
7.51
5.94
4.34
2.64
0.8
-1.19
-3.27
-5.32
-7.23
-8.91
-10.35
-11.66
-13.01
-14.61
-16.63
-19.17
-22.22
-25.65
-29.14
-32.23
-34.35
-35.02
-33.94
-31.15
-26.96
-21.87
-16.44
-11.13
-6.23
-1.87
1.96
5.32
8.28
10.86
13.09
14.91
16.3
17.27
17.85
18.13
18.23
18.27
18.35
18.54
18.87
19.33
19.88
20.45
20.94
21.22
21.16
20.68
19.82
18.65
17.38
16.19
15.17
14.31
13.47
12.47
11.21
9.67
7.99
6.3
4.67
3.11
1.55
-0.05
-1.68
-3.3
-4.87
-6.43
-8.06
-9.83
-11.74
-13.7
-15.63
-17.46
-19.26
-21.18
-23.38
-26.0
-29.05
-32.42
-35.81
-38.77
-40.73
-41.17
-39.77
-36.54
-31.83
-26.23
-20.32
-14.57
-9.21
-4.33
0.04
3.88
7.12
9.76
11.83
13.38
14.47
15.16
15.49
15.58
15.6
15.72
16.07
16.68
17.46
18.3
19.1
19.81
20.41
20.85
20.99
20.71
19.93
18.7
17.25
15.84
14.66
13.77
13.03
12.25
11.25
10.01
8.63
7.24
5.99
4.85
3.75
2.52
1.04
-0.72
-2.72
-4.84
-6.93
-8.87
-10.58
-12.09
-13.55
-15.18
-17.21
-19.82
-23.02
-26.62
-30.19
-33.18
-35.0
-35.19
-33.52
-30.05
-25.14
-19.34
-13.21
-7.28
-1.89
2.76
6.66
9.83
12.34
14.22
15.5
16.22
16.46
16.38
16.16
16.01
16.06
16.41
17.03
17.84
18.73
19.56
20.21
20.58
20.61
20.29
19.65
18.73
17.6
16.31
14.93
13.52
12.15
10.82
9.47
8.01
6.37
4.55
2.63
0.73
-1.07
-2.81
-4.57
-6.49
-8.57
-10.74
-12.84
-14.77
-16.56
-18.36
-20.44
-22.97
-26.04
-29.43
-32.74
-35.43
-36.98
-37.0
-35.38
-32.26
-27.93
-22.78
-17.2
-11.51
-5.99
-0.9
3.57
7.28
10.17
12.3
13.79
14.82
15.62
16.31
16.96
17.52
17.94
18.18
18.32
18.5
18.83
19.34
19.87
20.21
20.13
19.55
18.56
17.39
16.28
15.42
14.82
14.34
13.77
12.91
11.63
9.94
8.0
6.01
4.19
2.64
1.38
0.28
-0.82
-2.12
-3.73
-5.71
-8.02
-10.54
-13.1
-15.53
-17.72
-19.65
-21.44
-23.29
-25.45
-28.07
-31.14
-34.39
-37.31
-39.23
-39.57
-37.96
-34.38
-29.2
-23.04
-16.61
-10.52
-5.13
-0.57
3.18
6.26
8.74
10.69
12.15
13.21
13.99
14.64
15.29
15.97
16.68
17.36
17.94
18.41
18.75
18.99
19.18
19.32
19.39
19.33
19.05
18.47
17.54
16.32
14.89
13.34
11.74
10.12
8.48
6.79
5.06
3.3
1.51
-0.3
-2.15
-4.02
-5.87
-7.69
-9.45
-11.23
-13.14
-15.35
-18.02
-21.11
-24.38
-27.33
-29.33
-29.85
-28.57
-25.53
-21.08
-15.76
-10.13
-4.61
0.46
4.87
8.45
11.1
12.84
13.81
14.25
14.4
14.41
14.37
14.27
14.12
13.98
13.91
13.93
14.03
14.13
14.14
13.99
13.65
13.09
12.28
11.2
9.83
8.21
6.45
4.65
2.89
1.18
-0.51
-2.23
-4.04
-5.94
-7.94
-10.01
-12.14
-14.36
-16.74
-19.38
-22.35
-25.55
-28.7
-31.32
-32.84
-32.8
-30.96
-27.44
-22.66
-17.17
-11.58
-6.38
-1.84
1.94
5.04
7.61
9.75
11.52
12.89
13.82
14.38
14.73
15.06
15.5
16.04
16.49
16.68
16.52
16.08
15.6
15.25
15.05
14.86
14.42
13.53
12.15
10.49
8.81
7.32
6.03
4.78
3.3
1.37
-1.05
-3.81
-6.62
-9.22
-11.43
-13.27
-14.89
-16.53
-18.46
-20.9
-23.95
-27.54
-31.37
-34.91
-37.47
-38.38
-37.21
-33.87
-28.7
-22.35
-15.6
-9.12
-3.34
1.55
5.6
8.96
11.79
14.2
16.21
17.79
18.88
19.52
19.79
19.84
19.8
19.73
19.62
19.43
19.19
18.97
18.87
18.95
19.12
19.24
19.1
18.55
17.55
16.14
14.42
12.58
10.78
9.12
7.65
6.28
4.85
3.14
1.05
-1.38
-4.01
-6.6
-8.99
-11.08
-12.87
-14.42
-15.83
-17.3
-19.1
-21.49
-24.59
-28.28
-32.07
-35.25
-37.09
-37.04
-34.96
-31.07
-25.87
-19.93
-13.8
-7.91
-2.53
2.17
6.14
9.39
12.01
14.08
15.72
16.99
17.95
18.68
19.24
19.72
20.2
20.69
21.16
21.51
21.69
21.7
21.61
21.55
21.57
21.61
21.46
20.87
19.65
17.8
15.56
13.24
11.15
9.42
8.02
6.74
5.37
3.75
1.89
-0.13
-2.13
-4.01
-5.71
-7.32
-8.96
-10.74
-12.77
-15.08
-17.68
-20.55
-23.57
-26.46
-28.77
-29.95
-29.5
-27.21
-23.24
-18.09
-12.43
-6.88
-1.87
2.41
5.93
8.72
10.84
12.34
13.31
13.91
14.31
14.65
14.97
15.27
15.5
15.66
15.79
15.98
16.28
16.67
17.07
17.35
17.42
17.25
16.85
16.23
15.37
14.2
12.69
10.83
8.68
6.34
3.98
1.74
-0.26
-1.95
-3.35
-4.56
-5.74
-7.04
-8.57
-10.34
-12.28
-14.28
-16.31
-18.42
-20.73
-23.37
-26.41
-29.78
-33.23
-36.32
-38.48
-39.18
-38.01
-34.88
-30.08
-24.15
-17.8
-11.62
-6.0
-1.08
3.16
6.81
9.94
12.56
14.7
16.4
17.77
18.91
19.89
20.72
21.39
21.9
22.27
22.52
22.68
22.74
22.68
22.5
22.23
21.89
21.47
20.92
20.18
19.25
18.19
17.12
16.11
15.18
14.26
13.26
12.09
10.75
9.29
7.78
6.27
4.75
3.24
1.74
0.27
-1.14
-2.48
-3.79
-5.13
-6.58
-8.18
-9.96
-11.9
-13.96
-16.07
-18.14
-20.07
-21.82
-23.4
-24.91
-26.57
-28.61
-31.24
-34.47
-38.01
-41.3
-43.62
-44.31
-42.97
-39.6
-34.58
-28.52
-22.04
-15.69
-9.79
-4.5
0.16
4.23
7.74
10.73
13.18
15.08
16.44
17.35
17.92
18.3
18.59
18.84
19.06
19.23
19.37
19.48
19.56
19.58
19.45
19.12
18.52
17.7
16.68
15.54
14.34
13.12
11.89
10.67
9.46
8.24
6.99
5.7
4.4
3.07
1.73
0.35
-1.1
-2.6
-4.13
-5.64
-7.1
-8.56
-10.08
-11.81
-13.81
-16.1
-18.61
-21.16
-23.53
-25.47
-26.65
-26.73
-25.42
-22.6
-18.41
-13.27
-7.77
-2.48
2.21
6.17
9.42
12.06
14.11
15.5
16.2
16.24
15.82
15.21
14.67
14.37
14.36
14.59
14.94
15.31
15.61
15.79
15.82
15.69
15.39
14.87
14.12
13.11
11.88
10.56
9.29
8.16
7.17
6.21
5.13
3.86
2.42
0.91
-0.58
-2.05
-3.63
-5.44
-7.58
-9.96
-12.39
-14.69
-16.78
-18.74
-20.79
-23.15
-25.89
-28.97
-32.17
-35.22
-37.8
-39.59
-40.25
-39.48
-37.04
-32.93
-27.36
-20.85
-14.06
-7.7
-2.26
2.02
5.21
7.63
9.65
11.54
13.42
15.19
16.69
17.74
18.31
18.48
18.43
18.36
18.42
18.68
19.17
19.82
20.55
21.22
21.66
21.74
21.38
20.62
19.56
18.37
17.13
15.87
14.53
13.1
11.61
10.15
8.84
7.7
6.68
5.67
4.55
3.3
1.95
0.58
-0.77
-2.17
-3.75
-5.61
-7.79
-10.19
-12.64
-14.94
-16.99
-18.83
-20.57
-22.43
-24.56
-27.11
-30.08
-33.41
-36.86
-39.98
-42.2
-42.92
-41.73
-38.55
-33.68
-27.68
-21.22
-14.87
-8.97
-3.71
0.85
4.72
7.89
10.39
12.3
13.74
14.85
15.78
16.61
17.4
18.17
18.91
19.58
20.13
20.52
20.78
20.96
21.12
21.27
21.35
21.22
20.76
19.9
18.67
17.16
15.51
13.82
12.2
10.68
9.3
8.05
6.87
5.67
4.36
2.89
1.3
-0.32
-1.89
-3.41
-4.94
-6.56
-8.32
-10.18
-12.07
-13.97
-15.91
-18.02
-20.41
-23.07
-25.79
-28.21
-29.87
-30.35
-29.37
-26.81
-22.8
-17.63
-11.76
-5.71
-0.03
4.88
8.81
11.72
13.74
15.06
15.85
16.26
16.42
16.44
16.4
16.35
16.28
16.21
16.13
16.12
16.3
16.76
17.45
18.21
18.78
18.94
18.6
17.83
16.78
15.57
14.25
12.81
11.24
9.58
7.92
6.39
5.02
3.82
2.7
1.52
0.16
-1.44
-3.35
-5.59
-8.09
-10.75
-13.43
-15.99
-18.34
-20.51
-22.57
-24.69
