0
-109.41
-115.55
-115.69
-109.21
-96.62
-79.41
-59.61
-39.22
-19.85
-2.52
12.28
24.35
33.66
40.3
44.5
46.77
47.85
48.58
49.65
51.38
53.62
55.96
57.98
59.42
60.32
60.83
61.01
60.62
59.24
56.47
52.19
46.69
40.62
34.64
29.19
24.29
19.61
14.69
9.17
2.94
-3.87
-10.91
-17.8
-24.26
-30.26
-36.01
-42.09
-49.26
-58.3
-69.6
-82.8
-96.65
-109.01
-117.43
-119.73
-114.8
-102.9
-85.57
-65.12
-43.95
-23.87
-5.95
9.42
22.17
32.25
39.63
44.4
46.97
48.12
48.84
49.97
51.92
54.59
57.5
60.11
62.06
63.31
64.02
64.35
64.24
63.34
61.21
57.54
52.39
46.25
39.84
33.83
28.53
23.79
19.11
13.93
7.88
0.99
-6.47
-14.08
-21.46
-28.42
-35.02
-41.53
-48.45
-56.45
-66.16
-77.98
-91.66
-106.04
-119.13
-128.47
-131.75
-127.59
-115.93
-98.09
-76.39
-53.45
-31.52
-12.03
4.43
17.91
28.71
37.1
43.24
47.31
49.71
51.15
52.43
54.29
56.99
60.29
63.58
66.23
67.9
68.65
68.81
68.67
68.24
67.2
65.07
61.5
56.49
50.49
44.15
38.15
32.84
28.21
23.84
19.17
13.69
7.19
-0.22
-8.11
-15.97
-23.39
-30.28
-36.94
-44.0
-52.22
-62.23
-74.3
-88.03
-102.32
-115.41
-125.12
-129.41
-126.87
-117.19
-101.28
-81.05
-58.91
-37.05
-17.11
0.01
14.08
25.13
33.35
38.96
42.3
43.91
44.51
44.88
45.73
47.38
49.76
52.51
55.12
57.22
58.69
59.6
60.09
60.12
59.46
57.72
54.66
50.34
45.21
39.9
34.96
30.55
26.41
21.99
16.79
10.6
3.58
-3.82
-11.07
-17.9
-24.33
-30.73
-37.72
-45.94
-55.88
-67.65
-80.76
-94.02
-105.58
-113.28
-115.17
-110.06
-98.0
-80.32
-59.27
-37.45
-17.03
0.63
15.05
26.32
34.81
40.78
44.43
46.02
46.12
45.57
45.33
46.1
48.06
50.87
53.85
56.4
58.2
59.25
59.68
59.5
58.5
56.38
52.9
48.14
42.53
36.63
30.94
25.63
20.49
15.1
9.01
2.03
-5.7
-13.78
-21.7
-29.1
-35.91
-42.49
-49.57
-58.04
-68.63
-81.54
-96.12
-110.79
-123.22
-130.93
-131.88
-125.17
-111.26
-91.89
-69.53
-46.72
-25.44
-6.84
8.73
21.41
31.46
39.13
44.59
48.15
50.36
51.92
53.57
55.72
58.38
61.17
63.67
65.59
66.95
67.93
68.64
68.95
68.45
66.7
63.38
58.58
52.69
46.35
40.14
34.39
29.1
23.95
18.46
12.21
5.02
-2.93
-11.23
-19.33
-26.85
-33.76
-40.5
-47.88
-56.82
-68.01
-81.49
-96.35
-110.66
-121.86
-127.36
-125.37
-115.49
-98.92
-77.99
-55.49
-33.8
-14.43
2.06
15.67
26.66
35.16
41.28
45.24
47.59
49.14
50.78
53.12
56.28
59.87
63.24
65.82
67.45
68.33
68.87
69.35
69.7
69.47
68.07
65.1
60.56
54.93
48.85
42.93
37.47
32.35
27.19
21.55
15.14
7.95
0.21
-7.65
-15.17
-22.06
-28.36
-34.52
-41.33
-49.66
-60.14
-72.71
-86.54
-99.94
-110.73
-116.68
-116.16
-108.55
-94.5
-75.73
-54.6
-33.41
-13.91
2.93
16.83
27.85
36.14
41.84
45.13
46.47
46.55
46.27
46.42
47.49
49.53
52.28
55.33
58.28
60.88
62.96
64.28
64.56
63.45
60.76
56.54
51.17
45.23
39.28
33.68
28.47
23.4
18.11
12.29
5.8
-1.23
-8.52
-15.71
-22.56
-29.08
-35.64
-42.91
-51.7
-62.57
-75.42
-89.22
-102.06
-111.5
-115.29
-112.02
-101.63
-85.38
-65.47
-44.37
-24.18
-6.23
8.94
21.34
31.19
38.67
43.91
47.11
48.71
49.39
49.89
50.84
52.45
54.52
56.59
58.28
59.43
60.1
60.46
60.46
59.82
58.11
54.98
50.37
44.65
38.4
32.29
26.72
21.76
17.12
12.31
6.87
0.57
-6.51
-14.01
-21.45
-28.47
-35.02
-41.42
-48.27
-56.37
-66.38
-78.59
-92.55
-106.98
-119.8
-128.6
-131.23
-126.52
-114.58
-96.87
-75.71
-53.62
-32.67
-14.08
1.73
14.9
25.71
34.35
40.88
45.35
48.07
49.66
50.91
52.52
54.78
57.51
60.17
62.22
63.46
64.04
64.31
64.55
64.66
64.2
62.57
59.29
54.33
48.09
41.34
34.91
29.34
24.71
20.58
16.2
10.84
4.14
-3.75
-12.22
-20.47
-27.95
-34.54
-40.68
-47.2
-55.02
-64.83
-76.81
-90.44
-104.38
-116.7
-125.17
-127.88
-123.7
-112.67
-96.0
-75.73
-54.17
-33.34
-14.63
1.36
14.53
25.06
33.09
38.74
42.19
43.88
44.54
45.05
46.13
48.14
50.91
53.96
56.79
59.11
60.88
62.22
63.14
63.46
62.89
61.19
58.33
54.55
50.24
45.8
41.39
37.01
32.43
27.36
21.58
14.96
7.59
-0.26
-8.23
-15.93
-23.23
-30.23
-37.42
-45.5
-55.13
-66.64
-79.67
-93.08
-104.95
-113.02
-115.28
-110.59
-99.07
-82.13
-62.04
-41.27
-21.78
-4.68
9.65
21.28
30.31
36.78
40.76
42.66
43.27
43.63
44.66
46.75
49.7
52.92
55.77
57.91
59.36
60.3
60.83
60.79
59.79
57.47
53.71
48.75
43.11
37.36
31.93
26.88
21.98
16.82
11.02
4.45
-2.77
-10.27
-17.69
-24.82
-31.75
-38.85
-46.68
-55.78
-66.54
-79.03
-92.75
-106.53
-118.52
-126.46
-128.29
-122.83
-110.26
-92.18
-71.09
-49.58
-29.57
-11.96
3.21
16.25
27.36
36.47
43.36
47.99
50.71
52.23
53.34
54.67
56.42
58.44
60.41
62.02
63.14
63.77
63.98
63.73
62.85
61.05
58.07
53.82
48.49
42.56
36.61
31.09
26.1
21.32
16.14
10.02
2.7
-5.58
-14.26
-22.65
-30.34
-37.34
-44.12
-51.52
-60.39
-71.34
-84.39
-98.73
-112.73
-124.13
-130.5
-130.01
-121.98
-107.18
-87.61
-65.86
-44.34
-24.64
-7.44
7.29
19.77
30.1
38.26
44.23
48.26
51.0
53.21
55.57
58.34
61.37
64.26
66.66
68.35
69.36
69.77
69.63
68.86
67.37
65.01
61.74
57.59
52.71
47.35
41.81
36.33
30.94
25.44
19.51
12.85
5.52
-2.13
-9.56
-16.35
-22.47
-28.44
-35.08
-43.27
-53.65
-66.23
-80.3
-94.39
-106.39
-114.0
-115.26
-109.25
-96.38
-78.36
-57.68
-36.81
-17.55
-0.78
13.38
25.09
34.48
41.54
46.23
48.79
49.81
50.1
50.46
51.41
53.09
55.39
58.03
60.69
63.01
64.61
65.12
64.33
62.22
58.97
54.88
50.19
44.99
39.28
33.1
26.58
20.04
13.76
7.86
2.27
-3.3
-9.18
-15.67
-22.97
-31.28
-40.85
-51.92
-64.51
-78.12
-91.54
-102.88
-109.96
-110.98
-105.04
-92.57
-75.21
-55.29
-35.15
-16.57
-0.44
13.17
24.58
34.1
41.8
47.57
51.3
53.23
53.88
53.98
54.22
54.99
56.33
58.03
59.79
61.32
62.43
62.94
62.63
61.23
58.48
54.29
48.85
42.61
36.08
29.68
23.52
17.46
11.18
4.46
-2.7
-10.1
-17.51
-24.83
-32.2
-39.91
-48.42
-58.12
-69.3
-81.91
-95.35
-108.2
-118.37
-123.53
-121.96
-113.19
-98.25
-79.35
-59.04
-39.36
-21.4
-5.43
8.7
21.06
31.46
39.66
45.57
49.54
52.21
54.3
56.36
58.53
60.65
62.42
63.64
64.28
64.44
64.31
63.91
63.09
61.56
59.06
55.52
51.14
46.31
41.44
36.79
32.29
27.67
22.55
16.63
9.87
2.45
-5.32
-13.17
-20.96
-28.77
-36.83
-45.57
-55.46
-66.85
-79.7
-93.27
-105.94
-115.47
-119.57
-116.7
-106.69
-90.86
-71.57
-51.33
-32.07
-14.77
0.32
13.24
23.93
32.15
37.78
41.01
42.54
43.29
44.11
45.51
47.57
50.07
52.67
55.02
56.82
57.87
58.1
57.59
56.54
55.13
53.35
50.96
47.57
42.88
36.84
29.66
21.72
13.43
5.11
-3.03
-10.79
-18.04
-24.85
-31.51
-38.6
-46.78
-56.58
-68.11
-80.8
-93.33
-103.79
-110.05
-110.37
-103.96
-91.31
-74.06
-54.52
-34.97
-17.0
-1.38
11.75
22.53
31.06
37.33
41.43
43.65
44.65
45.2
46.0
47.41
49.4
51.59
53.55
54.92
55.54
55.4
54.58
53.09
50.88
47.91
44.19
39.75
34.65
28.91
22.51
15.45
7.91
0.16
-7.45
-14.68
-21.52
-28.21
-35.12
-42.7
-51.36
-61.52
-73.41
-86.86
-100.92
-113.77
-122.95
-126.1
-121.8
-110.12
-92.67
-72.02
-50.77
-30.88
-13.27
1.91
14.9
25.87
34.83
41.75
46.7
50.07
52.49
54.57
56.74
59.12
61.51
63.62
65.23
66.29
66.9
67.15
66.96
66.03
63.95
60.39
55.37
49.28
42.75
36.41
30.55
25.07
19.56
13.54
6.76
-0.69
-8.46
-16.16
-23.6
-30.91
-38.53
-47.05
-57.1
-69.05
-82.77
-97.45
-111.51
-122.79
-129.03
-128.54
-120.71
-106.31
-87.17
-65.66
-43.96
-23.65
-5.57
9.96
22.87
33.2
41.05
46.64
50.39
52.85
54.63
56.26
58.07
60.14
62.38
64.59
66.54
68.08
69.16
69.72
69.59
68.5
66.12
62.28
57.13
51.17
45.08
39.37
34.15
29.11
23.73
17.61
10.7
3.25
-4.36
-11.87
-19.23
-26.57
-34.11
-42.16
-51.12
-61.45
-73.42
-86.76
-100.3
-111.96
-119.21
-119.85
-112.81
-98.6
-79.09
-56.85
-34.38
-13.46
4.94
20.51
33.2
42.97
49.75
53.57
54.79
54.2
52.9
51.99
52.28
54.03
56.92
60.28
63.37
65.6
66.7
66.58
65.26
62.77
59.15
54.52
49.12
43.25
37.15
30.88
24.33
17.26
9.55
1.29
-7.18
-15.47
-23.24
-30.44
-37.35
-44.55
-52.8
-62.76
-74.68
-88.1
-101.6
-112.99
-119.72
-119.7
-111.87
-96.76
-76.25
-53.0
-29.66
-8.24
10.17
25.24
37.0
45.61
51.22
54.11
54.87
54.35
53.54
53.27
53.99
55.65
57.87
60.11
61.88
62.84
62.79
61.69
59.55
56.45
52.48
47.78
42.53
36.88
30.99
24.9
18.51
11.64
4.09
-4.18
-12.9
-21.58
-29.74
-37.15
-44.05
-51.15
-59.34
-69.43
-81.78
-95.99
-110.8
-124.17
-133.59
-136.71
-131.99
-119.25
-99.82
-76.17
-51.27
-27.72
-7.21
9.61
22.89
33.15
40.96
46.73
50.79
53.46
55.13
56.22
57.08
57.94
58.89
59.97
61.19
62.53
63.91
65.05
65.55
64.94
62.89
59.31
54.45
48.69
42.52
36.3
30.17
24.07
17.77
11.0
3.62
-4.33
-12.54
-20.55
-28.0
-34.83
-41.46
-48.75
-57.64
-68.81
-82.22
-96.89
-110.93
-121.87
-127.32
-125.62
-116.29
-100.3
-79.7
-57.12
-34.99
-15.03
1.98
15.97
27.24
36.08
42.58
46.85
49.17
50.14
50.56
51.15
52.31
54.03
56.07
58.12
59.96
61.52
62.67
63.2
62.79
61.09
57.97
53.58
48.3
42.61
36.89
31.26
25.62
19.66
13.1
5.86
-1.91
-9.87
-17.6
-24.92
-31.91
-39.02
-46.86
-56.03
-66.84
-79.03
-91.62
-102.82
-110.39
-112.2
-106.93
-94.54
-76.38
-54.78
-32.39
-11.38
6.9
21.87
33.49
41.84
46.95
48.95
48.26
45.78
42.81
40.68
40.32
42.01
45.23
49.02
52.32
54.41
55.04
54.33
52.61
50.14
47.09
43.44
39.15
34.12
28.3
21.67
14.37
6.63
-1.16
-8.65
-15.69
-22.42
-29.28
-36.91
-45.85
-56.47
-68.72
-82.03
-95.21
-106.46
-113.64
-114.75
-108.6
-95.36
-76.59
-54.82
-32.68
-12.13
5.91
21.31
34.2
44.51
51.82
55.65
56.0
53.54
49.6
45.65
42.9
41.88
42.45
43.96
45.66
46.87
47.17
46.39
44.62
42.09
39.09
35.78
32.21
28.24
23.63
18.24
12.09
5.41
-1.47
-8.26
-14.84
-21.32
-27.98
-35.12
-43.1
-52.29
-63.0
-75.34
-88.84
-102.28
-113.64
-120.58
-121.07
-114.12
-100.13
-80.79
-58.52
-35.77
-14.46
4.26
19.96
32.68
42.65
50.18
55.61
59.32
61.82
63.66
65.36
67.24
69.33
71.43
73.17
74.28
74.66
74.4
73.63
72.33
70.36
67.51
63.7
59.07
53.88
48.36
42.56
36.34
29.51
21.97
13.85
5.42
-3.01
-11.24
-19.24
-27.13
-35.22
-43.94
-53.83
-65.3
-78.28
-91.92
-104.45
-113.52
-116.82
-112.93
-101.75
-84.64
-63.91
-42.15
-21.47
-3.18
12.21
24.73
34.55
41.84
46.69
49.27
50.02
49.64
48.96
48.73
49.39
50.94
53.08
55.23
56.89
57.73
57.66
56.76
55.21
53.07
50.27
46.68
42.14
36.62
30.27
23.41
16.37
9.48
2.93
-3.23
-9.06
-14.76
-20.55
-26.78
-33.85
-42.2
-52.18
-63.82
-76.47
-88.74
-98.52
-103.51
-101.92
-93.16
-78.15
-59.07
-38.63
-19.19
-2.21
11.88
23.24
32.11
38.55
42.44
43.84
43.26
41.68
40.29
40.03
41.24
43.61
46.38
48.71
49.93
49.76
48.25
45.73
42.65
39.44
36.29
33.15
29.7
25.51
20.25
13.86
6.64
-0.96
-8.47
-15.58
-22.25
-28.66
-35.11
-41.98
-49.72
-58.8
-69.56
-81.87
-94.83
-106.69
-115.1
-117.79
-113.36
-101.81
-84.62
-64.27
-43.38
-24.03
-7.33
6.5
17.72
26.69
33.6
38.55
41.67
43.31
44.06
44.62
45.53
47.06
49.08
51.18
52.91
53.91
54.07
53.51
52.43
50.95
49.04
46.53
43.21
38.99
33.91
28.16
21.92
15.3
8.39
1.27
-5.9
-12.89
-19.57
-25.96
-32.36
-39.33
-47.48
-57.38
-69.18
-82.46
-96.04
-107.99
-115.99
-117.97
-112.74
-100.49
-82.79
-62.16
-41.14
-21.73
-4.94
9.09
20.59
29.84
36.97
41.99
45.09
46.7
47.47
48.01
48.75
49.79
51.03
52.3
53.46
54.5
55.39
56.02
56.16
55.48
53.72
50.76
46.72
41.84
36.44
30.69
24.62
18.17
11.28
3.99
-3.49
-10.87
-17.92
-24.52
-30.84
-37.26
-44.32
-52.66
-62.75
-74.67
-87.77
-100.62
-111.09
-116.98
-116.59
-109.39
-96.17
-78.79
-59.53
-40.39
-22.74
-7.12
6.4
17.91
27.35
34.53
39.26
41.62
42.1
41.59
41.13
41.56
43.23
45.94
49.04
51.78
53.54
54.04
53.31
51.64
49.29
46.43
43.06
39.05
34.23
28.51
22.0
14.97
7.8
0.83
-5.82
-12.19
-18.63
-25.55
-33.4
-42.5
-53.04
-64.88
-77.42
-89.5
-99.37
-105.05
-104.86
-97.99
-84.88
-67.13
-47.04
-26.81
-8.05
8.5
22.67
34.47
43.82
50.48
54.36
55.79
55.61
54.98
54.94
56.07
58.3
61.07
63.6
65.25
65.69
64.91
63.11
60.47
57.0
52.55
46.78
39.45
30.53
20.41
9.73
-0.79
-10.62
-19.6
-27.98
-36.27
-45.06
-54.9
-66.2
-79.15
-93.48
-108.13
-121.22
-130.32
-133.09
-128.14
-115.55
-96.96
-74.93
-52.12
-30.49
-10.99
6.23
21.34
34.36
45.04
53.03
58.23
60.98
62.03
62.3
62.62
63.47
64.99
66.98
69.11
70.98
72.15
72.25
71.06
68.53
64.79
60.07
54.54
48.23
41.06
33.01
24.28
15.26
6.44
-1.87
-9.6
-17.02
-24.57
-32.71
-41.9
-52.59
-65.08
-79.34
-94.62
-109.3
-121.03
-127.31
-126.22
-117.14
-100.96
-79.77
-56.2
-32.64
-10.76
8.55
25.02
38.65
49.41
57.3
62.4
65.06
65.96
65.99
65.96
66.4
67.42
68.81
70.23
71.37
72.04
72.1
71.44
69.86
67.21
63.51
58.97
53.88
48.5
42.91
37.01
30.58
23.48
15.73
7.52
-0.84
-9.08
-17.03
-24.77
-32.6
-41.05
-50.82
-62.48
-76.2
-91.4
-106.49
-119.12
-126.63
-126.89
-118.96
-103.53
-82.63
-59.02
-35.3
-13.29
6.14
22.81
36.78
47.99
56.21
61.3
63.44
63.29
61.92
60.5
60.0
60.94
63.24
66.31
69.24
71.17
71.53
70.2
67.47
63.78
59.49
54.72
49.38
43.34
36.6
29.32
21.76
14.17
6.66
-0.74
-8.07
-15.41
-22.94
-30.94
-39.86
-50.13
-62.03
-75.37
-89.32
-102.26
-112.04
-116.44
-113.76
-103.49
-86.56
-65.11
-41.93
-19.57
0.28
16.94
30.46
41.13
49.12
54.4
57.0
57.27
56.02
54.36
53.3
53.46
54.87
57.1
59.45
61.27
62.1
61.64
59.81
56.66
52.36
47.19
41.46
35.5
29.45
23.27
16.76
9.72
2.05
-6.14
-14.57
-22.94
-31.06
-38.98
-47.0
-55.61
-65.38
-76.82
-89.96
-104.1
-117.62
-128.12
-133.04
-130.45
-119.83
-102.27
-80.08
-56.05
-32.53
-11.03
7.78
23.75
36.77
46.77
53.75
58.02
60.29
61.44
62.32
63.43
64.89
66.51
68.02
69.2
69.96
70.31
70.24
69.64
68.34
66.08
62.63
57.96
52.28
46.01
39.61
33.32
27.11
20.61
13.49
5.56
-2.96
-11.65
-19.98
-27.64
-34.65
-41.37
-48.42
-56.55
-66.45
-78.48
-92.29
-106.59
-119.12
-127.19
-128.4
-121.54
-106.98
-86.63
-63.29
-39.72
-17.99
0.83
16.5
29.18
39.08
46.32
51.0
53.39
54.02
53.63
52.98
52.66
52.97
53.92
55.27
56.68
57.76
58.22
57.84
56.6
54.55
51.81
48.43
44.41
39.75
34.51
28.74
22.53
15.89
8.83
1.41
-6.15
-13.48
-20.26
-26.43
-32.33
-38.67
-46.36
-56.08
-68.02
-81.66
-95.66
-108.01
-116.34
-118.49
-113.21
-100.55
-82.04
-60.21
-37.82
-17.09
0.77
15.48
27.28
36.44
43.06
47.15
48.89
48.9
48.18
47.76
48.33
50.03
52.42
54.77
56.41
56.97
56.46
55.14
53.31
51.11
48.39
44.8
39.87
33.36
25.37
16.41
7.27
-1.31
-8.94
-15.74
-22.21
-29.05
-36.85
-46.02
-56.77
-69.1
-82.58
-96.16
-108.03
-115.88
-117.49
-111.57
-98.29
-79.29
-57.16
-34.54
-13.47
4.94
20.34
32.77
42.38
49.33
53.89
56.54
57.91
58.68
59.43
60.53
62.13
64.22
66.64
69.11
71.18
72.37
72.22
70.52
67.3
62.78
57.29
50.99
43.95
36.16
27.67
18.77
9.86
1.35
-6.51
-13.77
-20.78
-28.06
-36.2
-45.8
-57.32
-71.01
-86.64
-103.34
-119.42
-132.58
-140.31
-140.71
-133.02
-117.96
-97.55
-74.54
-51.58
-30.68
-12.85
1.8
13.62
23.09
30.55
36.23
40.35
43.27
45.51
47.59
49.88
52.42
55.04
57.41
59.31
60.62
61.31
61.32
60.43
58.38
55.01
50.39
44.82
38.75
32.54
26.29
19.9
13.13
5.85
-1.92
-9.95
-17.94
-25.7
-33.18
-40.53
-48.05
-56.19
-65.52
-76.55
-89.45
-103.58
-117.33
-128.23
-133.57
-131.33
-120.92
-103.39
-81.07
-56.71
-32.75
-10.86
8.1
23.79
36.14
45.25
51.39
55.04
56.83
57.46
57.62
57.84
58.48
59.69
61.37
63.28
65.12
66.63
67.65
68.1
67.83
66.59
64.13
60.33
55.36
49.64
43.72
37.97
32.44
26.87
20.88
14.28
7.15
-0.18
-7.33
-14.13
-20.7
-27.45
-34.95
-43.72
-54.14
-66.21
-79.31
-92.08
-102.42
-107.9
-106.52
-97.42
-81.31
-60.37
-37.48
-15.4
4.01
19.94
32.39
41.67
48.05
51.71
52.92
52.21
50.47
48.72
47.84
48.32
50.15
52.85
55.69
57.87
58.76
58.09
55.88
52.45
48.22
43.54
38.65
33.61
28.38
22.91
17.12
10.93
4.26
-2.91
-10.46
-18.17
-25.71
-32.91
-39.85
-46.97
-55.01
-64.74
-76.59
-90.31
-104.75
-117.84
-127.02
-129.85
-124.78
-111.72
-92.13
-68.63
-44.17
-21.25
-1.31
15.17
28.36
38.6
46.12
51.06
53.66
54.51
54.44
54.34
54.82
56.05
57.81
59.71
61.41
62.71
63.55
63.8
63.27
61.68
58.83
54.7
49.52
43.66
37.51
31.31
25.1
18.7
11.92
4.63
-3.12
-11.11
-19.01
-26.56
-33.7
-40.72
-48.21
-56.96
-67.7
-80.65
-95.27
-109.96
-122.31
-129.62
-129.68
-121.47
-105.61
-84.19
-60.12
-36.29
-14.84
3.17
17.66
29.06
37.87
44.43
48.87
51.41
52.49
52.81
53.2
54.23
56.05
58.35
60.63
62.47
63.7
64.4
64.65
64.4
63.31
60.99
57.13
51.79
45.4
38.54
31.71
25.1
18.56
11.79
4.53
-3.23
-11.23
-19.06
-26.44
-33.3
-39.96
-47.03
-55.31
-65.53
-78.03
-92.43
-107.38
-120.65
-129.47
-131.41
-125.05
-110.64
-90.01
-65.95
-41.42
-18.72
0.83
16.88
29.57
39.23
46.13
50.5
52.64
53.13
52.71
52.23
52.41
53.62
55.85
58.71
61.63
64.01
65.42
65.65
64.68
62.58
59.43
55.32
50.33
44.59
38.18
31.18
23.64
15.62
7.28
-1.15
-9.36
-17.15
-24.55
-31.86
-39.55
-48.23
-58.43
-70.45
-84.16
-98.69
-112.36
-122.74
-127.24
-123.89
-112.14
-93.21
-69.72
-44.88
-21.43
-1.03
15.81
29.36
39.99
47.9
53.16
55.95
56.83
56.71
56.54
57.0
58.31
60.29
62.59
64.87
66.88
68.36
69.01
68.43
66.35
62.69
57.67
51.67
45.05
38.0
30.49
22.38
13.64
4.4
-5.03
-14.27
-23.06
-31.33
-39.32
-47.4
-56.15
-66.18
-78.0
-91.83
-107.23
-122.91
-136.68
-145.87
-148.0
-141.55
-126.59
-104.73
-78.74
-51.65
-26.05
-3.55
15.21
30.3
42.14
51.13
57.65
62.0
64.66
66.19
67.26
68.47
70.13
72.23
74.43
76.33
77.57
78.02
77.66
76.47
74.35
71.16
66.81
61.42
55.33
48.95
42.53
36.12
29.45
22.18
14.1
5.23
-4.14
-13.63
-22.91
-31.89
-40.81
-50.21
-60.85
-73.44
-88.24
-104.7
-121.11
-134.89
-143.07
-143.24
-134.39
-117.3
-94.29
-68.43
-42.67
-19.13
1.18
18.0
31.54
42.09
49.89
55.19
58.38
60.06
60.92
61.64
62.67
64.23
66.23
68.37
70.29
71.67
72.31
72.11
71.03
69.04
66.16
62.35
57.62
52.03
45.69
38.69
31.15
23.22
15.06
6.92
-0.99
-8.56
-15.91
-23.4
-31.6
-41.12
-52.44
-65.71
-80.43
-95.28
-108.13
-116.4
-117.73
-110.74
-95.69
-74.52
-50.27
-26.07
-4.2
14.35
29.62
42.01
51.73
58.59
62.32
63.09
61.71
59.55
57.94
57.73
58.94
60.97
62.92
64.04
63.97
62.75
60.64
57.98
54.96
51.56
47.51
42.36
35.71
27.4
17.65
7.11
-3.35
-12.99
-21.41
-28.76
-35.72
-43.27
-52.53
-64.31
-78.8
-95.3
-112.04
-126.4
-135.49
-136.92
-129.58
-113.99
-92.19
-67.09
-41.6
-17.92
2.79
20.2
34.5
45.88
54.46
60.24
63.42
64.47
64.19
63.5
63.19
63.7
65.0
66.67
68.13
68.86
68.56
67.26
65.21
62.66
59.71
56.12
51.48
45.38
37.7
28.72
19.11
9.63
0.8
-7.22
-14.65
-21.91
-29.48
-37.81
-47.36
-58.59
-71.82
-86.87
-102.71
-117.36
-128.16
-132.44
-128.41
-115.77
-95.98
-71.74
-46.2
-22.04
-0.89
16.76
31.16
42.74
51.75
58.18
62.05
63.66
63.78
63.39
63.41
64.31
66.05
68.14
70.03
71.28
71.72
71.3
69.98
67.69
64.32
59.82
54.37
48.29
41.93
35.54
29.11
22.45
15.27
7.43
-1.0
-9.71
-18.4
-26.91
-35.38
-44.28
-54.23
-65.82
-79.25
-94.0
-108.68
-121.07
-128.58
-128.99
-121.18
-105.66
-84.43
-60.41
-36.46
-14.67
3.98
19.34
31.68
41.22
48.03
52.18
53.94
53.92
53.0
52.11
51.97
52.91
54.81
57.21
59.46
60.97
61.37
60.58
58.82
56.33
53.24
49.5
44.88
39.21
32.49
24.96
17.04
9.15
1.55
-5.66
-12.57
-19.41
-26.45
-34.08
-42.79
-53.09
-65.33
-79.33
-94.08
-107.67
-117.59
-121.36
-117.37
-105.47
-87.09
-64.8
-41.47
-19.46
-0.11
16.17
29.53
40.18
48.16
53.36
55.82
55.91
54.48
52.61
51.38
51.42
52.8
55.02
57.23
58.59
58.61
57.21
54.69
51.45
47.74
43.6
38.85
33.25
26.66
19.1
10.79
2.05
-6.71
-15.09
-22.82
-29.96
-36.9
-44.36
-53.12
-63.8
-76.54
-90.87
-105.56
-118.72
-128.05
-131.35
-127.07
-115.05
-96.57
-74.13
-50.61
-28.43
-8.9
7.74
21.82
33.74
43.49
50.86
55.67
58.1
58.85
58.91
59.23
60.38
62.39
64.81
66.97
68.24
68.2
66.79
64.16
60.56
56.19
51.23
45.74
39.78
33.36
26.46
19.07
11.21
2.98
-5.46
-13.92
-22.33
-30.74
-39.37
-48.51
-58.51
-69.69
-82.13
-95.51
-108.76
-120.07
-127.14
-127.87
-121.13
-107.25
-87.98
-65.88
-43.46
-22.52
-3.89
12.27
26.06
37.4
46.05
51.77
54.64
55.25
54.65
54.05
54.34
55.82
58.03
60.06
61.01
60.36
58.23
55.2
51.91
48.73
45.6
42.11
37.78
32.35
25.83
18.48
10.68
2.81
-4.86
-12.15
-19.1
-25.93
-33.06
-41.04
-50.41
-61.45
-73.97
-87.09
-99.19
-108.24
-112.14
-109.43
-99.77
-84.12
-64.4
-42.9
-21.69
-2.2
14.81
29.0
40.16
48.14
52.91
54.79
54.48
52.99
51.42
50.57
50.76
51.8
53.13
54.15
54.51
54.15
53.25
51.91
49.89
46.63
41.55
34.39
25.48
15.76
6.35
-1.92
-8.86
-14.89
-20.88
-27.83
-36.59
-47.7
-61.13
-75.99
-90.53
-102.17
-108.26
-106.81
-97.3
-80.8
-59.67
-36.68
-14.26
5.97
23.2
37.19
47.91
55.43
59.91
61.79
61.8
60.93
60.13
60.15
61.21
63.01
64.89
66.13
66.17
64.92
62.57
59.42
55.63
51.04
45.25
37.9
28.83
18.31
7.0
-4.21
-14.55
-23.46
-30.87
-37.21
-43.33
-50.39
-59.53
-71.49
-86.11
-102.06
-116.83
-127.33
-130.79
-125.73
-112.38
-92.61
-69.22
-45.0
-22.07
-1.61
15.91
30.37
41.75
50.07
55.51
58.62
60.18
61.07
62.0
63.34
65.04
66.79
68.12
68.63
68.11
66.62
64.38
61.68
58.74
55.59
52.08
47.93
42.81
36.52
29.02
20.5
11.4
2.27
-6.35
-14.18
-21.34
-28.35
-36.06
-45.29
-56.63
-70.08
-84.97
-99.88
-112.8
-121.36
-123.48
-117.93
-104.82
-85.74
-63.26
-40.21
-18.86
-0.44
14.8
27.12
36.87
44.18
49.03
51.57
52.3
52.1
51.92
52.45
53.91
55.97
58.02
59.42
59.82
59.23
57.94
56.33
54.64
52.78
50.38
46.93
42.0
35.49
27.68
19.16
10.65
2.73
-4.36
-10.75
-16.94
-23.61
-31.43
-40.96
-52.37
-65.28
-78.6
-90.51
-98.73
-101.09
-96.17
-83.91
-65.72
-44.08
-21.81
-1.29
16.08
29.78
39.89
46.73
50.58
51.79
50.97
49.03
47.01
45.86
46.03
47.43
49.56
51.69
53.16
53.5
52.51
50.26
47.0
43.12
38.92
34.47
29.6
23.97
17.32
9.67
1.4
-6.91
-14.76
-21.97
-28.76
-35.6
-43.02
-51.49
-61.39
-72.94
-86.08
-100.1
-113.47
-123.86
-128.72
-126.08
-115.44
-97.97
-76.15
-52.98
-30.95
-11.55
4.81
18.33
29.33
37.95
44.16
48.01
49.79
50.17
50.0
50.02
50.68
52.01
53.71
55.27
56.2
56.18
55.09
52.98
50.05
46.52
42.61
38.43
33.96
29.06
23.54
17.25
10.22
2.68
-5.0
-12.42
-19.35
-25.85
-32.29
-39.23
-47.34
-57.19
-69.12
-82.98
-97.86
-111.97
-122.83
-127.76
-124.81
-113.51
-95.1
-72.23
-48.04
-25.14
-5.02
11.93
26.03
37.65
46.85
53.52
57.6
59.43
59.73
59.37
59.1
59.26
59.85
60.6
61.29
61.7
61.71
61.16
59.86
57.61
54.33
50.11
45.16
39.72
33.89
27.63
20.81
13.42
5.58
-2.39
-10.17
-17.56
-24.56
-31.36
-38.24
-45.52
-53.61
-62.99
-74.15
-87.35
-102.08
-116.87
-129.27
-136.47
-136.18
-127.51
-111.31
-89.95
-66.48
-43.64
-23.23
-5.9
8.45
20.15
29.35
35.97
39.9
41.34
41.02
40.08
39.69
40.62
42.96
46.15
49.26
51.51
52.5
52.3
51.25
49.63
47.53
44.81
41.19
36.5
30.66
23.76
15.97
7.57
-1.09
-9.59
-17.59
-24.9
-31.66
-38.33
-45.62
-54.37
-65.23
-78.43
-93.38
-108.51
-121.4
-129.29
-129.86
-122.09
-106.64
-85.62
-61.92
-38.21
-16.37
2.69
18.79
31.94
42.09
49.19
53.39
55.18
55.46
55.26
55.49
56.68
58.86
61.64
64.37
66.32
66.95
66.11
64.01
61.14
57.97
54.69
51.01
46.41
40.32
32.51
23.24
13.16
3.02
-6.6
-15.5
-23.84
-32.07
-40.76
-50.57
-62.14
-75.89
-91.76
-108.88
-125.38
-138.72
-146.16
-145.64
-136.41
-119.29
-96.4
-70.55
-44.45
-20.16
1.21
19.31
34.28
46.39
55.92
63.05
68.03
71.27
73.35
74.93
76.56
78.56
80.92
83.41
85.73
87.6
88.81
89.15
88.39
86.28
82.69
77.71
71.65
64.93
57.86
50.52
42.78
34.38
25.15
15.11
4.49
-6.37
-17.12
-27.65
-38.09
-48.86
-60.64
-74.18
-89.95
-107.67
-126.03
-142.57
-154.2
-158.08
-152.49
-137.53
-115.13
-88.39
-60.64
-34.49
-11.31
8.58
25.52
39.87
51.7
60.88
67.37
71.41
73.74
75.26
76.82
78.84
81.28
83.76
85.8
87.03
87.27
86.5
84.78
82.19
78.79
74.63
69.69
63.91
57.2
49.5
40.92
31.73
22.32
13.06
4.18
-4.36
-12.76
-21.4
-30.71
-41.2
-53.34
-67.4
-83.09
-99.29
-113.9
-124.16
-127.39
-121.88
-107.54
-85.99
-60.07
-32.97
-7.28
15.41
34.5
49.98
61.91
70.32
75.22
76.91
76.13
74.04
71.91
70.73
70.91
72.19
73.83
74.97
74.99
73.67
71.21
68.03
64.48
60.65
56.33
51.07
44.5
36.51
27.42
17.84
8.44
-0.25
-8.15
-15.57
-23.15
-31.65
-41.75
-53.95
-68.41
-84.74
-101.86
-117.82
-130.04
-135.86
-133.33
-121.93
-102.82
-78.57
-52.3
-26.83
-4.02
15.39
31.46
44.54
54.92
62.64
67.69
70.28
70.95
70.57
70.11
70.3
71.36
73.0
74.59
75.51
75.37
74.16
72.08
69.4
66.22
62.42
57.82
52.18
45.42
37.59
28.94
19.81
10.6
1.67
-6.75
-14.7
-22.45
-30.51
-39.51
-50.05
-62.56
-77.11
-93.21
-109.54
-124.0
-134.03
-137.23
-132.15
-118.82
-98.88
-75.01
-50.15
-26.66
-5.88
11.9
26.89
39.39
49.43
56.85
61.56
63.82
64.27
63.84
63.39
63.44
64.1
65.18
66.35
67.3
67.83
67.73
66.8
64.83
61.62
57.13
51.52
45.07
38.18
31.22
24.43
17.81
11.21
4.38
-2.8
-10.31
-17.97
-25.67
-33.49
-41.79
-51.19
-62.21
-75.06
-89.25
-103.55
-116.02
-124.41
-126.69
-121.65
-109.32
-91.0
-68.97
-45.81
-23.72
-4.12
12.45
26.02
36.78
44.85
50.23
53.0
53.56
52.69
51.45
50.82
51.42
53.31
56.01
58.74
60.72
61.45
60.77
58.86
56.1
52.85
49.36
45.62
41.43
36.45
30.37
23.13
14.98
6.38
-2.09
-10.08
-17.58
-24.9
-32.57
-41.14
-51.04
-62.42
-75.08
-88.27
-100.61
-110.15
-114.77
-112.79
-103.6
-87.96
-67.84
-45.83
-24.33
-4.97
11.49
24.98
35.7
43.78
49.26
52.24
53.05
52.41
51.24
50.47
50.69
52.02
54.08
56.23
57.76
58.15
57.23
55.07
51.96
48.15
43.81
38.92
33.39
27.15
20.17
12.54
4.39
-4.1
-12.8
-21.55
-30.19
-38.53
-46.57
-54.59
-63.25
-73.43
-85.74
-100.08
-115.13
-128.51
-137.29
-138.98
-132.35
-117.87
-97.53
-74.05
-50.14
-27.73
-7.87
9.17
23.51
35.29
44.57
51.3
55.55
57.62
58.14
57.91
57.76
58.26
59.53
61.34
63.23
64.75
65.58
65.48
64.3
61.89
58.16
53.22
47.43
41.2
34.85
28.39
21.56
13.98
5.44
-3.93
-13.7
-23.3
-32.36
-40.81
-48.94
-57.28
-66.54
-77.38
-90.15
-104.59
-119.48
-132.68
-141.48
-143.4
-137.03
-122.58
-101.83
-77.54
-52.57
-29.14
-8.53
8.84
23.04
34.28
42.8
48.78
52.54
54.49
55.26
55.52
55.9
56.8
58.3
60.2
62.06
63.45
64.11
63.99
63.17
61.66
59.35
56.07
51.7
46.35
40.27
33.76
26.98
19.89
12.36
4.33
-4.05
-12.44
-20.54
-28.28
-35.92
-44.0
-53.21
-64.11
-76.94
-91.32
-106.03
-119.06
-127.83
-129.9
-123.76
-109.51
-88.87
-64.72
-40.1
-17.3
2.53
19.21
33.01
44.03
52.1
57.03
58.96
58.63
57.27
56.14
56.13
57.46
59.7
62.06
63.73
64.15
63.18
61.02
58.09
54.84
51.5
48.0
43.98
38.96
32.61
24.88
16.12
6.89
-2.29
-11.03
-19.3
-27.32
-35.58
-44.72
-55.48
-68.47
-83.89
-101.06
-118.25
-132.76
-141.57
-142.24
-133.78
