0
25.15
25.85
26.51
27.2
27.88
28.42
28.78
29.04
29.34
29.83
30.52
31.28
31.87
32.04
31.6
30.5
28.84
26.88
24.92
23.18
21.69
20.34
18.9
17.18
15.15
12.91
10.65
8.53
6.64
4.93
3.31
1.67
-0.08
-1.97
-4.0
-6.16
-8.46
-10.94
-13.63
-16.5
-19.47
-22.41
-25.25
-28.01
-30.84
-33.92
-37.34
-41.01
-44.67
-48.03
-50.91
-53.31
-55.49
-57.74
-60.41
-63.7
-67.66
-72.21
-77.07
-81.78
-85.66
-87.96
-87.97
-85.22
-79.64
-71.6
-61.76
-50.83
-39.34
-27.58
-15.62
-3.52
8.56
20.25
31.12
40.71
48.73
55.05
59.69
62.79
64.6
65.5
65.83
65.87
65.74
65.37
64.64
63.47
61.88
59.97
57.77
55.25
52.33
49.0
45.36
41.65
38.13
34.91
31.94
29.06
26.1
22.93
19.56
16.06
12.56
9.21
6.1
3.3
0.75
-1.67
-4.17
-6.91
-10.02
-13.5
-17.22
-21.01
-24.66
-28.08
-31.28
-34.46
-37.91
-41.82
-46.16
-50.54
-54.28
-56.49
-56.39
-53.51
-47.81
-39.68
-29.91
-19.46
-9.27
-0.08
7.69
13.92
18.71
22.27
24.78
26.45
27.46
28.04
28.42
28.74
29.03
29.24
29.28
29.15
28.92
28.73
28.67
28.75
28.89
28.98
28.88
28.52
27.85
26.85
25.52
23.89
22.07
20.22
18.48
16.93
15.53
14.15
12.63
10.89
8.95
6.96
5.14
3.59
2.3
1.13
-0.1
-1.53
-3.22
-5.14
-7.21
-9.33
-11.42
-13.34
-15.04
-16.55
-18.05
-19.73
-21.82
-24.39
-27.37
-30.6
-33.88
-37.02
-39.97
-42.77
-45.62
-48.78
-52.61
-57.27
-62.52
-67.64
-71.48
-72.78
-70.6
-64.63
-55.28
-43.57
-30.77
-18.15
-6.67
3.1
11.05
17.31
22.18
26.0
29.0
31.34
33.13
34.5
35.53
36.33
36.99
37.57
38.18
38.94
39.95
41.21
42.59
43.84
44.68
44.93
44.5
43.42
41.74
39.53
36.86
33.87
30.74
27.68
24.86
22.38
20.22
18.31
16.6
15.07
13.77
12.71
11.85
11.1
10.34
9.51
8.59
7.62
6.57
5.32
3.7
1.52
-1.25
-4.46
-7.86
-11.11
-14.0
-16.49
-18.76
-21.05
-23.62
-26.62
-30.06
-33.82
-37.66
-41.38
-44.83
-48.04
-51.26
-54.83
-59.14
-64.38
-70.37
-76.41
-81.32
-83.69
-82.25
-76.29
-65.94
-52.15
-36.46
-20.57
-5.92
6.54
16.44
23.81
28.99
32.37
34.39
35.46
35.88
35.95
35.88
35.89
36.19
36.9
38.06
39.52
41.02
42.37
43.44
44.3
45.07
45.77
46.23
46.12
45.08
42.94
39.77
35.9
31.77
27.78
24.15
20.9
17.91
14.98
11.92
8.61
5.12
1.65
-1.54
-4.2
-6.22
-7.71
-8.91
-10.14
-11.67
-13.73
-16.43
-19.74
-23.47
-27.3
-30.9
-34.05
-36.76
-39.38
-42.43
-46.43
-51.6
-57.64
-63.7
-68.44
-70.39
-68.36
-61.77
-50.96
-37.07
-21.76
-6.74
6.67
17.72
26.22
32.3
36.24
38.42
39.25
39.25
38.9
38.61
38.55
38.68
38.9
39.06
39.16
39.26
39.42
39.63
39.82
39.92
39.88
39.68
39.33
38.73
37.72
36.13
33.88
31.05
27.87
24.66
21.66
18.98
16.59
14.35
12.17
10.08
8.19
6.54
5.11
3.74
2.23
0.44
-1.66
-3.98
-6.39
-8.75
-10.94
-12.91
-14.66
-16.27
-17.95
-19.96
-22.5
-25.66
-29.35
-33.32
-37.33
-41.15
-44.76
-48.28
-52.0
-56.29
-61.45
-67.48
-73.87
-79.56
-83.04
-82.79
-77.78
-67.83
-53.78
-37.23
-20.07
-4.05
9.63
20.44
28.4
33.96
37.7
40.17
41.77
42.71
43.11
43.09
42.79
42.44
42.24
42.37
42.89
43.75
44.8
45.87
46.8
47.47
47.78
47.64
46.95
45.54
43.34
40.34
36.67
32.59
28.41
24.36
20.6
17.18
14.06
11.22
8.63
6.26
4.08
2.01
0.03
-1.84
-3.53
-5.02
-6.33
-7.56
-8.87
-10.37
-12.1
-14.02
-16.07
-18.22
-20.5
-23.02
-25.91
-29.16
-32.67
-36.18
-39.4
-42.19
-44.57
-46.81
-49.27
-52.35
-56.31
-61.25
-66.94
-72.78
-77.79
-80.68
-80.14
-75.27
-65.9
-52.73
-37.17
-20.92
-5.55
7.82
18.65
26.85
32.62
36.32
38.4
39.26
39.29
38.81
38.07
37.28
36.64
36.32
36.41
36.86
37.53
38.24
38.86
39.34
39.68
39.88
39.79
39.18
37.76
35.36
32.0
27.98
23.74
19.8
16.44
13.72
11.4
9.14
6.65
3.9
1.03
-1.67
-3.97
-5.82
-7.38
-8.89
-10.61
-12.7
-15.25
-18.25
-21.65
-25.33
-29.14
-32.89
-36.43
-39.71
-42.88
-46.24
-50.14
-54.86
-60.3
-65.8
-70.2
-72.02
-69.95
-63.33
-52.43
-38.35
-22.76
-7.3
6.72
18.56
27.96
34.98
39.77
42.6
43.82
43.8
42.98
41.74
40.38
39.13
38.15
37.55
37.4
37.67
38.28
39.06
39.75
40.19
40.26
39.95
39.27
38.22
36.71
34.64
31.97
28.8
25.35
21.87
18.55
15.48
12.6
9.89
7.33
5.06
3.24
1.93
1.08
0.44
-0.29
-1.38
-2.99
-5.07
-7.48
-9.91
-12.08
-13.82
-15.13
-16.22
-17.45
-19.21
-21.74
-25.11
-29.19
-33.63
-38.03
-42.06
-45.59
-48.69
-51.73
-55.17
-59.4
-64.5
-70.02
-75.06
-78.29
-78.38
-74.28
-65.6
-52.72
-36.78
-19.44
-2.46
12.61
24.82
33.82
39.83
43.32
44.88
45.04
44.26
42.97
41.57
40.39
39.62
39.31
39.36
39.63
40.01
40.38
40.73
41.05
41.36
41.61
41.7
41.41
40.57
39.01
36.74
33.87
30.61
27.14
23.55
19.9
16.23
12.67
9.4
6.63
4.47
2.91
1.79
0.89
0.02
-1.03
-2.39
-4.16
-6.34
-8.83
-11.43
-13.94
-16.2
-18.18
-19.98
-21.81
-23.93
-26.54
-29.72
-33.4
-37.3
-41.06
-44.37
-47.08
-49.33
-51.51
-54.17
-57.82
-62.67
-68.47
-74.38
-79.06
-81.01
-78.92
-72.15
-60.91
-46.32
-29.98
-13.63
1.26
13.74
23.36
30.18
34.56
37.1
38.45
39.16
39.57
39.77
39.75
39.52
39.19
38.94
38.95
39.29
39.91
40.72
41.64
42.64
43.66
44.53
44.94
44.56
43.08
40.38
36.54
31.85
26.78
21.78
17.21
13.25
9.81
6.67
3.58
0.39
-2.85
-5.95
-8.72
-11.0
-12.79
-14.23
-15.56
-17.02
-18.82
-21.04
-23.6
-26.37
-29.14
-31.81
-34.39
-37.05
-40.06
-43.69
-48.14
-53.5
-59.57
-65.84
-71.37
-74.91
-75.13
-71.02
-62.26
-49.41
-33.82
-17.28
-1.56
12.06
22.92
31.0
36.68
40.48
42.87
44.18
44.67
44.52
43.94
43.14
42.3
41.55
40.96
40.54
40.27
40.1
39.98
39.87
39.72
39.5
39.18
38.63
37.69
36.18
34.01
31.26
28.13
24.89
21.76
18.81
16.0
13.26
10.53
7.82
5.18
2.67
0.25
-2.14
-4.54
-6.96
-9.36
-11.72
-14.07
-16.53
-19.25
-22.32
-25.71
-29.23
-32.6
-35.6
-38.17
-40.5
-42.97
-46.04
-50.1
-55.3
-61.35
-67.52
-72.6
-75.13
-73.74
-67.66
-57.0
-42.87
-27.03
-11.38
2.63
14.25
23.42
30.52
35.99
40.11
42.99
44.63
45.11
44.69
43.73
42.68
41.85
41.39
41.24
41.23
41.21
41.1
40.97
40.86
40.79
40.64
40.17
39.13
37.37
34.89
31.8
28.34
24.73
21.19
17.88
14.85
12.05
9.36
6.62
3.74
0.74
-2.28
-5.15
-7.78
-10.14
-12.36
-14.58
-16.99
-19.71
-22.84
-26.3
-29.95
-33.55
-36.87
-39.8
-42.37
-44.85
-47.61
-51.02
-55.34
-60.57
-66.32
-71.78
-75.77
-76.93
-74.13
-66.85
-55.43
-41.0
-25.2
-9.66
4.37
16.16
25.48
32.36
37.04
39.81
41.09
41.37
41.14
40.77
40.41
40.08
39.74
39.37
39.04
38.86
38.93
39.23
39.62
39.91
39.9
39.41
38.29
36.49
34.01
30.91
27.34
23.5
19.57
15.65
11.73
7.76
3.7
-0.34
-4.14
-7.48
-10.22
-12.41
-14.28
-16.13
-18.16
-20.45
-22.95
-25.53
-28.07
-30.53
-32.99
-35.66
-38.85
-42.9
-48.03
-54.12
-60.52
-66.09
-69.38
-69.06
-64.34
-55.25
-42.68
-28.1
-13.2
0.61
12.42
21.93
29.26
34.74
38.66
41.24
42.61
42.99
42.65
41.95
41.22
40.63
40.18
39.74
39.15
38.39
37.57
36.92
36.6
36.64
36.86
36.91
36.45
35.26
33.35
30.86
28.01
24.94
21.74
18.44
15.16
12.1
9.44
7.22
5.33
3.52
1.55
-0.62
-2.92
-5.12
-7.09
-8.84
-10.49
-12.2
-14.1
-16.28
-18.77
-21.6
-24.76
-28.15
-31.61
-34.94
-37.99
-40.79
-43.51
-46.46
-49.99
-54.34
-59.48
-64.98
-70.0
-73.26
-73.47
-69.62
-61.42
-49.43
-34.95
-19.66
-5.16
7.41
17.51
25.13
30.62
34.45
36.98
38.52
39.26
39.36
38.99
38.35
37.67
37.11
36.8
36.78
37.08
37.68
38.59
39.72
40.9
41.82
42.14
41.59
40.08
37.74
34.88
31.83
28.77
25.74
22.67
19.49
16.24
13.07
10.14
7.55
5.32
3.36
1.51
-0.36
-2.38
-4.66
-7.24
-10.08
-13.12
-16.27
-19.47
-22.77
-26.23
-29.91
-33.73
-37.49
-40.91
-43.76
-45.99
-47.78
-49.57
-51.85
-55.06
-59.28
-64.15
-68.81
-72.0
-72.42
-69.14
-61.85
-51.05
-37.86
-23.7
-9.94
2.42
12.82
21.05
27.15
31.29
33.73
34.83
35.07
34.9
34.75
34.85
35.25
35.85
36.52
37.14
37.68
38.16
38.61
39.01
39.33
39.51
39.51
39.23
38.58
37.4
35.56
32.98
29.78
26.16
22.46
18.93
15.71
12.76
9.99
7.32
4.71
2.22
-0.12
-2.29
-4.32
-6.22
-8.0
-9.73
-11.51
-13.49
-15.83
-18.56
-21.64
-24.92
-28.17
-31.29
-34.25
-37.14
-40.12
-43.4
-47.24
-51.75
-56.85
-62.07
-66.53
-69.03
-68.39
-63.86
-55.42
-43.84
-30.56
-17.15
-4.95
5.26
13.26
19.29
23.7
26.86
29.06
30.52
31.43
32.01
32.44
32.85
33.29
33.75
34.23
34.75
35.33
36.06
36.96
38.03
39.11
39.94
40.16
39.51
37.85
35.29
32.13
28.75
25.43
22.36
19.6
17.13
14.96
13.04
11.31
9.65
7.96
6.21
4.49
2.94
1.69
0.72
-0.12
-1.06
-2.33
-3.99
-6.0
-8.21
-10.46
-12.61
-14.67
-16.75
-19.01
-21.6
-24.51
-27.6
-30.57
-33.15
-35.23
-36.94
-38.64
-40.79
-43.8
-47.89
-52.97
-58.58
-63.89
-67.81
-69.18
-67.1
-61.2
-51.78
-39.75
-26.45
-13.24
-1.24
8.82
16.72
22.56
26.68
29.45
31.2
32.15
32.49
32.39
32.07
31.74
31.6
31.69
31.96
32.35
32.82
33.41
34.2
35.18
36.21
37.02
37.32
36.87
35.61
33.6
31.07
28.31
25.57
23.05
20.77
18.65
16.55
14.28
11.76
8.98
6.08
3.29
0.85
-1.04
-2.34
-3.19
-3.91
-4.84
-6.25
-8.19
-10.49
-12.9
-15.25
-17.49
-19.75
-22.23
-25.02
-28.12
-31.38
-34.59
-37.58
-40.25
-42.63
-44.89
-47.32
-50.24
-53.93
-58.39
-63.27
-67.8
-70.92
-71.52
-68.7
-62.12
-52.06
-39.46
-25.63
-12.0
0.29
10.55
18.59
24.5
28.57
31.1
32.39
32.76
32.54
32.04
31.49
31.02
30.75
30.8
31.33
32.46
34.13
36.15
38.16
39.82
40.91
41.33
41.09
40.2
38.7
36.63
34.12
31.34
28.46
25.58
22.76
19.99
17.27
14.62
12.07
9.62
7.25
4.9
2.53
0.14
-2.23
-4.5
-6.63
-8.59
-10.49
-12.49
-14.78
-17.48
-20.58
-23.92
-27.29
-30.48
-33.42
-36.17
-38.94
-41.99
-45.64
-50.17
-55.68
-61.91
-68.14
-73.15
-75.56
-74.2
-68.55
-58.9
-46.26
-32.06
-17.74
-4.41
7.2
16.79
24.37
30.13
34.31
37.16
38.83
39.44
39.15
38.2
36.91
35.61
34.56
33.86
33.51
33.45
33.68
34.21
35.03
36.04
37.05
37.85
38.24
38.06
37.28
35.91
34.09
32.01
29.9
27.95
26.21
24.61
22.97
21.15
19.1
16.89
14.66
12.57
10.7
9.08
7.67
6.36
5.05
3.62
2.05
0.34
-1.39
-3.07
-4.65
-6.18
-7.74
-9.41
-11.19
-12.99
-14.69
-16.2
-17.56
-18.94
-20.63
-22.88
-25.86
-29.53
-33.61
-37.67
-41.28
-44.27
-46.68
-48.86
-51.3
-54.44
-58.53
-63.5
-68.92
-73.97
-77.53
-78.38
-75.53
-68.57
-57.85
-44.47
-29.93
-15.71
-2.91
7.87
16.5
23.12
27.97
31.38
33.72
35.32
36.44
37.2
37.61
37.66
37.47
37.25
37.3
37.79
38.69
39.77
40.72
41.32
41.48
41.27
40.78
39.99
38.75
36.91
34.43
31.46
28.33
25.41
22.92
20.86
19.03
17.17
15.12
12.88
10.62
8.56
6.9
5.71
4.93
4.39
3.85
3.05
1.85
0.19
-1.85
-4.08
-6.32
-8.44
-10.42
-12.36
-14.45
-16.92
-19.92
-23.47
-27.4
-31.36
-35.03
-38.23
-41.03
-43.74
-46.79
-50.5
-54.93
-59.86
-64.76
-68.95
-71.63
-72.02
-69.4
-63.3
-53.74
-41.29
-27.13
-12.8
0.28
11.15
19.53
25.68
30.12
33.34
35.61
37.0
37.55
37.39
36.76
35.91
35.07
34.42
34.05
34.03
34.43
35.26
36.47
37.9
39.32
40.51
41.3
41.58
41.31
40.47
39.08
37.12
34.61
31.62
28.28
24.8
21.4
18.25
15.41
12.86
10.52
8.33
6.29
4.46
2.87
1.49
0.2
-1.18
-2.78
-4.67
-6.75
-8.86
-10.78
-12.33
-13.48
-14.36
-15.32
-16.72
-18.86
-21.84
-25.51
-29.5
-33.42
-36.97
-40.06
-42.75
-45.27
-47.92
-51.03
-54.86
-59.45
-64.5
-69.33
-72.88
-74.0
-71.75
-65.68
-55.98
-43.42
-29.22
-14.74
-1.2
10.47
19.76
26.54
31.02
33.59
34.7
34.81
34.31
33.55
32.78
32.18
31.86
31.89
32.27
32.96
33.91
35.02
36.22
37.45
38.69
39.85
40.8
41.3
41.11
40.12
38.35
35.97
33.18
30.18
27.08
23.93
20.85
17.97
15.42
13.27
11.41
9.66
7.81
5.8
3.68
1.64
-0.12
-1.52
-2.64
-3.7
-4.94
-6.56
-8.59
-10.89
-13.3
-15.62
-17.78
-19.81
-21.86
-24.09
-26.63
-29.5
-32.63
-35.87
-39.04
-42.06
-44.93
-47.85
-51.12
-55.0
-59.62
-64.72
-69.54
-73.05
-74.02
-71.45
-64.85
-54.41
-40.99
-25.91
-10.67
3.46
15.57
25.2
32.31
37.1
39.91
41.1
41.02
40.03
38.49
36.75
35.12
33.83
33.06
32.86
33.23
34.06
35.19
36.46
37.75
38.95
39.97
40.67
40.89
40.45
39.25
37.31
34.84
32.12
29.45
26.97
24.62
22.22
19.58
16.63
13.47
10.32
7.47
5.11
3.25
1.78
0.49
-0.84
-2.31
-4.0
-5.91
-8.02
-10.25
-12.47
-14.54
-16.42
-18.16
-19.98
-22.12
-24.74
-27.76
-30.97
-34.04
-36.83
-39.36
-41.91
-44.86
-48.5
-52.94
-58.0
-63.23
-67.86
-70.9
-71.3
-68.17
-61.15
-50.53
-37.3
-22.89
-8.83
3.67
13.87
21.58
27.0
30.53
32.61
33.61
33.84
33.53
32.85
31.96
31.05
30.32
30.0
30.24
31.06
32.34
33.85
35.37
36.7
37.73
38.4
38.65
38.41
37.7
36.54
35.04
33.32
31.47
29.51
27.39
25.15
22.87
20.64
18.57
16.67
14.91
13.24
11.66
10.16
8.7
7.18
5.5
3.6
1.53
-0.52
-2.4
-4.01
-5.4
-6.69
-7.96
-9.24
-10.44
-11.57
-12.74
-14.2
-16.23
-19.02
-22.5
-26.41
-30.37
-34.02
-37.19
-39.9
-42.35
-44.89
-47.87
-51.57
-56.09
-61.23
-66.43
-70.8
-73.23
-72.67
-68.41
-60.3
-48.9
-35.33
-21.03
-7.43
4.37
13.75
20.64
25.28
28.13
29.69
30.38
30.53
30.41
30.26
30.26
30.53
31.12
32.02
33.17
34.51
36.01
37.61
39.17
40.5
41.38
41.61
41.12
39.95
38.2
35.99
33.38
30.36
26.93
23.14
19.2
15.33
11.8
8.77
6.28
4.27
2.57
1.04
-0.46
-2.0
-3.63
-5.36
-7.19
-9.1
-11.08
-13.14
-15.3
-17.62
-20.12
-22.84
-25.7
-28.55
-31.2
-33.52
-35.51
-37.39
-39.57
-42.51
-46.48
-51.38
-56.65
-61.33
-64.23
-64.26
-60.64
-53.14
-42.21
-28.88
-14.59
-0.84
11.17
20.75
27.74
32.38
35.06
36.18
36.12
35.25
33.97
32.64
31.6
30.96
30.67
30.56
30.5
30.43
30.45
30.72
31.37
32.42
33.71
34.94
35.75
35.83
35.01
33.32
30.95
28.21
25.44
22.86
20.57
18.46
16.35
14.01
11.35
8.46
5.61
3.16
1.39
0.31
-0.36
-1.08
-2.24
-4.03
-6.3
-8.68
-10.78
-12.48
-13.93
-15.49
-17.57
-20.35
-23.8
-27.63
-31.48
-35.03
-38.13
-40.84
-43.4
-46.2
-49.65
-54.03
-59.31
-65.06
-70.42
-74.22
-75.2
-72.38
-65.37
-54.5
-40.86
-25.93
-11.3
1.78
12.57
20.85
26.81
30.81
33.27
34.57
35.03
34.92
34.45
33.79
33.09
32.54
32.28
32.41
32.93
33.74
34.66
35.55
36.34
36.97
37.38
37.43
36.97
35.88
34.14
31.91
29.4
26.84
24.34
21.93
19.57
17.17
14.67
12.1
9.53
7.09
4.87
2.95
1.32
-0.11
-1.48
-2.91
-4.5
-6.25
-8.14
-10.05
-11.9
-13.61
-15.23
-16.93
-18.96
-21.53
-24.67
-28.2
-31.82
-35.18
-38.11
-40.65
-43.01
-45.55
-48.59
-52.37
-56.95
-62.06
-67.07
-70.94
-72.46
-70.49
-64.42
-54.39
-41.27
-26.49
-11.58
2.14
13.76
22.88
29.51
33.98
36.73
38.23
38.87
38.86
38.3
37.22
35.73
34.08
32.63
31.8
31.84
32.78
34.38
36.25
38.01
39.29
39.94
39.88
39.16
37.9
36.23
34.32
32.29
30.17
27.94
25.55
22.96
20.18
17.31
14.43
11.6
8.82
6.06
3.33
0.69
-1.8
-4.12
-6.32
-8.49
-10.75
-13.17
-15.83
-18.72
-21.87
-25.28
-28.87
-32.53
-36.11
-39.48
-42.69
-45.93
-49.54
-53.8
-58.74
-63.96
-68.65
-71.64
-71.77
-68.2
-60.68
-49.65
-36.19
-21.65
-7.41
5.48
16.32
24.82
31.02
35.15
37.63
38.89
39.34
39.3
38.95
38.4
37.74
37.09
36.58
36.34
36.44
36.88
37.57
38.37
39.09
39.51
39.41
38.64
37.17
35.05
32.49
29.75
27.09
24.7
22.67
20.96
19.38
17.73
15.77
13.46
10.91
8.33
5.96
3.89
2.04
0.25
-1.66
-3.77
-6.06
-8.43
-10.75
-12.99
-15.17
-17.37
-19.74
-22.41
-25.43
-28.71
-32.04
-35.19
-37.94
-40.32
-42.56
-45.1
-48.4
-52.72
-58.01
-63.78
-69.17
-73.06
-74.32
-72.03
-65.71
-55.49
-42.17
-27.03
-11.63
2.62
14.67
24.01
30.65
34.94
37.34
38.31
38.27
37.53
36.44
35.33
34.44
33.9
33.7
33.76
33.99
34.38
35.01
35.95
37.17
38.53
39.8
40.65
40.83
40.16
38.6
36.29
33.47
30.47
27.55
24.8
22.11
19.29
16.2
12.92
9.68
6.77
4.36
2.39
0.62
-1.22
-3.23
-5.34
-7.37
-9.2
-10.87
-12.65
-14.84
-17.67
-21.21
-25.25
-29.48
-33.57
-37.26
-40.46
-43.24
-45.83
-48.51
-51.63
-55.52
-60.34
-65.92
-71.57
-76.09
-78.05
-76.14
-69.69
-58.92
-44.91
-29.27
-13.66
0.58
12.67
22.32
29.6
34.75
38.1
39.98
40.78
40.87
40.58
40.11
39.56
38.96
38.34
37.79
37.49
37.6
38.21
39.26
40.53
41.64
42.24
42.04
40.92
38.9
36.13
32.77
29.02
25.02
20.89
16.75
12.67
8.7
4.84
1.1
-2.52
-5.99
-9.26
-12.33
-15.19
-17.92
-20.57
-23.15
-25.63
-28.01
-30.22
-32.3
-34.32
-36.47
-39.03
-42.35
-46.69
-52.04
-57.94
-63.47
-67.42
-68.56
-66.02
-59.5
-49.35
-36.48
-22.14
-7.66
5.77
17.26
26.31
32.81
36.96
39.15
39.9
39.73
39.1
38.38
37.76
37.28
36.88
36.48
36.1
35.85
35.83
36.1
36.6
37.23
37.82
38.24
38.36
38.04
37.14
35.53
33.25
30.43
27.29
24.1
21.0
18.08
15.35
12.82
10.47
8.31
6.35
4.6
3.04
1.58
0.07
-1.72
-3.94
-6.64
-9.6
-12.51
-15.02
-17.0
-18.54
-19.94
-21.56
-23.66
-26.33
-29.47
-32.93
-36.48
-39.95
-43.25
-46.42
-49.61
-53.09
-57.08
-61.66
-66.62
-71.42
-75.15
-76.73
-75.1
-69.49
-59.77
-46.47
-30.78
-14.25
1.58
15.5
26.79
35.23
40.96
44.35
45.82
45.84
44.88
43.43
41.89
40.6
39.76
39.42
39.48
39.78
40.08
40.23
40.15
39.88
39.54
39.21
38.88
38.42
37.61
36.2
34.05
31.17
27.71
23.94
20.14
16.49
13.09
9.98
7.17
4.71
2.69
1.13
-0.02
-1.03
-2.23
-3.88
-6.05
-8.59
-11.17
-13.46
-15.31
-16.77
-18.1
-19.63
-21.64
-24.3
-27.6
-31.31
-35.13
-38.7
-41.8
-44.45
-46.89
-49.56
-52.92
-57.26
-62.42
-67.79
-72.31
-74.7
-73.79
-68.82
-59.73
-47.14
-32.31
-16.72
-1.83
11.21
21.73
29.56
34.85
38.02
39.61
40.16
40.14
39.9
39.66
39.52
39.49
39.54
39.62
39.7
39.79
39.9
40.06
40.31
40.64
40.96
41.08
40.73
39.61
37.53
34.46
30.59
26.31
22.1
18.33
15.15
12.44
9.89
7.18
4.12
0.74
-2.7
-5.9
-8.65
-10.93
-12.91
-14.9
-17.17
-19.86
-22.96
-26.29
-29.59
-32.63
-35.31
-37.66
-39.91
-42.34
-45.29
-49.04
-53.64
-58.88
-64.1
-68.26
-70.09
-68.4
-62.51
-52.5
-39.25
-24.24
-9.12
4.7
16.3
25.29
31.76
36.05
38.64
40.01
40.51
40.39
39.82
38.93
37.92
36.99
36.37
36.18
36.41
36.96
37.68
38.46
39.2
39.78
40.02
39.69
38.61
36.72
34.12
31.04
27.8
24.67
21.82
19.3
16.97
14.61
12.04
9.16
6.11
3.2
0.76
-0.99
-2.03
-2.6
-3.08
-3.8
-5.0
-6.68
-8.73
-10.98
-13.23
-15.43
-17.6
-19.89
-22.47
-25.49
-28.96
-32.71
-36.49
-39.99
-43.01
-45.55
-47.84
-50.31
-53.43
-57.48
-62.4
-67.63
-72.16
-74.77
-74.32
-70.07
-61.92
-50.39
-36.54
-21.64
-6.99
6.35
17.7
26.73
33.49
38.26
41.4
43.24
44.02
43.88
43.0
41.61
39.99
38.47
37.31
36.67
36.57
36.93
37.63
38.53
39.46
40.21
40.58
40.36
39.38
37.61
35.16
32.24
29.14
26.08
23.18
20.45
17.76
14.99
12.07
9.03
6.04
3.29
0.96
-0.87
-2.27
-3.36
-4.34
-5.35
-6.52
-7.92
-9.58
-11.44
-13.42
-15.38
-17.2
-18.88
-20.51
-22.31
-24.51
-27.23
-30.47
-34.02
-37.61
-40.99
-44.01
-46.72
-49.37
-52.33
-55.97
-60.45
-65.48
-70.3
-73.75
-74.58
-71.78
-64.91
-54.24
-40.66
-25.48
-10.05
4.38
16.91
27.03
34.57
39.67
42.64
43.93
44.01
43.35
42.33
41.23
40.25
39.5
39.02
38.84
38.95
39.26
39.64
39.92
39.96
39.61
38.87
37.74
36.26
34.44
32.26
29.71
26.86
23.79
20.59
17.32
14.05
10.82
7.72
4.86
2.35
0.22
-1.59
-3.2
-4.74
-6.33
-8.07
-9.99
-12.11
-14.43
-16.92
-19.5
-22.13
-24.82
-27.54
-30.31
-33.04
-35.74
-38.47
-41.47
-45.07
-49.57
-55.01
-61.0
-66.7
-70.92
-72.48
-70.43
-64.4
-54.67
-42.07
-27.8
-13.1
0.92
13.45
23.95
32.18
38.13
42.0
44.15
45.02
45.05
44.5
43.53
42.25
40.75
39.22
37.88
36.94
36.46
36.41
36.68
37.16
37.69
38.09
38.17
37.7
36.53
34.61
32.05
29.1
26.05
23.12
20.45
18.04
15.76
13.46
11.03
8.52
6.08
4.0
2.49
1.57
1.03
0.56
-0.22
-1.46
-3.17
-5.21
-7.39
-9.58
-11.7
-13.76
-15.8
-17.87
-20.03
-22.38
-24.95
-27.79
-30.87
-34.14
-37.5
-40.88
-44.25
-47.66
-51.36
-55.65
-60.76
-66.56
-72.36
-76.92
-78.75
-76.57
-69.74
-58.55
-44.09
-27.92
-11.69
3.21
15.9
25.95
33.37
38.41
41.41
42.72
42.67
41.6
39.89
37.99
36.29
35.04
34.41
34.33
34.72
35.46
36.46
37.58
38.67
39.52
39.91
39.71
38.81
37.21
34.97
32.24
29.21
26.11
23.07
20.07
17.01
13.74
10.24
6.69
3.4
0.62
-1.57
-3.32
-4.89
-6.49
-8.18
-9.89
-11.54
-13.17
-14.99
-17.25
-20.17
-23.72
-27.64
-31.56
-35.12
-38.22
-40.97
-43.69
-46.74
-50.37
-54.74
-59.81
-65.34
-70.76
-75.12
-77.2
-75.75
-69.93
-59.69
-45.84
-29.86
-13.48
1.83
15.12
25.93
34.22
40.14
43.96
46.04
46.76
46.51
45.61
44.28
42.66
40.86
39.05
37.41
36.11
35.27
34.95
35.18
35.9
36.94
37.95
38.48
38.13
36.62
33.99
30.51
26.58
22.53
18.52
14.52
10.5
6.4
2.35
-1.51
-5.02
-8.15
-10.99
-13.73
-16.55
-19.59
-22.83
-26.15
-29.37
-32.35
-35.03
-37.51
-39.97
-42.74
-46.18
-50.56
-55.92
-61.91
-67.74
-72.27
-74.22
-72.53
-66.6
-56.55
-43.18
-27.76
-11.75
3.47
16.92
28.01
36.57
42.74
46.79
49.04
49.81
49.42
48.2
46.5
44.66
42.96
41.57
40.56
39.88
39.43
39.13
38.95
38.88
38.93
39.05
39.03
38.65
37.6
35.72
33.0
29.61
25.85
22.06
18.48
15.19
12.13
9.14
6.09
2.96
-0.2
-3.2
-5.9
-8.21
-10.2
-12.02
-13.9
-16.0
-18.45
-21.28
-24.48
-27.97
-31.57
-35.06
-38.21
-40.91
-43.27
-45.66
-48.59
-52.53
-57.64
-63.63
-69.71
-74.59
-76.87
-75.3
-69.13
-58.43
-44.05
-27.47
-10.45
5.43
19.0
29.73
37.61
43.03
46.53
48.66
49.84
50.33
50.29
49.83
49.05
48.1
47.15
46.34
45.71
45.24
44.86
44.53
44.25
43.98
43.64
43.04
41.93
40.12
37.57
34.43
30.9
27.22
23.53
19.87
16.23
12.62
9.12
5.9
3.06
0.61
-1.58
-3.73
-6.02
-8.55
-11.21
-13.82
-16.23
-18.46
-20.66
-23.05
-25.77
-28.8
-31.92
-34.87
-37.44
-39.61
-41.47
-43.2
-45.08
-47.43
-50.61
-54.93
-60.43
-66.64
-72.52
-76.61
-77.44
-73.97
-65.9
-53.75
-38.68
-22.21
-5.88
9.0
21.53
31.22
38.08
42.44
44.84
45.83
45.92
45.45
44.66
43.67
42.55
41.29
39.91
38.45
37.06
35.95
35.3
35.19
35.53
36.03
36.34
36.09
35.02
32.98
30.0
26.3
22.16
17.91
13.79
9.95
6.42
3.19
0.18
-2.72
-5.73
-9.04
-12.8
-16.98
-21.3
-25.34
-28.74
-31.36
-33.36
-35.2
-37.4
-40.45
-44.61
-49.94
-56.17
-62.64
-68.31
-71.81
-71.86
-67.51
-58.6
-45.8
-30.51
-14.4
1.0
14.61
25.93
34.9
41.68
46.46
49.4
50.63
50.38
49.02
47.05
44.95
43.04
41.44
40.08
38.82
37.6
36.52
35.74
35.4
35.48
35.71
35.71
35.08
33.52
30.93
27.41
23.19
18.59
13.95
9.51
5.45
1.82
-1.4
-4.3
-6.92
-9.32
-11.52
-13.51
-15.28
-16.85
-18.35
-19.95
-21.81
-24.05
-26.64
-29.48
-32.37
-35.22
-38.03
-40.92
-44.12
-47.89
-52.42
-57.77
-63.67
-69.43
-73.93
-75.83
-73.92
-67.54
-56.89
-42.96
-27.31
-11.53
3.06
15.63
25.87
33.77
39.51
43.29
45.35
45.96
45.51
44.42
43.13
41.99
41.13
40.52
40.05
39.7
39.58
39.82
40.49
41.41
42.23
42.51
41.99
40.63
38.63
36.21
33.57
30.81
27.97
25.13
22.35
19.61
16.79
13.72
10.31
6.63
2.93
-0.52
-3.52
-6.09
-8.37
-10.56
-12.8
-15.14
-17.59
-20.13
-22.72
-25.38
-28.08
-30.81
-33.61
-36.55
-39.65
-42.81
-45.85
-48.54
-50.8
-52.82
-55.13
-58.35
-62.93
-68.77
-75.05
-80.29
-82.77
-81.02
-74.35
-63.01
-48.18
-31.53
-14.76
0.72
14.0
24.65
32.62
38.16
41.68
43.7
44.69
45.04
44.95
44.53
43.83
42.93
41.93
40.98
40.14
39.41
38.77
38.25
37.9
37.81
37.94
38.06
37.85
36.97
35.21
32.59
29.29
25.63
21.92
18.36
15.02
11.86
8.77
5.65
2.45
-0.79
-3.94
-6.84
-9.38
-11.61
-13.69
-15.91
-18.5
-21.54
-24.93
-28.41
-31.69
-34.61
-37.16
-39.58
-42.22
-45.47
-49.62
-54.77
-60.65
-66.57
-71.45
-73.97
-72.92
-67.55
-57.88
-44.67
-29.23
-13.09
2.34
16.0
27.27
35.95
42.09
45.97
47.94
48.34
47.54
45.83
43.49
40.86
38.24
35.91
34.03
32.68
31.85
31.45
31.44
31.75
32.29
32.88
33.32
33.35
32.78
31.49
29.47
26.81
23.67
20.2
16.53
12.81
9.16
5.73
2.66
0.06
-2.08
-3.86
-5.48
-7.11
-8.85
-10.71
-12.65
-14.69
-16.91
-19.43
-22.32
-25.53
-28.89
-32.19
-35.28
-38.12
-40.82
-43.59
-46.65
-50.24
-54.53
-59.58
-65.22
-70.97
-75.92
-78.87
-78.58
-74.08
-65.04
-51.96
-36.06
-18.99
-2.4
12.44
24.83
34.57
41.77
46.66
49.49
50.53
50.17
48.88
47.13
45.37
43.88
42.78
42.11
41.8
41.79
41.97
42.24
42.47
42.52
42.24
41.44
40.02
37.94
35.32
32.39
29.38
26.46
23.61
20.72
17.68
14.47
11.18
8.0
5.11
2.54
0.25
-1.9
-4.09
-6.42
-8.98
-11.75
-14.71
-17.76
-20.82
-23.84
-26.78
-29.64
-32.42
-35.1
-37.66
-40.11
-42.5
-44.93
-47.47
-50.19
-53.16
-56.46
-60.23
-64.55
-69.3
-74.0
-77.72
-79.27
-77.46
-71.47
-61.18
-47.25
-30.95
-13.85
2.53
16.96
28.69
37.47
43.39
46.84
48.31
48.32
47.33
45.74
43.84
41.88
39.98
38.27
36.81
35.71
35.05
34.95
35.42
36.36
37.53
38.62
39.27
39.2
38.28
36.53
34.1
31.21
28.07
24.84
21.6
18.37
15.09
11.71
8.17
4.51
0.85
-2.68
-5.94
-8.91
-11.71
-14.57
-17.69
-21.13
-24.8
-28.46
-31.9
-35.03
-37.92
-40.77
-43.87
-47.49
-51.83
-56.95
-62.57
-67.93
-71.88
-73.0
-70.13
-62.71
-51.04
-36.21
-19.78
-3.42
11.5
24.06
33.83
40.84
45.43
48.13
49.49
49.93
49.73
48.97
47.71
46.03
44.13
42.25
40.66
39.55
38.95
38.79
38.91
39.1
39.21
39.07
38.53
37.46
35.68
33.08
29.66
25.6
21.17
16.73
12.58
8.83
5.44
2.24
-0.95
-4.23
-7.57
-10.78
-13.61
-15.87
-17.53
-18.76
-19.87
-21.22
-23.07
-25.44
-28.19
-30.99
-33.55
-35.75
-37.67
-39.62
-42.04
-45.38
-49.99
-55.93
-62.85
-69.95
-75.98
-79.48
-79.09
-73.92
-63.91
-49.85
-33.27
-16.01
0.21
14.15
25.22
33.43
39.16
42.95
45.32
46.63
47.12
46.92
46.14
44.96
43.57
42.22
41.06
40.17
39.5
38.99
38.61
38.36
38.22
38.08
37.71
36.8
35.15
32.72
29.71
26.39
23.05
19.87
16.87
13.98
11.11
8.13
5.01
1.75
-1.63
-5.03
-8.36
-11.49
-14.34
-16.89
-19.14
-21.19
-23.22
-25.42
-27.95
-30.82
-33.88
-36.9
-39.61
-41.94
-44.02
-46.22
-48.97
-52.64
-57.42
-63.11
-69.05
-74.06
-76.74
-75.73
-70.2
-60.15
-46.43
-30.53
-14.14
1.31
14.83
25.97
34.7
41.17
45.68
48.53
50.07
50.65
50.55
50.05
49.38
48.74
48.29
48.07
48.05
48.09
48.06
47.89
47.55
47.01
46.17
44.88
42.92
40.15
36.56
32.28
27.56
22.66
17.75
12.9
8.14
3.45
-1.15
-5.63
-9.88
-13.86
-17.56
-21.09
-24.58
-28.16
-31.92
-35.77
-39.56
-43.12
-46.36
-49.32
-52.17
-55.24
-58.96
-63.73
-69.76
-76.76
-83.93
-89.9
-93.15
-92.42
-87.15
-77.64
-65.06
-51.04
-37.21
-24.88
-14.74
-6.9
-1.01
3.53
7.35
10.98
14.85
19.23
24.29
30.13
36.74
43.91
51.31
58.51
65.08
70.69
75.19
78.56
80.85
82.13
82.33
81.34
78.99
75.25
70.26
64.43
58.26
52.21
46.57
41.35
36.41
31.57
26.72
21.89
17.17
12.68
8.48
4.62
1.09
-2.17
-5.24
-8.26
-11.38
-14.73
-18.35
-22.19
-26.14
-30.03
-33.73
