0
32.58
30.29
27.48
24.72
22.37
20.43
18.58
16.41
13.65
10.23
6.27
2.01
-2.27
-6.23
-9.56
-12.1
-13.98
-15.66
-17.82
-21.01
-25.41
-30.75
-36.39
-41.67
-46.25
-50.22
-54.09
-58.5
-63.94
-70.58
-78.1
-85.63
-91.88
-95.4
-94.95
-89.91
-80.55
-67.94
-53.62
-39.13
-25.66
-13.83
-3.78
4.65
11.66
17.43
22.05
25.55
28.0
29.52
30.36
30.88
31.41
32.2
33.28
34.44
35.43
36.05
36.31
36.39
36.47
36.6
36.65
36.38
35.58
34.18
32.26
29.95
27.37
24.55
21.5
18.24
14.88
11.54
8.33
5.23
2.17
-0.94
-4.11
-7.32
-10.46
-13.49
-16.43
-19.41
-22.61
-26.22
-30.38
-35.15
-40.41
-45.91
-51.29
-56.27
-60.72
-64.83
-69.08
-74.09
-80.39
-88.21
-97.27
-106.7
-115.12
-120.92
-122.54
-118.97
-110.05
-96.58
-80.18
-62.76
-45.97
-30.84
-17.66
-6.2
3.92
13.02
21.14
28.19
33.99
38.42
41.49
43.34
44.27
44.61
44.78
45.05
45.63
46.55
47.77
49.22
50.8
52.32
53.5
54.05
53.75
52.61
50.89
48.95
47.06
45.32
43.62
41.77
39.69
37.38
34.93
32.41
29.8
26.97
23.88
20.53
17.01
13.42
9.84
6.26
2.6
-1.29
-5.59
-10.41
-15.79
-21.64
-27.69
-33.65
-39.28
-44.49
-49.42
-54.42
-59.93
-66.46
-74.36
-83.67
-93.85
-103.76
-111.64
-115.57
-113.98
-106.17
-92.69
-75.11
-55.63
-36.45
-19.13
-4.41
7.76
17.87
26.47
33.88
40.15
45.23
49.08
51.84
53.78
55.09
55.9
56.24
56.16
55.86
55.67
55.99
57.04
58.76
60.74
62.4
63.16
62.62
60.75
57.8
54.3
50.83
47.78
45.18
42.73
39.94
36.42
32.08
27.18
22.16
17.36
12.86
8.48
3.89
-1.16
-6.72
-12.63
-18.64
-24.5
-30.03
-35.18
-40.12
-45.17
-50.86
-57.76
-66.3
-76.43
-87.39
-97.75
-105.56
-108.89
-106.34
-97.52
-83.17
-64.96
-45.0
-25.27
-7.21
8.49
21.73
32.76
41.91
49.39
55.28
59.64
62.53
64.17
64.86
64.98
64.86
64.76
64.84
65.21
65.94
67.13
68.8
70.79
72.73
74.07
74.25
72.97
70.28
66.59
62.51
58.54
54.91
51.46
47.84
43.64
38.65
32.93
26.81
20.74
15.04
9.84
4.96
0.09
-5.16
-10.96
-17.28
-23.84
-30.32
-36.49
-42.31
-47.99
-53.91
-60.55
-68.36
-77.63
-88.1
-98.82
-108.11
-113.9
-114.33
-108.41
-96.37
-79.57
-60.09
-40.01
-20.97
-3.9
10.86
23.36
33.77
42.3
49.03
54.07
57.54
59.67
60.81
61.4
61.87
62.51
63.43
64.54
65.73
66.9
68.06
69.21
70.28
71.07
71.32
70.8
69.38
67.06
64.0
60.45
56.75
53.17
49.79
46.41
42.64
38.11
32.64
26.49
20.24
14.52
9.69
5.66
1.9
-2.26
-7.38
-13.6
-20.65
-27.95
-34.94
-41.21
-46.72
-51.8
-57.11
-63.38
-71.2
-80.64
-91.05
-101.01
-108.53
-111.54
-108.54
-99.09
-84.05
-65.31
-45.27
-26.08
-9.2
4.81
16.08
25.08
32.24
37.81
41.87
44.52
45.91
46.35
46.21
45.82
45.41
45.09
44.86
44.71
44.63
44.67
44.9
45.3
45.76
46.03
45.78
44.68
42.54
39.32
35.14
30.24
24.97
19.68
14.69
10.2
6.19
2.44
-1.42
-5.71
-10.6
-15.94
-21.38
-26.52
-31.04
-34.9
-38.3
-41.7
-45.67
-50.79
-57.44
-65.64
-74.8
-83.7
-90.61
-93.72
-91.66
-83.93
-71.1
-54.66
-36.57
-18.72
-2.5
11.38
22.78
31.89
38.96
44.12
47.37
48.76
48.55
47.29
45.68
44.4
43.79
43.82
44.12
44.29
44.12
43.71
43.29
43.05
42.88
42.4
41.09
38.57
34.76
29.95
24.63
19.29
14.23
9.47
4.8
-0.11
-5.61
-11.83
-18.68
-25.82
-32.79
-39.18
-44.77
-49.66
-54.25
-59.15
-65.03
-72.42
-81.5
-91.9
-102.5
-111.53
-116.92
-116.87
-110.52
-98.25
-81.64
-62.92
-44.26
-27.19
-12.41
0.06
10.53
19.33
26.68
32.7
37.47
41.11
43.72
45.39
46.24
46.34
45.91
45.23
44.65
44.47
44.88
45.83
47.08
48.29
49.14
49.4
48.96
47.78
45.76
42.81
38.9
34.15
28.88
23.47
18.31
13.52
8.98
4.33
-0.78
-6.55
-12.9
-19.5
-25.94
-31.92
-37.35
-42.37
-47.33
-52.69
-58.98
-66.64
-75.81
-86.17
-96.63
-105.42
-110.44
-109.89
-102.92
-90.02
-72.88
-53.81
-34.99
-17.83
-2.85
10.05
21.26
31.03
39.38
46.2
51.44
55.13
57.47
58.7
59.05
58.76
58.11
57.39
56.82
56.58
56.7
57.08
57.59
57.98
58.05
57.52
56.16
53.8
50.42
46.12
41.2
35.94
30.65
25.48
20.49
15.65
10.84
5.94
0.84
-4.58
-10.32
-16.33
-22.39
-28.27
-33.76
-38.79
-43.49
-48.27
-53.69
-60.35
-68.67
-78.65
-89.61
-100.17
-108.41
-112.35
-110.53
-102.5
-89.0
-71.76
-52.94
-34.5
-17.75
-3.23
9.07
19.38
27.88
34.61
39.6
42.94
44.98
46.12
46.84
47.45
48.12
48.84
49.54
50.19
50.86
51.68
52.81
54.2
55.55
56.31
55.82
53.63
49.67
44.39
38.5
32.72
27.38
22.35
17.19
11.39
4.67
-2.8
-10.58
-18.08
-24.81
-30.59
-35.58
-40.32
-45.57
-52.12
-60.54
-70.9
-82.43
-93.59
-102.21
-106.12
-103.72
-94.61
-79.82
-61.46
-42.11
-24.04
-8.57
4.05
14.37
23.18
31.01
37.95
43.72
48.02
50.78
52.26
52.96
53.39
53.88
54.49
55.06
55.47
55.69
55.86
56.19
56.79
57.6
58.3
58.43
57.51
55.23
51.56
46.73
41.19
35.44
29.84
24.56
19.52
14.45
9.08
3.16
-3.39
-10.45
-17.75
-24.93
-31.63
-37.62
-42.95
-47.94
-53.19
-59.43
-67.25
-76.94
-88.16
-99.87
-110.31
-117.43
-119.28
-114.68
-103.58
-87.15
-67.46
-46.85
-27.25
-9.83
5.11
17.85
28.84
38.41
46.67
53.55
58.98
63.03
65.89
67.8
68.97
69.55
69.62
69.35
68.98
68.82
69.15
70.03
71.3
72.53
73.15
72.7
70.9
67.82
63.87
59.6
55.55
51.99
48.8
45.58
41.82
37.19
31.7
25.75
19.86
14.49
9.75
5.36
0.81
-4.43
-10.62
-17.67
-25.13
-32.48
-39.26
-45.35
-50.95
-56.56
-62.79
-70.26
-79.31
-89.84
-101.05
-111.42
-118.88
-121.39
-117.55
-107.11
-91.15
-71.7
-51.13
-31.42
-13.82
1.28
14.03
24.77
33.72
40.92
46.33
49.97
52.12
53.22
53.78
54.19
54.56
54.82
54.82
54.55
54.2
54.06
54.32
54.92
55.56
55.8
55.29
53.88
51.63
48.69
45.16
41.11
36.61
31.77
26.76
21.78
16.95
12.26
7.61
2.83
-2.21
-7.59
-13.28
-19.14
-24.97
-30.51
-35.57
-40.08
-44.21
-48.4
-53.27
-59.43
-67.24
-76.47
-86.19
-94.71
-99.98
-100.13
-94.07
-81.9
-64.96
-45.43
-25.65
-7.5
7.98
20.56
30.55
38.38
44.31
48.46
50.83
51.63
51.25
50.24
49.19
48.52
48.39
48.75
49.42
50.21
50.98
51.62
52.04
52.16
51.86
51.03
49.59
47.37
44.24
40.14
35.17
29.69
24.17
19.02
14.35
9.88
5.08
-0.55
-7.18
-14.57
-22.17
-29.38
-35.8
-41.41
-46.46
-51.41
-56.76
-63.05
-70.74
-80.07
-90.82
-102.08
-112.25
-119.28
-121.22
-116.79
-105.87
-89.54
-69.84
-49.13
-29.48
-12.18
2.37
14.41
24.49
33.03
40.21
46.02
50.39
53.39
55.22
56.18
56.5
56.33
55.83
55.19
54.69
54.63
55.18
56.25
57.53
58.51
58.74
57.88
55.83
52.73
48.93
44.83
40.81
37.02
33.4
29.68
25.59
20.95
15.8
10.38
5.01
-0.12
-5.01
-9.81
-14.8
-20.21
-26.12
-32.45
-38.95
-45.3
-51.25
-56.78
-62.12
-67.86
-74.75
-83.4
-93.92
-105.5
-116.39
-124.17
-126.49
-121.82
-110.05
-92.56
-71.71
-50.08
-29.71
-11.71
3.7
16.83
28.08
37.68
45.65
51.91
56.46
59.42
61.08
61.79
61.86
61.52
60.9
60.14
59.41
58.99
59.19
60.16
61.77
63.58
64.93
65.2
64.08
61.58
58.06
54.0
49.78
45.63
41.54
37.39
32.97
28.15
22.9
17.4
12.01
7.11
2.96
-0.53
-3.82
-7.57
-12.32
-18.26
-25.08
-32.17
-38.87
-44.79
-49.88
-54.5
-59.32
-65.16
-72.74
-82.36
-93.53
-104.73
-113.62
-117.65
-114.89
-104.82
-88.53
-68.35
-47.04
-26.98
-9.58
4.7
16.1
25.07
32.03
37.22
40.78
42.86
43.7
43.69
43.25
42.78
42.52
42.55
42.79
43.11
43.45
43.84
44.36
45.04
45.81
46.42
46.52
45.77
43.95
41.0
37.04
32.33
27.17
21.9
16.76
11.79
6.87
1.66
-4.12
-10.53
-17.39
-24.22
-30.52
-35.93
-40.49
-44.56
-48.78
-53.83
-60.3
-68.55
-78.45
-89.2
-99.25
-106.48
-108.69
-104.38
-93.28
-76.59
-56.55
-35.76
-16.35
0.43
14.25
25.4
34.36
41.55
47.18
51.33
54.05
55.44
55.73
55.26
54.46
53.74
53.38
53.5
54.05
54.87
55.79
56.65
57.26
57.43
56.92
55.55
53.27
50.17
46.4
42.12
37.43
32.4
27.17
21.92
16.9
12.24
7.89
3.58
-1.05
-6.35
-12.45
-19.25
-26.46
-33.69
-40.54
-46.79
-52.46
-57.88
-63.68
-70.6
-79.25
-89.73
-101.37
-112.63
-121.35
-125.24
-122.54
-112.65
-96.32
-75.56
-53.0
-31.19
-11.9
4.15
17.13
27.7
36.5
43.85
49.74
54.03
56.7
58.0
58.37
58.28
58.06
57.82
57.58
57.4
57.38
57.66
58.26
58.97
59.41
59.13
57.88
55.71
52.9
49.84
46.8
43.72
40.31
36.19
31.12
25.12
18.53
11.89
5.68
0.17
-4.71
-9.27
-13.95
-19.11
-24.91
-31.24
-37.83
-44.33
-50.48
-56.24
-61.84
-67.77
-74.69
-83.17
-93.29
-104.34
-114.67
-121.97
-123.86
-118.72
-106.35
-88.05
-66.24
-43.59
-22.29
-3.53
12.43
25.91
37.39
47.22
55.5
62.2
67.25
70.7
72.73
73.66
73.91
73.94
74.14
74.72
75.78
77.23
78.96
80.78
82.46
83.74
84.37
84.21
83.25
81.65
79.54
76.97
73.88
70.07
65.37
59.7
53.12
45.71
37.54
28.62
19.0
8.8
-1.63
-11.86
-21.4
-29.96
-37.51
-44.38
-51.15
-58.5
-67.03
-77.08
-88.6
-101.07
-113.42
-124.1
-131.24
-133.03
-128.23
-116.63
-99.3
-78.38
-56.52
-36.06
-18.46
-4.09
7.45
16.77
24.25
29.89
33.54
35.2
35.22
34.33
33.3
32.72
32.79
33.39
34.21
34.99
35.63
36.18
36.78
37.45
37.98
37.94
36.77
34.03
29.69
24.19
18.31
12.86
8.21
4.12
-0.1
-5.3
-11.98
-20.02
-28.75
-37.21
-44.59
-50.56
-55.36
-59.72
-64.67
-71.17
-79.92
-90.95
-103.48
-115.81
-125.53
-130.11
-127.57
-117.17
-99.72
-77.33
-52.91
-29.24
-8.33
8.88
22.49
33.19
41.78
48.8
54.46
58.69
61.45
62.8
63.07
62.64
61.9
61.11
60.36
59.76
59.36
59.23
59.38
59.64
59.74
59.38
58.35
56.53
53.95
50.61
46.52
41.65
36.08
29.98
23.63
17.29
11.1
5.03
-1.08
-7.47
-14.28
-21.57
-29.24
-37.07
-44.75
-52.01
-58.67
-64.75
-70.5
-76.47
-83.38
-91.99
-102.77
-115.48
-128.87
-140.65
-147.95
-148.11
-139.66
-122.93
-100.01
-74.07
-48.31
-24.98
-5.0
11.8
26.12
38.49
49.07
57.71
64.26
68.82
71.76
73.6
74.71
75.28
75.3
74.82
73.95
73.04
72.46
72.47
73.11
74.07
74.84
74.81
73.54
70.84
66.92
62.27
57.4
52.63
47.94
42.99
37.39
30.94
23.81
16.46
9.45
3.1
-2.63
-8.14
-13.97
-20.56
-28.04
-36.15
-44.36
-52.07
-58.85
-64.69
-70.07
-75.82
-82.96
-92.26
-103.9
-117.07
-129.91
-139.8
-143.98
-140.37
-128.3
-108.84
-84.47
-58.36
-33.38
-11.4
6.95
21.97
34.3
44.47
52.62
58.69
62.63
64.67
65.27
65.06
64.58
64.14
63.86
63.68
63.56
63.45
63.41
63.47
63.63
63.77
63.7
63.12
61.7
59.19
55.5
50.76
45.31
39.5
33.65
27.92
22.3
16.67
10.92
4.92
-1.43
-8.17
-15.23
-22.42
-29.44
-36.01
-42.0
-47.55
-53.06
-59.11
-66.36
-75.36
-86.29
-98.7
-111.24
-121.72
-127.47
-126.11
-116.48
-99.1
-76.12
-50.61
-25.52
-2.92
16.29
32.14
45.03
55.23
62.79
67.68
70.04
70.37
69.39
67.87
66.46
65.49
65.07
65.13
65.52
66.09
66.7
67.24
67.65
67.84
67.61
66.73
64.94
61.98
57.83
52.64
46.72
40.42
34.01
27.59
21.24
14.99
8.87
2.81
-3.39
-10.06
-17.51
-25.78
-34.59
-43.41
-51.7
-59.18
-65.97
-72.58
-79.72
-88.16
-98.47
-110.68
-124.03
-136.73
-146.12
-149.34
-144.25
-130.29
-108.77
-82.53
-54.95
-28.9
-6.11
12.9
28.4
40.96
51.04
58.96
65.01
69.47
72.72
75.03
76.62
77.55
77.87
77.67
77.09
76.36
75.71
75.41
75.64
76.45
77.6
78.6
78.77
77.52
74.57
70.16
64.9
59.5
54.41
49.63
44.75
39.25
32.82
25.59
18.06
10.87
4.51
-0.94
-5.86
-10.94
-16.9
-24.13
-32.55
-41.54
-50.26
-58.0
-64.54
-70.25
-76.0
-82.81
-91.59
-102.74
-115.95
-129.98
-142.64
-151.13
-152.73
-145.61
-129.61
-106.41
-79.06
-51.02
-25.1
-2.85
15.42
30.25
42.35
52.23
60.12
66.07
70.21
72.78
74.14
74.61
74.45
73.8
72.74
71.42
70.06
68.96
68.38
68.42
68.94
69.5
69.54
68.52
66.19
62.64
58.3
53.68
49.13
44.68
40.08
35.0
29.28
23.06
16.67
10.52
4.78
-0.68
-6.24
-12.31
-19.15
-26.73
-34.78
-42.86
-50.56
-57.62
-64.04
-70.12
-76.41
-83.67
-92.65
-103.73
-116.51
-129.56
-140.4
-146.02
-143.8
-132.51
-112.84
-87.36
-59.62
-33.02
-9.81
9.22
24.44
36.6
46.25
53.51
58.27
60.65
61.13
60.56
59.78
59.36
59.42
59.78
60.16
60.38
60.44
60.51
60.74
61.22
61.82
62.23
61.93
60.4
57.25
52.43
46.32
39.59
32.97
26.91
21.34
15.71
9.29
1.51
-7.65
-17.69
-27.75
-36.97
-44.88
-51.55
-57.57
-63.85
-71.42
-81.11
-93.26
-107.35
-121.82
-134.16
-141.4
-141.0
-131.74
-114.2
-90.67
-64.33
-38.33
-14.91
4.95
21.34
34.87
46.19
55.64
63.23
68.84
72.41
74.14
74.43
73.8
72.73
71.55
70.43
69.48
68.82
68.57
68.8
69.39
70.02
70.2
69.53
67.76
64.93
61.17
56.68
51.59
45.93
39.76
33.19
26.41
19.61
12.92
6.34
-0.26
-7.1
-14.4
-22.25
-30.57
-39.08
-47.39
-55.12
-62.1
-68.48
-74.79
-81.77
-90.28
-100.92
-113.7
-127.69
-140.95
-150.65
-153.89
-148.47
-133.83
-111.28
-83.74
-54.76
-27.44
-3.74
15.79
31.57
44.42
55.08
63.94
71.14
76.71
80.76
83.44
84.97
85.55
85.32
84.46
83.13
81.61
80.2
79.22
78.8
78.87
79.05
78.77
77.49
74.89
71.03
66.34
61.35
56.42
51.55
46.43
40.62
33.9
26.44
18.8
11.63
5.31
-0.24
-5.55
-11.33
-18.1
-25.93
-34.49
-43.13
-51.27
-58.62
-65.23
-71.57
-78.34
-86.33
-96.23
-108.27
-121.89
-135.46
-146.38
-151.7
-148.95
-137.13
-117.08
-91.37
-63.36
-36.23
-12.17
7.97
24.32
37.52
48.11
56.36
62.24
65.78
67.21
67.12
66.29
65.43
64.98
64.97
65.19
65.32
65.23
64.96
64.67
64.49
64.38
64.08
63.23
61.5
58.65
54.61
49.47
43.46
36.97
30.4
24.07
18.11
12.38
6.55
0.24
-6.76
-14.41
-22.35
-30.13
-37.34
-43.78
-49.53
-54.91
-60.45
-66.78
-74.6
-84.42
-96.3
-109.44
-122.0
-131.3
-134.45
-129.33
-115.4
-94.01
-68.06
-41.06
-16.03
5.22
22.28
35.7
46.37
54.95
61.66
66.4
69.12
69.96
69.43
68.17
66.79
65.71
65.07
64.87
65.05
65.52
66.19
66.9
67.42
67.43
66.67
64.92
62.1
58.23
53.42
47.84
41.74
35.34
28.86
22.42
16.09
9.86
3.63
-2.76
-9.61
-17.16
-25.53
-34.54
-43.69
-52.34
-59.95
-66.46
-72.34
-78.51
-86.03
-95.71
-107.86
-121.95
-136.52
-149.24
-157.24
-157.84
-149.45
-132.21
-108.12
-80.46
-52.64
-27.23
-5.36
13.04
28.62
41.91
53.05
61.88
68.35
72.72
75.54
77.39
78.64
79.38
79.55
79.17
78.44
77.76
77.54
78.01
79.08
80.35
81.23
81.16
79.79
77.07
73.24
68.67
63.7
58.46
52.89
46.82
40.14
32.97
25.65
18.58
12.01
5.91
-0.04
-6.28
-13.19
-20.89
-29.18
-37.72
-46.07
-53.95
-61.31
-68.32
-75.46
-83.41
-92.98
-104.74
-118.57
-133.19
-146.15
-154.26
-154.59
-145.52
-127.36
-102.39
-74.04
-45.84
-20.36
1.17
18.79
33.2
45.19
55.25
63.44
69.68
73.92
76.33
77.27
77.2
76.53
75.58
74.56
73.65
73.07
73.02
73.57
74.54
75.54
76.04
75.52
73.68
70.43
65.96
60.56
54.58
48.31
41.95
35.57
29.19
22.81
16.4
9.96
3.42
-3.37
-10.62
-18.47
-26.86
-35.5
-43.86
-51.45
-57.98
-63.62
-69.0
-75.03
-82.69
-92.64
-104.87
-118.38
-131.21
-140.61
-143.76
-138.61
-124.66
-103.21
-77.08
-49.7
-24.05
-1.91
16.26
30.89
42.62
51.78
58.34
62.2
63.58
63.15
61.91
60.78
60.19
60.08
59.98
59.5
58.58
57.56
56.94
57.13
58.1
59.34
60.04
59.35
56.69
51.97
45.62
38.38
31.08
24.27
18.09
12.19
6.01
-1.0
-9.09
-18.04
-27.29
-36.14
-44.03
-50.78
-56.7
-62.48
-69.06
-77.4
-88.16
-101.31
-115.88
-129.82
-140.36
-144.65
-140.64
-127.81
-107.43
-82.16
-55.27
-29.62
-6.99
12.03
27.77
40.88
51.85
60.86
67.83
72.69
75.56
76.81
76.95
76.46
75.67
74.8
73.97
73.34
73.05
73.13
73.45
73.7
73.5
72.56
70.77
68.25
65.2
61.77
57.99
53.74
48.84
43.17
36.76
29.78
22.52
15.3
8.35
1.7
-4.84
-11.59
-18.88
-26.83
-35.28
-43.83
-52.03
-59.56
-66.49
-73.28
-80.74
-89.71
-100.77
-113.84
-127.89
-140.87
-150.01
-152.49
-146.42
-131.51
-109.34
-82.9
-55.62
-30.31
-8.5
9.65
24.79
37.71
48.77
57.9
64.8
69.37
71.82
72.69
72.56
71.84
70.7
69.17
67.29
65.24
63.33
61.87
61.01
60.65
60.47
60.08
59.13
57.53
55.35
52.86
50.27
47.67
44.85
41.47
37.13
31.7
25.35
18.58
12.04
6.21
1.25
-3.15
-7.57
-12.66
-18.83
-26.08
-33.99
-41.91
-49.25
-55.71
-61.51
-67.28
-73.96
-82.46
-93.33
-106.37
-120.38
-133.19
-142.03
-144.22
-138.01
-123.24
-101.5
-75.69
-49.13
-24.57
-3.53
13.76
27.92
39.74
49.64
57.57
63.21
66.41
67.47
67.08
66.08
65.08
64.29
63.52
62.48
61.07
59.51
58.29
57.88
58.44
59.62
60.7
60.74
59.01
55.19
49.54
42.74
35.62
28.84
22.71
17.12
11.67
5.87
-0.62
-7.9
-15.79
-23.9
-31.75
-38.88
-45.08
-50.47
-55.51
-60.98
-67.8
-76.66
-87.76
-100.44
-113.06
-123.2
-128.25
-126.12
-115.99
-98.61
-76.16
-51.48
-27.27
-5.39
13.35
29.0
41.99
52.66
61.05
67.02
70.47
71.6
70.98
69.48
67.94
67.0
66.85
67.36
68.14
68.82
69.17
69.08
68.57
67.62
66.2
64.17
61.43
57.84
53.37
48.12
42.3
36.18
30.03
23.93
17.8
11.44
4.68
-2.6
-10.38
-18.5
-26.73
-34.84
-42.58
-49.78
-56.44
-62.83
-69.53
-77.29
-86.8
-98.47
-112.02
-126.35
-139.48
-148.84
-151.86
-146.72
-133.03
-112.09
-86.55
-59.64
-34.1
-11.51
7.77
24.26
38.61
51.18
61.86
70.37
76.53
80.45
82.55
83.3
83.15
82.4
81.32
80.2
79.31
78.97
79.3
80.25
81.5
82.52
82.7
81.53
78.85
74.88
70.18
65.35
60.83
56.6
52.3
47.36
41.35
34.2
26.26
18.15
10.5
3.62
-2.52
-8.33
-14.4
-21.24
-29.0
-37.43
-45.99
-54.09
-61.45
-68.23
-75.0
-82.6
-91.81
-103.16
-116.5
-130.83
-144.12
-153.64
-156.57
-150.9
-136.27
-114.14
-87.45
-59.62
-33.46
-10.57
8.74
24.96
38.72
50.35
59.79
66.79
71.29
73.51
74.02
73.54
72.71
71.9
71.21
70.61
70.03
69.52
69.22
69.24
69.54
69.83
69.67
68.63
66.46
63.15
58.92
54.08
48.9
43.54
38.03
32.24
26.09
19.52
12.62
5.49
-1.71
-8.93
-16.2
-23.55
-30.98
-38.36
-45.47
-52.15
-58.4
-64.45
-70.78
-78.07
-86.98
-97.89
-110.5
-123.45
-134.35
-140.23
-138.44
-127.72
-108.81
-84.22
-57.41
-31.5
-8.46
11.14
27.64
41.56
53.07
61.94
67.83
70.7
71.02
69.73
67.87
66.34
65.58
65.62
66.16
66.79
67.25
67.45
67.51
67.55
67.52
67.17
66.09
63.91
60.42
55.69
49.99
43.67
37.05
30.37
23.82
17.4
11.02
4.42
-2.7
-10.57
-19.14
-28.09
-36.89
-45.08
-52.43
-59.08
-65.49
-72.28
-80.11
-89.56
-101.01
-114.35
-128.62
-141.87
-151.36
-154.22
-148.41
-133.58
-111.26
-84.35
-56.23
-29.68
-6.32
13.37
29.74
43.34
54.62
63.77
70.86
75.96
79.25
81.0
81.54
81.25
80.5
79.59
78.78
78.27
78.14
78.42
79.01
79.7
80.12
79.8
78.32
75.46
71.33
66.25
60.7
54.98
49.2
43.23
36.88
30.1
23.06
16.07
9.36
2.95
-3.39
-10.06
-17.33
-25.23
-33.52
-41.72
-49.39
-56.3
-62.54
-68.63
-75.35
-83.61
-94.16
-107.27
-122.3
-137.48
-150.01
-156.7
-154.88
-143.4
-123.15
-96.87
-68.25
-40.69
-16.43
3.86
20.63
34.78
46.95
57.29
65.57
71.56
75.33
77.32
78.12
78.26
78.05
77.53
76.66
75.5
74.19
73.03
72.23
71.87
71.72
71.33
70.24
68.08
64.8
60.64
55.99
51.2
46.4
41.45
36.11
30.22
23.92
17.56
11.55
6.07
0.87
-4.58
-10.86
-18.31
-26.74
-35.62
-44.23
-52.11
-59.12
-65.59
-72.16
-79.6
-88.62
-99.73
-112.91
-127.28
-141.03
-151.47
-155.75
-151.67
-138.55
-117.58
-91.52
-63.77
-37.37
-14.18
5.23
21.19
34.29
44.85
52.8
57.94
60.31
60.44
59.26
57.76
56.65
56.08
55.79
55.42
54.81
54.16
53.93
54.5
55.84
57.46
58.42
57.84
55.12
50.29
43.91
36.9
30.09
23.89
18.19
12.38
5.71
-2.27
-11.53
-21.43
-31.09
-39.65
-46.74
-52.54
-57.72
-63.23
-70.06
-79.03
-90.5
-104.12
-118.52
-131.3
-139.46
-140.27
-132.17
-115.45
-92.25
-65.77
-39.27
-15.05
5.88
23.54
38.45
51.13
61.72
70.17
76.39
80.47
82.7
83.57
83.57
83.09
82.37
81.52
80.62
79.8
79.23
79.12
79.45
80.01
80.28
79.71
77.89
74.72
70.44
65.42
59.95
54.15
47.98
41.37
34.4
27.24
20.13
13.13
6.18
-0.98
-8.57
-16.68
-25.22
-33.89
-42.35
-50.29
-57.54
-64.19
-70.59
-77.37
-85.35
-95.29
-107.47
-121.31
-135.09
-146.11
-151.35
-148.44
-136.49
-116.57
-91.31
-64.07
-37.85
-14.46
5.61
22.74
37.56
50.32
60.91
69.01
74.5
77.67
79.19
79.79
79.96
79.88
79.43
78.53
77.26
75.98
75.17
75.15
75.93
77.05
77.77
77.26
74.96
70.78
65.2
59.03
53.09
47.87
43.25
38.7
33.53
27.36
20.29
12.94
6.01
-0.05
-5.32
-10.31
-15.74
-22.09
-29.46
-37.5
-45.61
-53.19
-59.87
-65.64
-70.88
-76.42
-83.22
-92.21
-103.81
-117.5
-131.52
-143.13
-149.17
-147.1
-135.92
-116.53
-91.54
-64.41
-38.33
-15.39
3.69
19.26
32.11
42.87
51.73
58.58
63.26
65.9
66.92
66.89
66.31
65.42
64.29
62.89
61.3
59.77
58.56
57.86
57.63
57.55
57.16
56.01
53.77
50.34
45.82
40.45
34.61
28.67
22.98
17.7
12.8
7.98
2.81
-3.16
-10.2
-18.3
-27.12
-36.09
-44.56
-52.09
-58.57
-64.34
-70.09
-76.68
-84.89
-95.22
-107.56
-120.98
-133.68
-143.14
-146.79
-142.65
-130.08
-110.08
-85.05
-58.04
-31.85
-8.35
11.81
28.87
43.4
55.77
65.94
73.6
78.61
81.17
81.96
81.85
81.61
81.59
81.78
81.97
82.03
82.04
82.21
82.63
83.12
83.21
82.28
79.92
76.04
70.94
65.12
59.05
53.01
46.99
40.84
34.33
27.47
20.39
13.38
6.69
0.33
-5.95
-12.61
-20.1
-28.65
-38.1
-47.95
-57.55
-66.33
-74.09
-81.01
-87.71
-95.07
-104.0
-115.17
-128.54
-143.0
-156.17
-164.93
-166.2
-158.13
-140.75
-116.21
-87.92
-59.48
-33.52
-11.2
7.57
23.53
37.37
49.4
59.53
67.61
73.67
77.93
80.74
82.44
83.27
83.35
82.77
81.67
80.33
79.12
78.43
78.52
79.38
80.63
81.64
81.64
80.07
76.8
72.21
66.96
61.79
57.14
53.03
49.09
44.76
39.6
33.47
26.65
19.72
13.31
7.87
3.38
-0.59
-4.78
-9.92
-16.37
-24.0
-32.24
-40.35
-47.78
-54.42
-60.57
-66.91
-74.22
-83.26
-94.56
-108.21
-123.53
-138.81
-151.43
-158.36
-157.07
-146.47
-127.43
-102.53
-75.24
-48.8
-25.37
-5.73
10.39
23.76
35.03
44.48
52.1
57.71
61.27
62.96
63.23
62.61
61.65
60.73
60.1
59.82
59.88
60.26
60.88
61.6
62.11
62.0
60.89
58.55
55.0
50.51
45.51
40.34
35.21
30.15
25.08
19.96
14.8
9.73
4.81
-0.02
-5.01
-10.46
-16.57
-23.27
-30.23
-36.92
-42.87
-47.9
-52.24
-56.5
-61.6
-68.5
-77.91
-89.88
-103.46
-116.6
-126.47
-130.12
-125.44
-111.94
-90.98
-65.38
-38.48
-13.19
8.72
26.74
41.23
52.85
62.07
68.97
73.47
75.58
75.63
74.32
72.47
70.75
69.53
68.84
68.57
68.65
69.07
69.9
71.13
72.51
73.58
73.8
72.73
70.15
66.18
61.12
55.4
49.43
43.48
37.63
31.84
25.95
19.82
13.3
6.3
-1.26
-9.49
-18.42
-27.93
-37.7
-47.3
-56.31
-64.5
-71.94
-79.06
-86.62
-95.49
-106.42
-119.72
-134.85
-150.12
-162.86
-169.9
-168.48
-157.3
-137.01
-110.12
-80.21
-50.78
-24.31
-1.89
16.63
32.01
45.02
56.07
65.21
72.3
77.32
80.49
82.19
82.85
82.77
82.08
80.84
79.22
77.55
76.29
75.82
76.2
77.01
77.48
76.77
74.33
70.09
64.46
58.05
51.38
44.72
37.99
30.94
23.33
15.06
6.3
-2.57
-11.1
-18.94
-26.07
-32.8
-39.71
-47.4
-56.15
-65.73
-75.49
-84.56
-92.29
-98.59
-104.01
-109.58
-116.45
-125.46
-136.71
-149.22
-160.91
-168.84
-169.94
-162.0
-144.45
-118.72
-87.84
-55.5
-24.93
1.9
24.47
43.29
59.15
72.57
83.6
92.07
97.88
101.31
102.92
103.36
103.12
102.43
101.28
99.66
97.58
95.25
92.94
90.84
89.03
87.34
85.42
82.76
78.84
73.26
65.94
57.2
47.68
38.12
29.1
20.84
13.16
5.69
-2.06
-10.47
-19.71
-29.75
-40.2
-50.45
-59.74
-67.51
-73.6
-78.41
-82.74
-87.55
-93.72
-101.76
-111.76
-123.16
-134.58
-143.88
-148.49
-146.09
-135.49
-117.2
-93.35
-67.01
-41.16
-17.9
1.87
18.14
31.26
41.51
48.99
53.74
56.06
56.54
56.04
55.44
55.45
56.38
58.22
60.62
63.18
65.58
67.66
69.45
70.98
72.16
72.65
72.03
69.88
66.08
60.87
54.82
48.7
43.14
38.41
34.27
30.08
25.01
18.42
10.21
0.85
-8.71
-17.47
-24.83
-30.77
-35.9
-41.27
-47.93
-56.64
-67.64
-80.42
-93.68
-105.36
-112.98
-114.28
-107.88
-93.87
-73.88
-50.57
-26.79
-4.73
14.52
30.91
44.9
56.93
67.11
75.31
81.35
85.27
87.35
88.0
87.59
86.42
84.77
82.97
81.42
80.5
80.4
81.07
82.16
83.2
83.68
83.15
81.34
78.16
73.7
68.26
62.22
55.98
49.75
43.53
37.21
30.66
23.92
17.16
10.59
4.28
-1.88
-8.13
-14.68
-21.55
-28.54
-35.32
-41.59
-47.18
-52.19
-56.97
-62.1
-68.28
-76.07
-85.56
-96.06
-106.0
-113.13
-115.2
-110.65
-99.15
-81.81
-60.78
-38.65
-17.71
0.54
15.5
27.36
36.7
44.1
49.91
54.24
57.07
58.48
58.7
58.11
57.06
55.76
54.24
52.43
50.35
48.17
46.12
44.35
42.85
41.36
39.57
37.27
34.48
31.37
28.14
24.86
21.45
17.69
13.43
8.67
3.67
-1.19
-5.55
-9.28
-12.51
-15.65
-19.16
-23.36
-28.33
-33.78
-39.28
-44.38
-48.78
-52.47
-55.76
-59.27
-63.73
-69.84
-77.9
-87.51
-97.45
-105.79
-110.33
-109.3
-101.88
-88.53
-70.79
-50.85
-30.88
-12.56
3.19
16.11
26.35
34.18
39.86
43.58
45.57
46.14
45.74
44.85
43.87
43.06
42.48
42.02
41.54
40.96
40.4
40.12
40.41
41.34
42.58
43.42
43.02
40.76
36.52
30.82
24.56
18.63
13.48
9.04
4.86
0.38
-4.76
-10.56
-16.76
-22.96
-28.81
-34.11
-38.93
-43.53
-48.38
-54.09
-61.16
-69.87
-80.02
-90.78
-100.73
-108.01
-110.8
-107.8
-98.71
-84.4
-66.65
-47.63
-29.23
-12.62
1.79
14.1
24.53
33.17
39.97
44.88
48.07
49.9
50.87
51.36
51.58
51.59
51.4
51.12
50.97
51.22
52.06
53.44
55.06
56.39
56.93
56.27
54.32
51.3
47.64
43.77
39.94
36.13
32.08
27.48
22.18
16.31
10.23
4.36
-0.98
-5.8
-10.3
-14.86
-19.77
-25.18
-30.99
-36.99
-42.96
-48.74
-54.36
-60.01
-66.01
-72.79
-80.78
-90.2
-100.75
-111.45
-120.57
-126.03
-126.01
-119.52
-106.85
-89.46
-69.51
-49.19
-30.18
-13.39
0.95
13.04
23.27
31.9
39.13
44.97
49.44
52.61
54.74
56.18
57.28
58.28
59.23
60.04
60.69
61.28
62.05
63.28
65.02
67.1
69.03
70.23
70.17
68.58
65.56
61.51
57.05
52.78
49.01
45.69
42.43
38.69
34.08
28.62
22.72
16.99
11.92
7.6
3.71
-0.37
-5.2
-11.1
-17.96
-25.38
-32.77
-39.61
-45.65
-50.96
-55.93
-61.17
-67.36
-75.15
-84.85
-96.28
-108.5
-119.85
-128.12
-131.15
-127.42
-116.65
-99.96
-79.55
-58.01
-37.54
-19.49
-4.23
8.5
19.14
28.0
35.14
40.52
44.17
46.33
47.39
47.79
47.9
47.92
47.99
48.21
48.76
49.84
51.57
53.92
56.6
59.18
61.16
62.22
62.18
61.07
58.96
55.96
52.18
47.71
42.73
37.46
32.14
26.94
21.91
16.99
12.01
6.74
0.98
-5.34
-12.15
-19.16
-26.04
-32.51
-38.48
-44.19
-50.14
-56.96
-65.23
-75.19
-86.44
-97.86
-107.58
-113.37
-113.24
-106.1
-92.21
-73.15
-51.36
-29.34
-9.0
8.7
23.59
35.93
46.03
54.04
59.98
63.89
65.94
66.45
65.81
64.43
62.68
60.91
59.46
58.6
58.49
59.04
59.99
60.94
61.51
61.43
60.63
59.17
57.12
54.53
51.37
47.56
43.03
37.82
32.06
25.95
19.72
13.55
7.56
1.73
-4.03
-9.89
-15.99
-22.44
-29.24
-36.3
-43.41
-50.34
-56.98
-63.37
-69.89
-77.16
-85.88
-96.47
-108.66
-121.12
-131.68
-137.72
-137.05
-128.64
-113.02
-92.1
-68.53
-44.91
-23.16
-4.28
11.55
24.65
35.49
44.44
51.73
57.4
61.48
64.1
65.5
66.0
65.93
65.49
64.76
63.86
62.98
62.44
62.56
63.43
64.76
65.9
66.16
65.02
62.39
58.56
54.0
49.13
44.2
39.21
34.04
28.53
22.55
16.16
9.56
3.08
-3.06
-8.85
-14.57
-20.7
-27.58
-35.19
-43.04
-50.44
-56.85
-62.27
-67.29
-72.84
-79.88
-88.94
-99.93
-112.0
-123.53
-132.3
-135.93
-132.52
-121.28
-102.91
-79.57
-54.16
-29.47
-7.46
11.06
26.22
38.56
48.63
56.71
62.92
67.29
69.96
71.18
71.33
70.82
70.02
69.2
68.47
67.86
67.31
66.81
66.4
66.12
65.95
65.7
65.06
63.66
61.22
57.61
52.92
47.37
41.29
34.98
28.75
22.83
17.29
