0
4.21
3.28
2.61
1.99
1.06
-0.49
-2.77
-5.6
-8.62
-11.47
-13.95
-16.12
-18.23
-20.57
-23.32
-26.47
-29.73
-32.68
-34.79
-35.57
-34.59
-31.63
-26.64
-19.88
-11.9
-3.5
4.48
11.28
16.51
20.12
22.35
23.52
23.88
23.57
22.68
21.34
19.8
18.33
17.06
16.04
15.1
14.12
13.02
11.85
10.7
9.6
8.51
7.38
6.09
4.64
3.03
1.29
-0.55
-2.47
-4.45
-6.5
-8.66
-10.94
-13.31
-15.66
-17.87
-19.94
-22.05
-24.45
-27.31
-30.45
-33.26
-34.85
-34.4
-31.48
-26.23
-19.23
-11.3
-3.22
4.45
11.31
17.08
21.57
24.69
26.47
27.04
26.66
25.6
24.12
22.4
20.56
18.72
16.97
15.36
13.9
12.56
11.31
10.09
8.88
7.67
6.5
5.44
4.56
3.82
3.11
2.14
0.62
-1.65
-4.66
-8.14
-11.72
-15.02
-17.86
-20.28
-22.55
-24.98
-27.82
-31.13
-34.75
-38.26
-41.09
-42.57
-42.09
-39.3
-34.27
-27.43
-19.54
-11.38
-3.65
3.23
9.03
13.73
17.37
20.09
22.04
23.36
24.13
24.37
24.03
23.17
21.94
20.6
19.43
18.58
18.02
17.61
17.15
16.57
15.86
15.07
14.13
12.92
11.3
9.15
6.48
3.44
0.25
-2.89
-5.83
-8.48
-10.91
-13.24
-15.68
-18.44
-21.69
-25.45
-29.61
-33.86
-37.74
-40.72
-42.23
-41.77
-39.01
-33.94
-26.86
-18.4
-9.37
-0.58
7.35
14.07
19.48
23.6
26.51
28.26
28.89
28.53
27.38
25.72
23.81
21.86
19.95
18.12
16.44
15.0
13.87
13.12
12.68
12.41
12.1
11.52
10.49
8.88
6.61
3.77
0.51
-2.93
-6.34
-9.62
-12.83
-16.19
-19.93
-24.17
-28.74
-33.23
-36.99
-39.28
-39.49
-37.22
-32.42
-25.45
-17.02
-8.0
0.7
8.37
14.6
19.22
22.33
24.15
24.95
24.97
24.4
23.29
21.67
19.6
17.23
14.81
12.6
10.75
9.3
8.17
7.28
6.54
5.95
5.36
4.54
3.21
1.21
-1.38
-4.25
-6.99
-9.36
-11.38
-13.3
-15.55
-18.4
-21.93
-25.9
-29.81
-32.92
-34.43
-33.66
-30.28
-24.47
-16.85
-8.34
0.15
7.87
14.39
19.46
23.03
25.15
25.98
25.84
25.08
24.07
23.0
21.92
20.8
19.59
18.25
16.78
15.24
13.73
12.34
11.22
10.42
9.78
9.02
7.73
5.64
2.7
-0.81
-4.49
-7.91
-10.85
-13.39
-15.75
-18.26
-21.19
-24.63
-28.48
-32.35
-35.61
-37.53
-37.43
-34.87
-29.82
-22.7
-14.23
-5.26
3.41
11.19
17.74
22.92
26.69
29.06
30.07
29.87
28.7
26.99
25.19
23.66
22.58
21.9
21.43
20.96
20.37
19.6
18.64
17.48
16.11
14.53
12.79
10.94
8.9
6.55
3.7
0.31
-3.52
-7.53
-11.44
-15.04
-18.35
-21.49
-24.65
-27.94
-31.35
-34.75
-37.89
-40.42
-41.88
-41.81
-39.75
-35.48
-29.08
-21.05
-12.15
-3.26
4.86
11.71
17.09
21.01
23.64
25.11
25.64
25.47
24.94
24.38
24.03
23.95
24.03
24.05
23.87
23.45
22.85
22.08
21.15
19.98
18.52
16.8
14.96
13.1
11.25
9.31
7.14
4.6
1.73
-1.38
-4.51
-7.48
-10.14
-12.41
-14.34
-16.11
-18.06
-20.53
-23.81
-27.86
-32.21
-36.08
-38.59
-38.97
-36.81
-32.14
-25.37
-17.18
-8.36
0.28
8.09
14.62
19.66
23.21
25.43
26.53
26.7
26.12
24.98
23.46
21.73
19.91
18.02
16.04
13.93
11.78
9.73
7.96
6.58
5.54
4.66
3.73
2.54
1.0
-0.88
-2.97
-5.13
-7.27
-9.36
-11.5
-13.84
-16.6
-19.85
-23.46
-27.02
-29.92
-31.46
-31.09
-28.54
-23.91
-17.63
-10.38
-2.87
4.27
10.58
15.81
19.83
22.61
24.16
24.52
23.81
22.23
20.03
17.54
15.04
12.74
10.73
9.06
7.73
6.71
5.93
5.23
4.38
3.11
1.22
-1.34
-4.37
-7.56
-10.59
-13.25
-15.55
-17.64
-19.73
-21.99
-24.53
-27.32
-30.22
-32.86
-34.58
-34.63
-32.3
-27.33
-20.07
-11.48
-2.8
4.93
11.14
15.79
19.17
21.62
23.33
24.32
24.58
24.18
23.26
21.99
20.43
18.6
16.52
14.3
12.12
10.21
8.67
7.45
6.31
5.01
3.34
1.27
-1.09
-3.55
-6.0
-8.5
-11.32
-14.78
-19.05
-23.98
-29.06
-33.5
-36.46
-37.29
-35.72
-31.77
-25.78
-18.3
-10.0
-1.61
6.2
12.95
18.39
22.47
25.3
27.05
27.86
27.84
27.09
25.71
23.85
21.67
19.33
16.97
14.76
12.85
11.32
10.15
9.17
8.08
6.61
4.55
1.86
-1.29
-4.61
-7.78
-10.52
-12.75
-14.58
-16.32
-18.34
-21.02
-24.52
-28.75
-33.24
-37.19
-39.6
-39.61
-36.75
-31.13
-23.42
-14.58
-5.64
2.61
9.7
15.39
19.6
22.39
23.91
24.43
24.3
23.87
23.33
22.8
22.2
21.49
20.57
19.37
17.84
16.07
14.27
12.78
11.97
11.97
12.51
13.1
13.07
11.96
9.68
6.38
2.44
-1.81
-6.1
-10.23
-14.04
-17.45
-20.51
-23.41
-26.34
-29.38
-32.29
-34.58
-35.62
-34.85
-31.91
-26.76
-19.62
-10.99
-1.64
7.57
15.77
22.33
27.0
29.85
31.12
31.15
30.22
28.6
26.62
24.64
22.93
21.58
20.44
19.25
17.8
16.03
14.06
12.11
10.33
8.73
7.28
5.85
4.35
2.76
1.0
-0.95
-3.15
-5.62
-8.39
-11.4
-14.57
-17.81
-20.99
-23.99
-26.75
-29.11
-30.9
-31.8
-31.38
-29.29
-25.36
-19.75
-12.97
-5.72
1.27
7.44
12.47
16.27
18.86
20.33
20.81
20.45
19.47
18.16
16.78
15.54
14.57
13.92
13.53
13.33
13.2
13.05
12.78
12.29
11.47
10.25
8.59
6.45
3.86
0.88
-2.38
-5.72
-9.0
-12.15
-15.22
-18.44
-22.02
-25.99
-30.04
-33.54
-35.64
-35.57
-32.94
-27.84
-20.83
-12.71
-4.38
3.36
9.92
14.99
18.53
20.73
21.91
22.4
22.41
22.06
21.34
20.26
18.83
17.1
15.08
12.83
10.48
8.21
6.28
4.89
4.04
3.57
3.16
2.48
1.4
-0.16
-2.22
-4.82
-7.99
-11.71
-15.87
-20.17
-24.3
-27.98
-30.95
-32.91
-33.52
-32.46
-29.5
-24.75
-18.6
-11.67
-4.61
2.06
8.03
13.15
17.34
20.51
22.67
23.82
24.03
23.41
22.1
20.25
18.07
15.78
13.64
11.82
10.41
9.33
8.48
7.66
6.68
5.47
3.98
2.27
0.43
-1.42
-3.22
-5.02
-6.95
-9.25
-12.16
-15.8
-20.1
-24.68
-28.92
-32.04
-33.28
-32.15
-28.52
-22.76
-15.57
-7.85
-0.41
6.05
11.15
14.71
16.78
17.55
17.35
16.56
15.57
14.65
13.88
13.15
12.29
11.09
9.59
7.94
6.49
5.55
5.29
5.62
6.26
6.77
6.81
6.19
4.91
3.09
0.89
-1.57
-4.21
-7.0
-9.95
-13.12
-16.56
-20.37
-24.52
-28.81
-32.78
-35.78
-37.06
-36.11
-32.73
-27.21
-20.17
-12.43
-4.75
2.31
8.44
13.51
17.45
20.17
21.62
21.88
21.2
19.98
18.63
17.4
16.33
15.26
14.06
12.72
11.4
10.27
9.43
8.84
8.34
7.75
6.92
5.73
4.04
1.74
-1.15
-4.47
-7.87
-11.0
-13.67
-15.96
-18.18
-20.75
-23.95
-27.89
-32.42
-37.19
-41.73
-45.43
-47.67
-47.98
-46.21
-42.61
-37.79
-32.51
-27.49
-23.22
-19.99
-17.92
-17.04
-17.37
-18.8
-21.14
-24.03
-27.05
-29.74
-31.64
-32.4
-31.75
-29.52
-25.59
-19.98
-12.72
-3.99
5.88
16.41
26.9
36.56
44.62
50.59
54.3
55.95
55.93
54.62
52.28
48.91
44.47
38.97
32.58
25.63
18.51
11.67
5.6
0.84
-2.11
-2.83
-1.25
2.32
7.19
12.49
17.51
21.8
25.23
27.86
29.78
31.01
31.48
31.1
29.87
27.87
25.33
22.57
19.93
17.68
15.93
14.64
13.63
12.68
11.66
10.52
9.21
7.67
5.79
3.46
0.73
-2.23
-5.14
-7.74
-9.95
-11.82
-13.53
-15.29
-17.32
-19.75
-22.71
-26.16
-29.77
-32.89
-34.69
-34.4
-31.62
-26.53
-19.79
-12.27
-4.79
2.11
8.19
13.33
17.49
20.6
22.65
23.74
24.1
24.0
23.64
23.11
22.4
21.46
20.24
18.75
17.1
15.43
13.9
12.67
11.78
11.2
10.77
10.26
9.44
8.14
6.23
3.67
0.52
-3.08
-6.88
-10.54
-13.76
-16.46
-18.78
-21.13
-23.98
-27.63
-32.03
-36.75
-41.06
-44.16
-45.34
-44.15
-40.48
-34.55
-26.89
-18.26
-9.45
-1.21
5.93
11.68
15.98
18.92
20.67
21.5
21.67
21.5
21.22
20.97
20.73
20.39
19.82
18.92
17.7
16.26
14.78
13.44
12.39
11.68
11.17
10.61
9.66
8.05
5.72
2.78
-0.5
-3.81
-6.92
-9.73
-12.2
-14.4
-16.45
-18.57
-21.03
-24.04
-27.61
-31.38
-34.68
-36.7
-36.67
-34.2
-29.35
-22.63
-14.82
-6.8
0.67
7.12
12.29
16.22
19.04
20.92
22.02
22.44
22.27
21.61
20.65
19.59
18.6
17.76
17.03
16.28
15.42
14.42
13.33
12.27
11.27
10.3
9.18
7.73
5.82
3.49
0.92
-1.7
-4.2
-6.57
-8.86
-11.14
-13.46
-15.87
-18.42
-21.12
-23.87
-26.47
-28.48
-29.34
-28.53
-25.77
-21.1
-14.94
-7.98
-0.98
5.37
10.59
14.48
17.02
18.33
18.54
17.82
16.33
14.3
12.06
9.94
8.24
7.11
6.52
6.34
6.4
6.48
6.39
5.93
4.96
3.43
1.42
-0.79
-2.9
-4.7
-6.18
-7.46
-8.81
-10.45
-12.58
-15.33
-18.73
-22.7
-26.92
-30.83
-33.69
-34.78
-33.6
-30.04
-24.45
-17.48
-9.93
-2.48
4.31
10.09
14.69
18.07
20.35
21.72
22.42
22.59
22.27
21.45
20.11
18.37
16.46
14.69
13.28
12.3
11.64
11.11
10.5
9.67
8.5
6.9
4.79
2.2
-0.73
-3.77
-6.69
-9.38
-11.85
-14.26
-16.83
-19.71
-22.99
-26.64
-30.44
-33.93
-36.45
-37.24
-35.69
-31.6
-25.33
-17.65
-9.52
-1.79
5.01
10.65
15.14
18.56
21.03
22.63
23.51
23.8
23.63
23.12
22.32
21.33
20.22
19.11
18.08
17.17
16.42
15.85
15.54
15.49
15.59
15.56
15.02
13.62
11.22
8.02
4.42
0.91
-2.14
-4.64
-6.71
-8.71
-10.99
-13.86
-17.44
-21.59
-25.86
-29.59
-32.04
-32.6
-30.95
-27.12
-21.44
-14.4
-6.58
1.43
9.07
15.8
21.27
25.24
27.74
28.94
29.09
28.49
27.4
26.08
24.71
23.42
22.26
21.17
20.03
18.74
17.3
15.8
14.35
13.02
11.82
10.66
9.41
7.93
6.08
3.79
1.09
-1.9
-5.01
-8.03
-10.91
-13.74
-16.71
-20.0
-23.57
-27.09
-29.91
-31.33
-30.77
-28.05
-23.4
-17.39
-10.72
-4.02
2.24
7.8
12.57
16.46
19.41
21.34
22.2
22.05
21.02
19.33
17.23
14.95
12.68
10.61
8.91
7.7
6.97
6.56
6.2
5.56
4.43
2.76
0.71
-1.49
-3.58
-5.39
-6.92
-8.24
-9.57
-11.19
-13.42
-16.42
-20.14
-24.19
-27.9
-30.44
-31.09
-29.45
-25.5
-19.65
-12.57
-5.06
2.09
8.27
13.12
16.64
19.07
20.8
22.14
23.15
23.69
23.53
22.49
20.68
18.36
15.93
13.73
11.94
10.58
9.59
8.85
8.21
7.49
6.48
4.96
2.84
0.2
-2.81
-5.96
-9.13
-12.33
-15.64
-19.18
-22.96
-26.88
-30.65
-33.88
-36.02
-36.57
-35.11
-31.5
-25.98
-19.07
-11.48
-3.88
3.24
9.57
14.88
19.01
21.84
23.35
23.72
23.24
22.26
21.02
19.62
18.06
16.37
14.63
12.96
11.48
10.24
9.21
8.33
7.5
6.59
5.45
3.92
1.89
-0.59
-3.34
-6.09
-8.68
-11.05
-13.34
-15.75
-18.52
-21.77
-25.53
-29.66
-33.81
-37.39
-39.65
-39.91
-37.77
-33.35
-27.19
-20.08
-12.75
-5.68
0.86
6.78
11.96
16.25
19.49
21.68
22.98
23.61
23.76
23.48
22.72
21.45
19.78
17.97
16.34
15.06
14.16
13.54
13.01
12.5
11.97
11.41
10.74
9.83
8.55
6.85
4.79
2.48
0.03
-2.52
-5.2
-8.02
-10.93
-13.84
-16.67
-19.37
-21.99
-24.63
-27.48
-30.67
-34.25
-38.03
-41.51
-43.98
-44.67
-43.01
-38.88
-32.66
-25.09
-17.01
-9.07
-1.69
4.92
10.67
15.44
19.14
21.75
23.35
24.12
24.28
24.05
23.58
23.01
22.44
21.91
21.34
20.59
19.52
18.09
16.42
14.71
13.14
11.79
10.55
9.25
7.77
6.03
4.01
1.71
-0.86
-3.68
-6.63
-9.54
-12.26
-14.77
-17.19
-19.69
-22.43
-25.34
-28.24
-30.71
-32.3
-32.53
-30.99
-27.47
-22.1
-15.37
-8.09
-1.09
5.0
9.97
13.97
17.25
19.93
21.91
22.98
23.02
22.16
20.82
19.41
18.2
17.17
16.14
14.9
13.45
11.98
10.75
9.98
9.66
9.62
9.54
9.07
7.96
6.08
3.51
0.51
-2.57
-5.42
-7.84
-9.91
-11.88
-14.08
-16.79
-20.13
-24.02
-28.17
-32.08
-35.05
-36.32
-35.27
-31.61
-25.56
-17.86
-9.51
-1.47
5.57
11.28
15.62
18.67
20.55
21.4
21.46
21.02
20.37
19.73
19.14
18.54
17.87
17.12
16.38
15.73
15.23
14.83
14.45
13.99
13.4
12.63
11.62
10.28
8.54
6.38
3.83
0.98
-2.07
-5.18
-8.24
-11.1
-13.7
-16.15
-18.72
-21.75
-25.47
-29.79
-34.17
-37.76
-39.7
-39.37
-36.58
-31.58
-24.93
-17.3
-9.36
-1.69
5.25
11.15
15.89
19.48
22.05
23.74
24.68
24.98
24.8
24.33
23.75
23.21
22.71
22.2
21.63
21.0
20.37
19.78
19.25
18.7
18.03
17.2
16.19
15.0
13.57
11.81
9.61
6.93
3.82
0.42
-3.08
-6.49
-9.68
-12.59
-15.28
-17.92
-20.77
-24.08
-27.94
-32.12
-36.01
-38.77
-39.52
-37.71
-33.29
-26.8
-19.11
-11.19
-3.8
2.63
8.01
12.43
15.99
18.78
20.78
22.03
22.57
22.51
21.99
21.15
20.15
19.18
18.43
18.04
18.03
18.31
18.64
18.79
18.62
18.07
17.21
16.13
14.88
13.44
11.76
9.73
7.33
4.59
1.67
-1.3
-4.18
-6.91
-9.58
-12.32
-15.31
-18.65
-22.35
-26.26
-30.02
-33.15
-35.12
-35.48
-33.91
-30.37
-25.04
-18.34
-10.8
-3.0
4.47
11.12
16.6
20.7
23.41
24.85
25.23
24.76
23.62
22.03
20.22
18.47
17.04
16.06
15.47
15.01
14.34
13.22
11.62
9.76
7.93
6.36
5.04
3.77
2.3
0.47
-1.7
-4.01
-6.24
-8.27
-10.13
-11.95
-13.95
-16.29
-19.07
-22.24
-25.58
-28.62
-30.75
-31.33
-29.96
-26.59
-21.54
-15.41
-8.85
-2.39
3.62
8.97
13.51
17.1
19.56
20.78
20.79
19.76
18.01
15.96
14.03
12.56
11.72
11.49
11.66
11.93
12.03
11.83
11.33
10.62
9.75
8.7
7.35
5.6
3.44
1.02
-1.45
-3.77
-5.89
-7.88
-9.92
-12.18
-14.78
-17.74
-21.08
-24.68
-28.32
-31.56
-33.75
-34.2
-32.4
-28.27
-22.2
-14.99
-7.57
-0.69
5.2
10.02
13.9
17.02
19.53
21.45
22.72
23.25
23.07
22.25
20.97
19.42
17.74
16.05
14.4
12.87
11.53
10.42
9.51
8.73
7.99
7.19
6.32
5.34
4.21
2.81
1.02
-1.22
-3.86
-6.75
-9.69
-12.57
-15.37
-18.16
-21.04
-24.02
-27.1
-30.18
-33.09
-35.53
-37.1
-37.33
-35.83
-32.44
-27.34
-20.99
-14.0
-6.96
-0.34
5.48
10.26
13.82
16.18
17.5
18.06
18.17
18.02
17.61
16.92
15.95
14.84
13.81
13.09
12.78
12.88
13.28
13.84
14.36
14.64
14.41
13.46
11.76
9.47
6.95
4.56
2.5
0.76
-0.88
-2.64
-4.67
-6.91
-9.2
-11.42
-13.49
-15.53
-17.73
-20.34
-23.48
-27.12
-30.92
-34.35
-36.77
-37.54
-36.31
-33.04
-28.01
-21.72
-14.73
-7.62
-0.87
5.1
10.02
13.85
16.7
18.83
20.45
21.62
22.25
22.22
21.52
20.37
19.13
18.11
17.42
16.94
16.42
15.66
14.62
13.4
12.18
11.04
9.97
8.89
7.68
6.27
4.64
2.82
0.87
-1.1
-2.97
-4.69
-6.31
-8.03
-10.12
-12.81
-16.16
-20.03
-24.07
-27.79
-30.69
-32.32
-32.37
-30.71
-27.42
-22.75
-17.11
-10.99
-4.89
0.79
5.73
9.75
12.79
14.91
16.21
16.86
17.04
16.86
16.43
15.79
15.05
14.26
13.53
12.87
12.29
11.75
11.21
10.62
9.95
9.12
7.99
6.46
4.46
2.04
-0.67
-3.46
-6.16
-8.65
-10.9
-12.97
-14.99
-17.15
-19.71
-22.81
-26.4
-30.09
-33.23
-35.05
-34.87
-32.4
-27.73
-21.37
-14.02
-6.4
0.84
7.26
12.62
16.87
20.09
22.37
23.84
24.6
24.75
24.39
23.64
22.62
21.47
20.27
19.18
18.35
17.89
17.8
17.94
18.02
17.75
16.94
15.64
14.03
12.3
10.48
8.42
5.88
2.76
-0.84
-4.59
-8.13
-11.19
-13.78
-16.12
-18.5
-21.21
-24.43
-28.18
-32.28
-36.34
-39.8
-41.96
-42.2
-40.14
-35.83
-29.67
-22.28
-14.33
-6.44
0.95
7.48
12.94
17.24
20.46
22.82
24.59
25.92
26.82
27.19
26.95
26.09
24.86
23.56
22.45
21.65
21.09
20.57
19.95
19.08
17.98
16.74
15.42
14.1
12.76
11.32
9.67
7.68
5.27
2.51
-0.47
-3.51
-6.48
-9.34
-12.12
-14.83
-17.46
-19.97
-22.37
-24.8
-27.44
-30.34
-33.3
-35.72
-36.83
-35.89
-32.55
-27.02
-19.97
-12.26
-4.67
2.24
8.16
12.96
16.61
19.19
20.89
22.01
22.81
23.44
23.84
23.85
23.36
22.38
21.16
20.0
19.12
18.65
18.49
18.45
18.37
18.13
17.64
16.9
15.86
14.43
12.56
10.21
7.44
4.42
1.37
-1.48
-4.01
-6.24
-8.31
-10.41
-12.68
-15.17
-17.88
-20.81
-24.03
-27.56
-31.28
-34.81
-37.54
-38.74
-37.79
-34.45
-28.94
-21.87
-14.07
-6.35
0.65
6.58
11.34
15.05
17.96
20.3
22.24
23.87
25.12
25.85
25.93
25.34
24.17
22.64
21.04
19.62
18.58
18.01
17.81
17.75
17.51
16.75
15.29
13.16
10.57
7.87
5.33
3.09
1.09
-0.82
-2.8
-4.92
-7.15
-9.45
-11.77
-14.15
-16.65
-19.31
-22.19
-25.31
-28.68
-32.23
-35.78
-38.93
-41.13
-41.82
-40.53
-37.13
-31.79
-25.02
-17.51
-10.0
-3.1
2.79
7.49
11.1
13.8
15.85
17.41
18.56
19.3
19.63
19.61
19.35
18.95
18.46
17.88
17.21
16.49
15.82
15.29
14.91
14.6
14.23
13.64
12.69
11.32
9.51
7.31
4.84
2.26
-0.31
-2.76
-5.13
-7.48
-9.86
-12.2
-14.38
-16.27
-17.96
-19.69
-21.8
-24.54
-27.79
-31.04
-33.49
-34.33
-32.99
-29.4
-23.9
-17.13
-9.9
-2.88
3.44
8.86
13.34
16.97
19.73
21.55
22.36
22.17
21.21
19.88
18.63
17.74
17.32
17.17
17.03
16.71
16.16
15.46
14.71
13.91
13.02
11.91
10.5
8.82
6.92
4.89
2.77
0.52
-1.91
-4.57
-7.41
-10.3
-13.07
-15.62
-17.99
-20.38
-23.02
-26.0
-29.13
-31.84
-33.36
-32.95
-30.22
-25.32
-18.89
-11.79
-4.85
1.42
6.85
11.43
15.18
18.01
19.82
20.53
20.29
19.4
18.24
17.1
16.09
15.14
14.12
12.95
11.65
10.41
9.42
8.81
8.54
8.34
7.87
6.79
4.94
2.44
-0.42
-3.27
-5.87
-8.11
-10.09
-11.96
-13.96
-16.31
-19.19
-22.67
-26.57
-30.41
-33.44
-34.91
-34.28
-31.42
-26.68
-20.67
-14.05
-7.37
-0.99
4.85
9.97
14.29
17.8
20.54
22.56
23.87
24.45
24.29
23.49
22.25
20.84
19.49
18.29
17.25
16.28
15.38
14.58
13.9
13.27
12.51
11.38
9.74
7.6
5.11
2.48
-0.09
-2.49
-4.72
-6.78
-8.73
-10.62
-12.51
-14.49
-16.67
-19.11
-21.91
-25.1
-28.58
-32.07
-35.06
-36.84
-36.77
-34.46
-29.94
-23.68
-16.41
-8.89
-1.74
4.65
10.0
14.18
17.16
19.06
20.18
20.88
21.43
21.94
22.35
22.52
22.38
21.94
21.27
20.46
19.54
18.56
17.59
16.76
16.17
15.77
15.4
14.78
13.63
11.85
9.44
6.56
3.34
-0.05
-3.49
-6.81
-9.83
-12.4
-14.48
-16.2
-17.86
-19.86
-22.57
-26.14
-30.41
-34.81
-38.49
-40.51
-40.22
-37.39
-32.3
-25.62
-18.17
-10.65
-3.61
2.63
7.93
12.25
15.65
18.28
20.29
21.86
23.04
23.76
23.9
23.41
22.38
21.12
19.96
19.13
18.68
18.44
18.15
17.63
16.85
15.93
15.0
14.04
12.9
11.33
9.16
6.42
3.34
0.2
-2.74
-5.39
-7.75
-9.86
-11.82
-13.73
-15.8
-18.24
-21.29
-24.95
-28.97
-32.75
-35.5
-36.46
-35.09
-31.24
-25.26
-17.84
-9.94
-2.47
3.89
8.88
12.62
15.47
17.8
19.75
21.21
22.01
22.01
21.29
20.1
18.8
17.66
16.82
16.29
16.01
15.9
15.87
15.87
15.81
15.65
15.32
14.7
13.62
11.86
9.34
6.16
2.61
-0.91
-4.11
-6.9
-9.39
-11.81
-14.31
-17.01
-19.95
-23.15
-26.58
-30.01
-33.0
-34.85
-34.92
-32.8
-28.51
-22.53
-15.54
-8.29
-1.36
4.84
10.06
14.18
17.18
19.11
20.09
20.27
19.8
18.84
17.54
16.11
14.72
13.52
12.56
11.82
11.24
10.75
10.3
9.86
9.32
8.56
7.4
5.74
3.55
0.95
-1.87
-4.68
-7.29
-9.61
-11.69
-13.7
-15.88
-18.45
-21.53
-25.06
-28.71
-31.88
-33.87
-34.02
-31.96
-27.73
-21.78
-14.75
-7.39
-0.27
6.23
11.92
16.67
20.43
23.1
24.64
25.11
24.72
23.77
22.64
21.61
20.82
20.24
19.67
18.9
17.82
16.46
14.97
13.53
12.19
10.89
9.49
7.86
6.0
3.93
1.73
-0.54
-2.89
-5.3
-7.7
-10.03
-12.24
-14.37
-16.53
-18.87
-21.5
-24.43
-27.59
-30.77
-33.63
-35.66
-36.32
-35.08
-31.68
-26.24
-19.27
-11.55
-3.84
3.25
9.35
14.3
18.12
20.89
22.76
23.96
24.68
25.06
25.13
24.85
24.16
23.1
21.75
20.25
18.73
17.32
16.05
14.98
14.12
13.43
12.81
12.07
10.98
9.38
7.2
4.49
1.39
-1.91
-5.23
-8.41
-11.27
-13.69
-15.6
-17.1
-18.43
-19.98
-22.14
-25.15
-28.91
-32.98
-36.64
-39.09
-39.7
-38.15
-34.39
-28.73
-21.69
-13.95
-6.29
0.64
6.36
10.77
14.04
16.52
18.53
20.2
21.49
22.33
22.61
22.38
21.7
20.63
19.26
17.68
16.09
14.66
13.57
12.81
12.22
11.56
10.65
9.4
7.8
5.84
3.51
0.84
-2.01
-4.76
-7.11
-8.93
-10.34
-11.65
-13.26
-15.4
-18.09
-21.17
-24.4
-27.52
-30.19
-31.96
-32.29
-30.76
-27.23
-21.94
-15.49
-8.63
-2.05
3.76
8.6
12.49
15.6
18.14
20.25
21.94
23.05
23.37
22.78
21.35
19.34
17.07
14.82
12.74
10.91
9.46
8.57
8.4
8.93
9.85
10.65
10.82
10.07
8.43
6.24
3.87
1.58
-0.55
-2.59
-4.64
-6.76
-8.96
-11.23
-13.61
-16.23
-19.2
-22.48
-25.78
-28.55
-30.07
-29.72
-27.15
-22.52
-16.42
-9.76
-3.4
2.03
6.32
9.59
12.11
14.04
15.43
16.12
16.03
15.27
14.13
13.04
12.27
11.8
11.32
10.45
9.06
7.32
5.68
4.54
4.07
3.99
3.84
3.19
1.84
-0.13
-2.51
-5.04
-7.58
-10.07
-12.49
-14.9
-17.36
-19.99
-22.81
-25.67
-28.13
-29.63
-29.58
-27.67
-23.93
-18.71
-12.53
-5.9
0.72
6.97
12.53
17.15
20.63
22.81
23.66
23.27
21.93
20.05
18.13
16.57
15.49
14.81
14.24
13.56
12.7
11.73
10.74
9.74
8.52
6.92
4.85
2.49
0.17
-1.85
-3.57
-5.25
-7.29
-9.99
-13.46
-17.53
-21.92
-26.31
-30.39
-33.73
-35.81
-36.07
-34.07
-29.7
-23.32
-15.67
-7.66
-0.1
6.46
11.82
16.02
19.21
21.54
23.1
23.99
24.27
24.09
23.66
23.14
22.66
22.2
21.63
20.82
19.74
18.5
17.36
16.57
16.13
15.77
14.99
13.32
10.53
6.8
2.58
-1.59
-5.35
-8.6
-11.47
-14.2
-17.02
-20.14
-23.69
-27.71
-32.06
-36.27
-39.67
-41.43
-40.91
-37.85
-32.46
-25.34
-17.29
-9.1
-1.47
5.14
10.46
14.47
17.34
19.34
20.73
21.64
22.05
21.95
21.37
20.48
19.51
18.58
17.74
16.91
16.0
15.06
14.22
13.67
13.44
13.43
13.32
12.84
11.72
9.9
7.41
4.39
1.05
-2.4
-5.73
-8.76
-11.46
-13.97
-16.5
-19.34
-22.66
-26.49
-30.63
-34.71
-38.17
-40.33
-40.53
-38.31
-33.61
-26.82
-18.73
-10.24
-2.18
4.93
10.89
15.73
19.55
22.46
24.5
25.72
26.23
26.16
25.66
24.84
23.8
22.65
21.46
20.33
19.36
18.6
18.05
17.65
17.26
16.72
15.83
14.44
12.44
9.82
6.66
3.14
-0.5
-4.0
-7.12
-9.69
-11.66
-13.18
-14.55
-16.19
-18.46
-21.52
-25.14
-28.74
-31.46
-32.51
-31.34
-27.88
-22.44
-15.61
-8.08
-0.49
6.63
12.82
17.72
21.15
23.12
23.86
23.69
22.94
21.82
20.48
18.98
17.45
15.99
14.68
13.51
12.4
11.3
10.28
9.49
9.08
9.06
9.17
8.98
8.05
6.09
3.14
-0.51
-4.4
-8.04
-11.05
-13.28
-14.77
-15.81
-16.91
-18.55
-21.08
-24.5
-28.37
-31.94
-34.3
-34.7
-32.72
-28.36
-22.04
-14.47
-6.5
1.05
7.6
12.82
16.71
19.5
21.48
22.86
23.75
24.16
24.13
23.72
23.09
22.35
21.52
20.58
19.47
18.17
16.81
15.5
14.35
13.36
12.44
11.46
10.3
8.87
7.11
4.99
2.53
-0.14
-2.86
-5.46
-7.86
-10.12
-12.39
-14.82
-17.48
-20.37
-23.47
-26.76
-30.2
-33.57
-36.42
-38.12
-38.03
-35.75
-31.27
-25.02
-17.67
-9.89
-2.33
4.58
10.47
15.16
18.61
20.94
22.45
23.38
23.9
24.03
23.7
22.89
21.72
20.42
19.21
18.27
17.59
17.12
16.74
16.37
15.89
15.19
14.12
12.58
10.53
8.06
5.34
2.5
-0.34
-3.16
-5.92
-8.58
-11.09
-13.39
-15.55
-17.71
-20.07
-22.76
-25.86
-29.24
-32.65
-35.68
-37.82
-38.56
-37.45
-34.27
-29.08
-22.3
-14.59
-6.74
0.51
6.67
11.56
15.24
17.98
20.02
21.57
22.64
23.19
23.19
22.66
21.76
20.64
19.47
18.3
17.12
15.96
14.94
14.2
13.84
13.81
13.85
13.61
12.77
11.22
9.01
6.37
3.52
0.66
-2.03
-4.46
-6.59
-8.45
-10.15
-11.88
-13.85
-16.16
-18.88
-21.99
-25.41
-28.92
-32.14
-34.46
-35.2
-33.82
-30.13
-24.42
-17.38
-9.9
-2.77
3.5
8.7
12.86
16.09
18.49
20.11
20.95
21.07
20.54
19.48
18.11
16.64
15.22
13.95
12.8
11.71
10.64
9.67
8.9
8.42
8.16
7.89
7.24
5.94
3.92
1.37
-1.33
-3.85
-5.97
-7.73
-9.32
-11.03
-13.16
-15.97
-19.55
-23.74
-28.08
-31.86
-34.31
-34.87
-33.28
-29.66
-24.43
-18.09
-11.26
-4.51
1.59
6.62
10.36
12.88
14.45
15.47
16.19
16.67
16.78
16.39
15.45
14.11
12.64
11.34
10.38
9.78
9.43
9.13
8.67
7.84
6.52
4.69
2.47
0.01
-2.49
-4.91
-7.25
-9.54
-11.93
-14.52
-17.43
-20.68
-24.22
-27.74
-30.73
-32.5
-32.38
-29.97
-25.29
-18.82
-11.34
-3.69
3.45
9.7
14.86
18.9
21.8
23.59
24.36
24.26
23.48
22.24
20.77
19.24
17.79
16.45
15.27
14.21
13.26
12.44
11.78
11.27
10.78
10.03
8.74
6.73
4.02
0.86
-2.39
-5.44
-8.16
-10.61
-12.96
-15.47
-18.35
-21.79
-25.81
-30.22
-34.49
-37.88
-39.59
-39.0
-35.9
-30.53
-23.42
-15.26
-6.75
1.45
8.79
14.82
19.32
22.34
24.17
25.16
25.58
25.48
24.83
23.6
21.97
20.22
18.65
17.45
16.58
15.87
15.13
14.28
13.34
12.4
11.45
10.36
8.96
7.05
4.57
1.61
-1.65
-4.94
-8.02
-10.73
-13.05
-15.12
-17.24
-19.75
-22.94
-26.83
-31.14
-35.29
-38.51
-40.06
-39.38
-36.3
-31.02
-24.07
-16.2
-8.17
-0.6
6.05
11.57
15.93
19.18
21.43
22.83
23.5
23.58
23.23
22.51
21.5
20.29
18.99
17.73
16.65
15.8
15.13
14.49
13.76
12.84
11.67
10.23
8.45
6.34
3.9
1.29
-1.27
-3.58
-5.51
-7.12
-8.54
-10.01
-11.71
-13.8
-16.37
-19.49
-23.06
-26.7
-29.8
-31.58
-31.36
-28.78
-23.99
-17.57
-10.33
-3.06
3.64
9.45
14.26
18.13
21.14
23.32
24.69
25.21
24.88
23.8
22.17
20.22
18.21
16.31
14.62
13.21
12.17
11.57
11.42
11.53
11.57
11.16
9.98
7.96
5.29
2.27
-0.78
-3.6
-6.04
-8.07
-9.77
-11.28
-12.8
-14.54
-16.68
-19.26
-22.14
-24.94
-27.15
-28.19
-27.56
-24.99
-20.54
-14.63
-7.92
-1.2
4.87
9.86
13.66
16.38
18.21
19.29
19.66
19.36
18.48
17.23
15.89
14.67
13.59
12.56
11.39
10.06
8.72
7.7
7.25
7.46
8.08
8.65
8.63
7.65
5.66
2.85
-0.35
-3.51
-6.34
-8.82
-11.18
-13.76
-16.88
-20.62
-24.74
-28.74
-31.95
-33.77
-33.75
-31.69
-27.72
-22.14
-15.41
-8.1
-0.81
5.93
11.74
16.44
20.0
22.54
24.17
24.97
25.0
24.37
23.29
22.0
20.74
19.62
18.6
17.55
16.37
15.04
13.67
12.43
11.44
10.73
10.18
9.55
8.56
7.02
4.84
2.13
-0.88
-3.91
-6.79
-9.41
-11.83
-14.08
-16.22
-18.34
-20.63
-23.28
-26.45
-30.02
-33.49
-36.08
-36.99
-35.66
-32.06
-26.56
-19.86
-12.69
-5.66
0.79
6.4
11.06
14.78
17.7
19.95
21.63
22.68
23.04
22.7
21.77
20.53
19.27
18.16
17.19
16.21
15.11
13.9
12.79
12.04
11.81
12.03
12.41
12.53
12.01
10.66
8.53
5.82
2.78
-0.31
-3.33
-6.21
-8.96
-11.64
-14.34
-17.15
-20.14
-23.36
-26.73
-30.01
-32.8
-34.52
-34.63
-32.73
-28.76
-23.04
-16.22
-9.08
-2.37
3.42
8.04
11.49
13.92
15.53
16.51
17.02
17.17
17.08
16.84
16.59
16.43
16.49
16.72
17.02
17.15
16.93
16.29
15.32
14.26
13.25
12.27
11.18
9.72
7.78
5.37
2.68
-0.11
-2.87
-5.56
-8.17
-10.69
-13.08
-15.35
-17.55
-19.8
-22.14
-24.49
-26.56
-27.99
-28.37
-27.38
-24.82
-20.64
-15.0
-8.31
-1.27
5.32
10.77
14.71
17.17
18.48
19.05
19.14
18.81
18.05
16.92
15.57
14.2
12.93
11.75
10.6
9.44
8.38
7.56
6.98
6.51
5.85
4.72
3.05
0.99
-1.2
-3.32
-5.31
-7.3
-9.44
-11.78
-14.32
-17.02
-19.87
-22.83
-25.8
-28.42
-30.16
-30.43
-28.84
-25.3
-20.14
-13.91
-7.3
-0.95
4.7
9.4
13.05
15.69
17.45
18.46
18.89
18.89
18.61
18.15
17.52
16.7
15.66
14.39
13.01
11.75
10.81
10.26
9.97
9.62
8.86
7.5
5.55
3.2
0.71
-1.7
-3.99
-6.13
-8.21
-10.28
-12.44
-14.87
-17.74
-21.09
-24.73
-28.18
-30.74
-31.72
-30.63
-27.33
-22.06
-15.38
-8.05
-0.83
5.6
10.88
14.91
17.82
19.82
21.09
21.62
21.35
20.29
18.61
16.64
14.79
13.32
12.26
11.44
10.69
9.96
9.32
8.94
8.84
8.81
8.49
7.51
5.67
3.01
-0.21
-3.6
-6.86
-9.8
-12.37
-14.66
-16.92
-19.44
-22.53
-26.34
-30.71
-35.2
-39.09
-41.61
-42.15
-40.4
-36.32
-30.23
-22.69
-14.44
-6.25
1.14
7.3
12.07
15.59
18.12
19.93
21.17
21.87
22.06
21.77
21.1
20.11
18.9
17.52
16.07
14.71
13.58
12.8
12.35
12.1
11.89
11.54
10.95
10.02
8.66
6.76
4.29
1.34
-1.82
-4.81
-7.3
-9.11
-10.41
-11.56
-13.03
-15.26
-18.39
-22.31
-26.61
-30.64
-33.68
-35.02
-34.15
-30.89
-25.53
-18.73
