0
21.83
21.23
20.07
18.67
17.31
16.13
15.25
14.75
14.59
14.72
15.02
15.37
15.68
15.96
16.25
16.6
17.01
17.37
17.49
17.19
16.39
15.13
13.62
12.09
10.77
9.75
9.0
8.38
7.67
6.68
5.31
3.61
1.71
-0.22
-2.01
-3.64
-5.15
-6.63
-8.14
-9.73
-11.49
-13.52
-15.95
-18.83
-21.97
-24.87
-26.83
-27.08
-25.11
-20.84
-14.67
-7.33
0.31
7.54
13.88
19.06
22.98
25.58
26.81
26.66
25.26
22.88
19.91
16.77
13.84
11.44
9.8
9.11
9.37
10.43
11.93
13.41
14.42
14.72
14.25
13.2
11.86
10.48
9.16
7.89
6.54
4.96
3.05
0.81
-1.64
-4.11
-6.39
-8.35
-9.97
-11.3
-12.42
-13.43
-14.42
-15.48
-16.7
-18.17
-19.9
-21.87
-24.02
-26.38
-29.04
-32.09
-35.47
-38.86
-41.61
-42.93
-42.13
-38.9
-33.35
-26.02
-17.68
-9.13
-1.09
5.93
11.58
15.73
18.4
19.76
20.05
19.58
18.65
17.56
16.52
15.73
15.28
15.21
15.45
15.94
16.58
17.27
17.93
18.5
18.88
18.96
18.62
17.76
16.37
14.56
12.52
10.46
8.49
6.6
4.71
2.75
0.75
-1.19
-2.97
-4.58
-6.09
-7.57
-9.06
-10.47
-11.65
-12.51
-13.14
-13.76
-14.69
-16.29
-18.8
-22.29
-26.55
-30.99
-34.76
-36.85
-36.44
-33.18
-27.29
-19.55
-10.97
-2.55
4.93
11.02
15.57
18.62
20.31
20.88
20.55
19.58
18.22
16.74
15.38
14.35
13.76
13.63
13.91
14.52
15.33
16.29
17.29
18.21
18.84
18.97
18.42
17.13
15.18
12.77
10.14
7.5
4.99
2.58
0.27
-1.97
-4.07
-5.93
-7.47
-8.72
-9.84
-11.03
-12.44
-14.02
-15.58
-16.87
-17.74
-18.28
-18.78
-19.68
-21.36
-24.01
-27.58
-31.68
-35.68
-38.77
-40.13
-39.15
-35.59
-29.64
-21.91
-13.21
-4.4
3.85
11.11
17.15
21.93
25.47
27.83
29.12
29.5
29.18
28.39
27.42
26.57
26.07
26.09
26.61
27.46
28.36
29.03
29.28
29.1
28.58
27.83
26.86
25.55
23.68
21.12
17.93
14.3
10.55
6.98
3.77
0.96
-1.5
-3.71
-5.76
-7.68
-9.43
-10.96
-12.22
-13.16
-13.85
-14.4
-15.03
-15.99
-17.47
-19.56
-22.11
-24.73
-26.76
-27.52
-26.41
-23.15
-17.91
-11.21
-3.75
3.78
10.83
17.05
22.21
26.13
28.66
29.71
29.34
27.8
25.45
22.81
20.3
18.21
16.69
15.73
15.21
15.0
14.95
14.9
14.77
14.43
13.88
13.14
12.23
11.15
9.85
8.21
6.14
3.6
0.7
-2.36
-5.4
-8.24
-10.83
-13.18
-15.38
-17.48
-19.53
-21.56
-23.54
-25.46
-27.28
-29.02
-30.77
-32.66
-34.82
-37.29
-39.94
-42.41
-44.16
-44.59
-43.17
-39.59
-33.87
-26.39
-17.84
-9.08
-0.9
6.14
11.8
16.08
19.13
21.07
22.0
21.98
21.16
19.84
18.44
17.37
16.88
17.05
17.68
18.49
19.13
19.36
19.09
18.36
17.37
16.29
15.24
14.19
13.05
11.73
10.18
8.42
6.53
4.54
2.51
0.51
-1.32
-2.79
-3.87
-4.6
-5.23
-6.05
-7.28
-8.95
-10.89
-12.92
-14.86
-16.7
-18.56
-20.62
-23.02
-25.81
-28.88
-31.92
-34.46
-35.94
-35.79
-33.6
-29.29
-23.1
-15.6
-7.57
0.22
7.15
12.87
17.27
20.39
22.37
23.33
23.41
22.74
21.5
19.88
18.09
16.38
14.93
13.96
13.55
13.7
14.25
14.96
15.61
16.03
16.15
15.93
15.31
14.24
12.69
10.77
8.69
6.69
4.86
3.18
1.49
-0.36
-2.37
-4.4
-6.32
-8.04
-9.62
-11.19
-12.83
-14.55
-16.26
-17.86
-19.29
-20.58
-21.8
-23.08
-24.59
-26.48
-28.88
-31.8
-34.94
-37.81
-39.69
-39.88
-37.91
-33.68
-27.55
-20.19
-12.43
-5.06
1.31
6.41
10.18
12.79
14.44
15.38
15.75
15.64
15.15
14.4
13.62
13.03
12.79
12.97
13.46
14.07
14.65
15.11
15.45
15.73
15.95
16.05
15.91
15.41
14.52
13.28
11.74
10.02
8.19
6.37
4.66
3.14
1.82
0.64
-0.5
-1.63
-2.78
-3.87
-4.87
-5.74
-6.49
-7.16
-7.76
-8.3
-8.86
-9.53
-10.48
-11.86
-13.74
-16.0
-18.3
-20.12
-20.83
-19.91
-17.06
-12.41
-6.41
0.25
6.86
12.84
17.85
21.73
24.42
25.91
26.25
25.53
23.92
21.7
19.2
16.8
14.86
13.62
13.18
13.45
14.19
15.09
15.89
16.44
16.69
16.62
16.2
15.44
14.33
12.97
11.4
9.66
7.71
5.56
3.25
0.95
-1.1
-2.78
-4.13
-5.37
-6.72
-8.33
-10.14
-11.97
-13.65
-15.12
-16.46
-17.79
-19.26
-21.0
-23.09
-25.62
-28.56
-31.67
-34.5
-36.38
-36.67
-34.9
-30.96
-25.14
-18.01
-10.29
-2.68
4.31
10.32
15.22
18.97
21.53
22.9
23.14
22.41
21.01
19.39
17.98
17.1
16.87
17.26
18.12
19.21
20.3
21.11
21.46
21.22
20.41
19.22
17.86
16.46
15.03
13.42
11.49
9.21
6.66
4.03
1.51
-0.78
-2.85
-4.71
-6.38
-7.8
-8.98
-10.01
-11.05
-12.34
-14.03
-16.11
-18.44
-20.78
-22.98
-25.07
-27.2
-29.58
-32.26
-35.03
-37.31
-38.36
-37.49
-34.31
-28.91
-21.82
-13.77
-5.59
2.08
8.79
14.24
18.23
20.69
21.66
21.39
20.25
18.73
17.24
16.01
15.14
14.62
14.39
14.39
14.55
14.73
14.83
14.76
14.47
14.02
13.49
12.93
12.31
11.51
10.39
8.84
6.86
4.57
2.13
-0.3
-2.62
-4.77
-6.75
-8.55
-10.17
-11.7
-13.23
-14.85
-16.65
-18.57
-20.43
-22.04
-23.26
-24.18
-25.04
-26.17
-27.82
-30.07
-32.76
-35.53
-37.89
-39.29
-39.18
-37.14
-32.99
-26.89
-19.37
-11.24
-3.35
3.63
9.33
13.71
16.91
19.09
20.37
20.8
20.48
19.58
18.39
17.24
16.43
16.13
16.3
16.81
17.44
18.01
18.42
18.62
18.61
18.41
18.01
17.43
16.72
15.88
14.89
13.69
12.24
10.55
8.74
7.0
5.44
4.08
2.76
1.33
-0.34
-2.16
-3.97
-5.54
-6.73
-7.56
-8.16
-8.77
-9.62
-10.86
-12.6
-14.81
-17.34
-19.88
-22.0
-23.16
-22.78
-20.46
-16.1
-10.02
-2.89
4.43
11.15
16.76
21.08
24.13
25.99
26.7
26.25
24.74
22.44
19.79
17.28
15.26
13.94
13.33
13.35
13.88
14.79
15.96
17.2
18.37
19.28
19.77
19.69
18.91
17.42
15.28
12.78
10.24
7.92
5.94
4.2
2.51
0.63
-1.56
-4.04
-6.62
-9.04
-11.08
-12.61
-13.7
-14.61
-15.63
-17.04
-19.0
-21.55
-24.66
-28.27
-32.21
-36.09
-39.27
-40.89
-40.2
-36.82
-30.98
-23.46
-15.26
-7.35
-0.37
5.37
9.82
13.0
14.98
15.83
15.67
14.68
13.14
11.38
9.72
8.47
7.76
7.59
7.87
8.45
9.18
10.0
10.8
11.43
11.7
11.43
10.54
9.13
7.43
5.68
4.0
2.35
0.6
-1.41
-3.65
-5.99
-8.17
-9.98
-11.33
-12.29
-13.08
-13.91
-14.92
-16.09
-17.29
-18.32
-19.13
-19.78
-20.54
-21.69
-23.49
-26.02
-29.18
-32.63
-35.83
-38.05
-38.51
-36.59
-31.98
-24.95
-16.19
-6.77
2.28
10.11
16.23
20.53
23.12
24.31
24.42
23.8
22.74
21.51
20.3
19.28
18.56
18.15
18.0
17.98
17.96
17.9
17.82
17.78
17.8
17.83
17.72
17.28
16.36
14.89
12.9
10.48
7.8
4.99
2.22
-0.4
-2.82
-5.01
-7.01
-8.8
-10.38
-11.72
-12.82
-13.71
-14.47
-15.21
-16.03
-17.04
-18.29
-19.78
-21.44
-23.16
-24.93
-26.85
-29.12
-31.82
-34.73
-37.24
-38.42
-37.4
-33.69
-27.47
-19.49
-10.83
-2.52
4.8
10.82
15.5
18.88
20.93
21.65
21.12
19.63
17.66
15.77
14.46
13.96
14.28
15.12
16.13
16.99
17.56
17.88
18.16
18.57
19.17
19.87
20.43
20.56
20.09
18.96
17.23
15.13
12.89
10.75
8.87
7.37
6.25
5.47
4.91
4.42
3.82
2.95
1.73
0.17
-1.59
-3.4
-5.13
-6.78
-8.46
-10.36
-12.65
-15.32
-18.12
-20.56
-21.95
-21.6
-19.08
-14.3
-7.64
0.22
8.45
16.27
23.06
28.44
32.17
34.11
34.2
32.51
29.33
25.14
20.57
16.3
12.81
10.37
8.96
8.38
8.34
8.58
8.94
9.35
9.76
10.12
10.31
10.21
9.71
8.76
7.39
5.71
3.87
1.94
-0.03
-2.02
-4.0
-5.91
-7.68
-9.28
-10.73
-12.13
-13.56
-15.06
-16.57
-18.02
-19.36
-20.62
-21.89
-23.38
-25.27
-27.72
-30.76
-34.24
-37.78
-40.68
-42.08
-41.24
-37.69
-31.54
-23.41
-14.25
-5.08
3.31
10.44
16.11
20.3
23.09
24.61
24.95
24.28
22.83
20.9
18.87
17.15
16.01
15.52
15.59
15.94
16.34
16.66
16.83
16.86
16.7
16.23
15.38
14.16
12.66
11.04
9.38
7.69
5.86
3.84
1.63
-0.68
-2.95
-5.07
-6.94
-8.57
-10.01
-11.35
-12.74
-14.28
-16.02
-17.94
-19.97
-22.1
-24.39
-26.96
-29.91
-33.24
-36.81
-40.33
-43.34
-45.23
-45.32
-43.03
-38.13
-30.87
-21.99
-12.49
-3.37
4.71
11.38
16.59
20.37
22.81
24.03
24.24
23.72
22.77
21.62
20.46
19.43
18.71
18.48
18.84
19.75
20.98
22.26
23.28
23.82
23.72
22.89
21.32
19.07
16.32
13.33
10.33
7.46
4.79
2.28
-0.13
-2.43
-4.61
-6.65
-8.52
-10.2
-11.65
-12.86
-13.81
-14.53
-15.07
-15.53
-16.07
-16.87
-18.16
-20.17
-23.0
-26.56
-30.49
-34.17
-36.87
-37.86
-36.61
-32.88
-26.82
-18.93
-10.03
-1.01
7.29
14.23
19.49
22.99
24.85
25.29
24.65
23.26
21.51
19.75
18.27
17.27
16.84
16.94
17.45
18.23
19.13
20.03
20.91
21.71
22.37
22.81
22.87
22.43
21.46
20.0
18.21
16.24
14.2
12.14
10.07
7.99
5.92
3.9
1.94
0.03
-1.76
-3.34
-4.6
-5.44
-5.89
-6.12
-6.46
-7.33
-9.08
-11.84
-15.43
-19.29
-22.6
-24.51
-24.36
-21.9
-17.38
-11.39
-4.72
1.88
7.81
12.74
16.5
19.07
20.53
20.98
20.56
19.41
17.72
15.71
13.65
11.88
10.68
10.28
10.69
11.74
13.11
14.47
15.62
16.46
17.0
17.21
16.98
16.11
14.5
12.19
9.4
6.51
3.81
1.48
-0.5
-2.3
-4.09
-5.97
-7.95
-9.97
-11.92
-13.67
-15.17
-16.45
-17.64
-19.02
-20.83
-23.25
-26.32
-29.85
-33.52
-36.85
-39.25
-40.11
-38.9
-35.38
-29.62
-22.11
-13.61
-4.96
3.09
9.97
15.37
19.15
21.32
21.98
21.37
19.78
17.61
15.27
13.19
11.7
11.01
11.15
11.98
13.17
14.43
15.48
16.21
16.61
16.69
16.45
15.83
14.75
13.2
11.26
9.05
6.73
4.44
2.27
0.24
-1.59
-3.22
-4.63
-5.82
-6.84
-7.76
-8.63
-9.54
-10.5
-11.54
-12.67
-13.9
-15.29
-16.98
-19.08
-21.7
-24.84
-28.32
-31.7
-34.34
-35.5
-34.57
-31.24
-25.61
-18.25
-10.01
-1.84
5.49
11.47
15.9
18.82
20.44
20.98
20.75
20.0
19.01
18.0
17.15
16.58
16.31
16.28
16.38
16.53
16.69
16.85
17.08
17.35
17.54
17.46
16.87
15.62
13.71
11.32
8.7
6.08
3.59
1.24
-0.98
-3.09
-5.02
-6.74
-8.22
-9.56
-10.91
-12.4
-14.08
-15.86
-17.56
-19.02
-20.21
-21.27
-22.49
-24.16
-26.46
-29.47
-33.03
-36.85
-40.47
-43.25
-44.51
-43.64
-40.29
-34.52
-26.88
-18.21
-9.46
-1.46
5.28
10.58
14.49
17.17
18.81
19.55
19.5
18.73
17.39
15.72
14.04
12.69
11.95
11.96
12.64
13.8
15.15
16.36
17.16
17.3
16.69
15.43
13.81
12.2
10.94
10.13
9.61
9.09
8.27
7.06
5.51
3.85
2.23
0.72
-0.74
-2.28
-3.94
-5.7
-7.43
-9.02
-10.4
-11.59
-12.62
-13.61
-14.65
-15.85
-17.38
-19.36
-21.8
-24.47
-26.9
-28.42
-28.37
-26.37
-22.43
-16.88
-10.34
-3.41
3.38
9.69
15.26
19.94
23.55
25.97
27.14
27.12
26.12
24.48
22.63
20.95
19.76
19.23
19.35
20.01
21.0
22.11
23.13
23.91
24.33
24.31
23.8
22.8
21.34
19.51
17.4
15.17
12.93
10.73
8.63
6.61
4.61
2.52
0.23
-2.27
-4.93
-7.57
-9.97
-11.98
-13.61
-15.08
-16.66
-18.66
-21.23
-24.38
-28.03
-31.91
-35.68
-38.79
-40.62
-40.51
-38.05
-33.23
-26.52
-18.73
-10.8
-3.52
2.6
7.38
10.81
12.98
14.01
14.03
13.2
11.8
10.14
8.57
7.35
6.62
6.43
6.7
7.36
8.34
9.61
11.13
12.85
14.63
16.25
17.46
18.03
17.83
16.89
15.37
13.5
11.46
9.37
7.27
5.13
2.94
0.72
-1.44
-3.44
-5.26
-6.95
-8.63
-10.36
-12.19
-14.02
-15.77
-17.43
-19.08
-20.89
-23.08
-25.81
-29.02
-32.42
-35.48
-37.46
-37.64
-35.45
-30.73
-23.81
-15.49
-6.8
1.29
8.1
13.32
16.97
19.24
20.33
20.45
19.81
18.64
17.22
15.87
14.86
14.33
14.31
14.73
15.41
16.17
16.91
17.56
18.17
18.71
19.11
19.22
18.87
17.92
16.34
14.27
11.9
9.45
7.12
4.95
2.92
0.97
-0.92
-2.74
-4.43
-5.94
-7.28
-8.57
-9.94
-11.48
-13.17
-14.92
-16.59
-18.08
-19.43
-20.73
-22.15
-23.86
-26.02
-28.71
-31.78
-34.85
-37.24
-38.17
-36.94
-33.22
-27.19
-19.5
-11.07
-2.84
4.41
10.23
14.47
17.19
18.63
19.06
18.75
17.9
16.73
15.41
14.14
13.09
12.43
12.17
12.27
12.58
12.97
13.32
13.59
13.76
13.84
13.81
13.58
13.05
12.13
10.73
8.91
6.82
4.69
2.7
0.94
-0.66
-2.22
-3.83
-5.49
-7.12
-8.62
-9.94
-11.17
-12.43
-13.83
-15.34
-16.81
-18.0
-18.75
-19.07
-19.22
-19.58
-20.49
-22.2
-24.77
-27.99
-31.48
-34.67
-36.85
-37.35
-35.66
-31.62
-25.53
-18.05
-10.03
-2.26
4.71
10.58
15.24
18.69
20.97
22.12
22.29
21.68
20.55
19.21
17.95
17.0
16.55
16.63
17.23
18.2
19.4
20.67
21.82
22.71
23.16
23.08
22.46
21.43
20.16
18.82
17.45
15.99
14.33
12.4
10.19
7.8
5.38
3.05
0.92
-1.0
-2.73
-4.34
-5.88
-7.37
-8.71
-9.81
-10.62
-11.25
-11.92
-12.87
-14.28
-16.22
-18.67
-21.53
-24.63
-27.68
-30.16
-31.37
-30.64
-27.54
-22.15
-15.0
-6.96
1.04
8.26
14.23
18.79
21.91
23.67
24.2
23.66
22.28
20.4
18.43
16.79
15.75
15.37
15.48
15.8
16.12
16.37
16.64
17.06
17.63
18.15
18.32
17.91
16.87
15.35
13.62
11.88
10.2
8.51
6.71
4.76
2.74
0.8
-0.99
-2.6
-4.12
-5.63
-7.21
-8.82
-10.44
-12.03
-13.62
-15.19
-16.75
-18.23
-19.58
-20.81
-22.1
-23.68
-25.73
-28.27
-30.97
-33.24
-34.35
-33.63
-30.67
-25.42
-18.28
-9.96
-1.34
6.71
13.5
18.67
22.12
24.01
24.61
24.23
23.19
21.81
20.4
19.22
18.38
17.89
17.69
17.74
18.06
18.75
19.88
21.41
23.16
24.8
25.92
26.15
25.25
23.17
20.07
16.25
12.06
7.81
3.69
-0.21
-3.81
-7.02
-9.73
-11.86
-13.45
-14.66
-15.71
-16.82
-18.04
-19.33
-20.53
-21.53
-22.3
-22.95
-23.68
-24.71
-26.26
-28.41
-31.12
-34.14
-37.02
-39.18
-39.97
-38.85
-35.45
-29.78
-22.17
-13.34
-4.21
4.26
11.32
16.53
19.86
21.58
22.11
21.82
20.96
19.65
17.94
15.99
14.05
12.46
11.46
11.12
11.26
11.56
11.73
11.68
11.49
11.34
11.35
11.46
11.46
11.07
10.14
8.66
6.77
4.68
2.55
0.49
-1.48
-3.37
-5.21
-7.05
-8.88
-10.68
-12.4
-14.05
-15.6
-17.03
-18.32
-19.44
-20.37
-21.21
-22.13
-23.41
-25.3
-27.85
-30.82
-33.7
-35.77
-36.31
-34.73
-30.8
-24.72
-17.09
-8.76
-0.63
6.55
12.38
16.75
19.72
21.5
22.27
22.22
21.51
20.34
18.93
17.52
16.26
15.31
14.76
14.67
14.98
15.61
16.44
17.35
18.25
18.99
19.43
19.36
18.65
17.33
15.63
13.88
12.43
11.38
10.63
9.96
9.12
7.98
6.55
4.89
3.11
1.29
-0.47
-2.04
-3.35
-4.41
-5.39
-6.53
-8.13
-10.29
-12.88
-15.47
-17.44
-18.13
-17.06
-14.04
-9.28
-3.32
3.18
9.57
15.38
20.28
24.07
26.58
27.69
27.38
25.78
23.21
20.13
17.0
14.24
12.1
10.68
9.88
9.53
9.4
9.27
9.02
8.63
8.12
7.51
6.77
5.85
4.69
3.35
1.94
0.62
-0.56
-1.63
-2.73
-4.04
-5.66
-7.56
-9.64
-11.72
-13.72
-15.61
-17.43
-19.23
-21.06
-22.87
-24.69
-26.59
-28.68
-30.95
-33.16
-34.74
-34.89
-32.95
-28.62
-22.2
-14.49
-6.52
0.85
7.06
11.92
15.48
17.88
19.26
19.78
19.64
19.1
18.44
17.83
17.33
16.91
16.5
16.05
15.62
15.32
15.28
15.59
16.22
16.95
17.53
17.68
17.22
16.11
14.39
12.17
9.6
6.84
4.12
1.67
-0.4
-2.1
-3.63
-5.22
-7.03
-9.05
-11.14
-13.13
-14.96
-16.65
-18.27
-19.83
-21.33
-22.84
-24.51
-26.56
-29.12
-31.97
-34.53
-35.92
-35.37
-32.39
-27.08
-20.05
-12.22
-4.53
2.27
7.78
11.87
14.67
16.4
17.3
17.61
17.55
17.27
16.93
16.6
16.37
16.25
16.24
16.34
16.52
16.75
16.98
17.11
17.07
16.75
16.06
14.94
13.37
11.36
9.06
6.62
4.22
2.03
0.13
-1.46
-2.8
-3.97
-5.07
-6.17
-7.3
-8.44
-9.6
-10.8
-12.1
-13.55
-15.17
-16.92
-18.66
-20.33
-21.91
-23.55
-25.42
-27.66
-30.23
-32.81
-34.92
-35.93
-35.31
-32.74
-28.21
-22.05
-14.84
-7.29
-0.11
6.17
11.22
14.92
17.31
18.51
18.77
18.34
17.52
16.55
15.6
14.79
14.16
13.78
13.72
14.01
14.61
15.41
16.2
16.85
17.26
17.44
17.37
17.02
16.3
15.16
13.61
11.85
10.09
8.57
7.4
6.55
5.84
5.06
4.02
2.7
1.15
-0.49
-2.06
-3.45
-4.66
-5.77
-6.94
-8.29
-9.99
-12.1
-14.66
-17.51
-20.35
-22.71
-24.04
-23.85
-21.92
-18.28
-13.25
-7.4
-1.29
4.51
9.6
13.72
16.74
18.61
19.35
19.03
17.82
16.01
13.97
12.12
10.82
10.23
10.31
10.87
11.63
12.37
13.0
13.51
13.92
14.23
14.37
14.22
13.6
12.43
10.71
8.56
6.2
3.78
1.44
-0.82
-2.97
-4.97
-6.75
-8.23
-9.45
-10.53
-11.65
-12.9
-14.3
-15.7
-16.95
-17.99
-18.93
-19.98
-21.43
-23.46
-26.11
-29.14
-32.11
-34.37
-35.2
-34.01
-30.52
-24.92
-17.83
-10.13
-2.73
3.7
8.79
12.47
14.9
16.31
16.95
17.0
16.63
15.99
15.24
14.51
13.9
13.48
13.26
13.22
13.38
13.73
14.23
14.81
15.28
15.48
15.25
14.58
13.54
12.28
10.91
9.47
7.94
6.3
4.52
2.59
0.52
-1.71
-4.06
-6.42
-8.66
-10.67
-12.44
-14.04
-15.57
-17.11
-18.66
-20.14
-21.49
-22.77
-24.12
-25.76
-27.89
-30.55
-33.53
-36.33
-38.25
-38.55
-36.73
-32.67
-26.69
-19.44
-11.7
-4.14
2.76
8.73
13.63
17.38
19.94
21.3
21.53
20.81
19.39
17.56
15.62
13.87
12.55
11.8
11.71
12.27
13.35
14.73
16.1
17.17
17.7
17.63
17.05
16.11
14.97
13.67
12.18
10.44
8.43
6.21
3.89
1.63
-0.49
-2.4
-4.11
-5.64
-7.08
-8.5
-10.0
-11.58
-13.15
-14.61
-15.82
-16.76
-17.55
-18.44
-19.74
-21.69
-24.43
-27.87
-31.63
-35.06
-37.39
-37.89
-36.1
-31.96
-25.88
-18.57
-10.88
-3.52
3.03
8.54
12.98
16.33
18.62
19.83
20.02
19.36
18.14
16.72
15.44
14.54
14.12
14.21
14.74
15.6
16.63
17.57
18.12
18.09
17.46
16.4
15.27
14.33
13.66
13.1
12.4
11.37
10.01
8.52
7.09
5.79
4.55
3.17
1.52
-0.37
-2.36
-4.23
-5.82
-7.11
-8.15
-9.09
-10.1
-11.31
-12.88
-14.86
-17.13
-19.4
-21.18
-21.86
-20.93
-18.12
-13.47
-7.37
-0.44
6.63
13.2
18.83
23.22
26.26
27.96
28.43
27.89
26.6
24.9
23.03
21.25
19.75
18.66
18.05
17.87
18.03
18.34
18.66
18.86
18.87
18.62
18.0
16.89
15.21
12.98
10.31
7.43
4.52
1.73
-0.9
-3.34
-5.63
-7.8
-9.87
-11.91
-13.91
-15.85
-17.6
-19.04
-20.11
-20.85
-21.48
-22.33
-23.7
-25.74
-28.39
-31.26
-33.7
-34.92
-34.26
-31.4
-26.52
-20.18
-13.18
-6.27
-0.02
5.25
9.35
12.18
13.71
13.99
13.26
11.9
10.41
9.25
8.71
8.87
9.58
10.55
11.46
12.07
12.31
12.28
12.18
12.16
12.24
12.27
11.99
11.18
9.77
7.89
5.78
3.68
1.71
-0.13
-1.94
-3.83
-5.84
-7.92
-10.0
-11.95
-13.72
-15.25
-16.55
-17.71
-18.95
-20.57
-22.87
-25.98
-29.67
-33.31
-35.96
-36.65
-34.69
-30.01
-23.07
-14.78
-6.17
1.91
8.89
14.54
18.79
21.71
23.42
24.02
23.73
22.76
21.38
19.88
18.48
17.35
16.53
15.98
15.64
15.43
15.36
15.48
15.83
16.36
16.88
17.13
16.85
15.84
14.09
11.7
8.88
5.85
2.84
0.01
-2.52
-4.7
-6.56
-8.2
-9.79
-11.51
-13.47
-15.68
-18.06
-20.48
-22.82
-25.07
-27.32
-29.76
-32.6
-35.96
-39.74
-43.53
-46.67
-48.35
-47.83
-44.71
-39.06
-31.44
-22.78
-14.07
-6.17
0.44
5.62
9.44
12.08
13.66
14.31
14.19
13.55
12.72
12.04
11.79
12.07
12.84
13.94
15.19
16.45
17.64
18.68
19.52
20.1
20.33
20.19
19.61
18.61
17.21
15.44
13.35
11.07
8.73
6.54
4.63
3.09
1.86
0.76
-0.39
-1.67
-3.05
-4.36
-5.47
-6.34
-7.13
-8.09
-9.47
-11.41
-13.91
-16.79
-19.86
-22.76
-25.07
-26.25
-25.73
-23.1
-18.33
-11.78
-4.2
3.53
10.63
16.59
21.18
24.37
26.24
26.89
26.42
25.02
22.95
20.62
18.44
16.75
15.76
15.5
15.89
16.78
18.0
19.36
20.65
21.6
21.96
21.56
20.38
18.56
16.32
13.88
11.39
8.92
6.5
4.16
1.96
-0.09
-2.02
-3.92
-5.88
-7.92
-9.97
-11.96
-13.8
-15.46
-17.01
-18.65
-20.68
-23.35
-26.76
-30.66
-34.4
-37.06
-37.7
-35.71
-31.03
-24.12
-15.8
-7.0
1.5
9.12
15.48
20.43
23.97
26.19
27.25
27.28
26.47
25.01
23.19
21.34
19.8
18.74
18.2
18.06
18.19
18.42
18.67
18.83
18.78
18.37
17.51
16.17
14.45
12.49
10.42
8.33
6.28
4.29
2.4
0.63
-1.03
-2.65
-4.33
-6.17
-8.2
-10.4
-12.64
-14.78
-16.66
-18.21
-19.44
-20.49
-21.63
-23.14
-25.29
-28.22
-31.85
-35.8
-39.41
-41.82
-42.16
-39.86
-34.76
-27.27
-18.21
-8.61
0.54
8.5
14.82
19.39
22.32
23.85
24.28
23.91
22.98
21.74
20.42
19.23
18.35
17.94
18.05
18.58
19.32
20.06
20.6
20.84
20.73
20.3
19.53
18.41
16.92
15.07
12.95
10.66
8.28
5.9
3.53
1.15
-1.23
-3.57
-5.76
-7.71
-9.35
-10.78
-12.16
-13.67
-15.4
-17.29
-19.19
-20.95
-22.54
-24.1
-25.97
-28.47
-31.8
-35.85
-40.17
-44.02
-46.49
-46.77
-44.29
-38.98
-31.27
-22.01
-12.27
-3.06
4.88
11.17
15.75
18.79
20.58
21.4
21.48
21.04
20.27
19.35
18.46
17.72
17.21
16.91
16.82
16.91
17.18
17.68
18.38
19.2
19.96
20.39
20.24
19.35
17.7
15.44
12.84
10.25
7.99
6.23
4.99
4.06
3.14
1.95
0.39
-1.46
-3.35
-5.03
-6.31
-7.2
-7.84
-8.49
-9.39
-10.72
-12.63
-15.14
-18.14
-21.34
-24.26
-26.3
-26.82
-25.27
-21.4
-15.36
-7.7
0.7
8.84
15.86
21.24
24.84
26.85
27.55
27.2
25.97
24.0
21.5
18.83
16.41
14.58
13.52
13.16
13.31
13.74
14.27
14.8
15.29
15.66
15.82
15.66
15.04
13.86
12.08
9.74
7.03
4.19
1.51
-0.76
-2.56
-3.96
-5.2
-6.57
-8.25
-10.26
-12.43
-14.48
-16.14
-17.28
-17.99
-18.57
-19.44
-21.03
-23.54
-26.9
-30.64
-34.0
-36.08
-36.12
-33.67
-28.75
-21.84
-13.65
-5.01
3.34
10.83
17.09
21.91
25.2
27.03
27.52
26.93
25.52
23.6
21.45
19.44
17.82
16.82
16.48
16.64
17.04
17.42
17.6
17.61
17.54
17.49
17.48
17.35
16.87
15.79
13.98
11.44
8.39
5.09
1.85
-1.17
-3.95
-6.57
-9.13
-11.69
-14.23
-16.65
-18.86
-20.87
-22.7
-24.43
-26.11
-27.81
-29.59
-31.61
-34.0
-36.82
-39.91
-42.83
-44.9
-45.37
-43.64
-39.44
-32.95
-24.81
-15.95
-7.37
0.16
6.22
10.72
13.82
15.74
16.69
16.89
16.52
15.84
15.07
14.4
13.96
13.79
13.91
14.33
14.97
15.71
16.35
16.64
16.39
15.55
14.17
12.33
10.18
7.81
5.34
2.89
0.59
-1.43
-3.09
-4.36
-5.25
-5.83
-6.23
-6.62
-7.2
-8.04
-9.14
-10.35
-11.54
-12.59
-13.54
-14.51
-15.72
-17.36
-19.59
-22.45
-25.86
-29.55
-33.03
-35.64
-36.73
-35.77
-32.52
-27.13
-20.03
-11.91
-3.47
4.58
11.68
17.47
21.75
24.5
25.84
25.99
25.24
23.91
22.36
20.87
19.67
18.9
18.56
18.65
19.1
19.85
20.81
21.88
22.89
23.66
23.97
23.67
22.73
21.18
19.24
17.13
15.11
13.34
11.81
10.43
8.96
7.25
5.18
2.78
0.17
-2.42
-4.75
-6.6
-7.89
-8.7
-9.33
-10.2
-11.73
-14.14
-17.33
-20.85
-23.94
-25.77
-25.69
-23.42
-19.1
-13.24
-6.58
0.16
6.35
11.54
15.42
17.83
18.79
18.52
17.42
16.0
14.68
13.71
13.13
12.83
12.68
12.63
12.68
12.8
12.87
12.75
12.31
11.52
10.47
9.26
7.98
6.68
5.36
4.03
2.67
1.24
-0.3
-1.96
-3.69
-5.37
-6.88
-8.22
-9.46
-10.73
-12.1
-13.49
-14.8
-15.96
-17.04
-18.3
-19.99
-22.26
-25.1
-28.27
-31.4
-34.02
-35.61
-35.58
-33.51
-29.24
-23.01
-15.48
-7.53
-0.04
6.32
11.23
14.61
16.63
17.51
17.52
16.94
16.02
14.98
13.97
13.09
12.45
12.1
12.09
12.41
12.98
13.68
14.4
15.0
15.39
15.48
15.16
14.4
13.26
11.8
10.19
8.5
6.78
5.08
3.43
1.89
0.47
-0.84
-2.2
-3.79
-5.7
-7.91
-10.24
-12.46
-14.34
-15.79
-16.85
-17.73
-18.77
-20.3
-22.59
-25.67
-29.2
-32.56
-34.88
-35.36
-33.46
-29.12
-22.77
-15.24
-7.51
-0.46
5.37
9.81
12.98
15.13
16.46
17.08
17.07
16.53
15.67
14.73
13.86
13.13
12.54
12.08
11.84
11.95
12.47
13.3
14.19
14.78
14.78
14.04
12.58
10.57
8.25
5.86
3.63
1.7
0.1
-1.18
-2.22
-3.08
-3.79
-4.4
-4.99
-5.65
-6.45
-7.4
-8.37
-9.28
-10.05
-10.73
-11.47
-12.43
-13.74
-15.49
-17.77
-20.64
-24.08
-27.81
-31.24
-33.55
-33.94
-31.88
-27.38
-20.95
-13.42
-5.74
1.33
7.33
12.08
15.63
18.19
19.97
21.13
21.76
21.9
21.56
20.84
19.9
18.99
18.4
18.32
18.81
19.76
20.89
21.91
22.54
22.64
22.2
21.27
19.92
18.14
15.96
13.51
11.01
8.8
7.12
6.04
5.33
4.63
3.53
1.84
-0.41
-2.93
-5.35
-7.31
-8.66
-9.44
-9.93
-10.55
-11.72
-13.71
-16.57
-20.04
-23.61
-26.64
-28.39
-28.3
-26.04
-21.68
-15.7
-8.88
-2.06
4.07
9.15
13.12
16.05
18.08
19.25
19.61
19.23
18.3
17.09
15.87
14.83
14.05
13.53
13.18
12.94
12.73
12.54
12.37
12.26
12.22
12.12
11.79
10.99
9.58
7.65
5.47
3.41
1.7
0.38
-0.73
-1.92
-3.41
-5.2
-7.14
-9.0
-10.62
-11.97
-13.13
-14.26
-15.47
-16.78
-18.14
-19.52
-20.99
-22.71
-24.87
-27.44
-30.14
-32.34
-33.34
-32.54
-29.69
-24.95
-18.8
-11.89
-4.87
1.74
7.52
12.18
15.58
17.72
18.77
18.96
18.57
17.87
17.06
16.26
15.56
15.0
14.64
14.5
14.6
14.93
15.36
15.71
15.82
15.54
14.87
13.9
12.74
11.46
10.07
8.56
6.96
5.38
3.93
2.66
1.48
0.27
-1.08
-2.59
-4.13
-5.62
-6.98
-8.28
-9.56
-10.88
-12.21
-13.53
-14.83
-16.22
-17.89
-20.01
-22.75
-26.07
-29.8
-33.51
-36.6
-38.39
-38.3
-36.03
-31.66
-25.66
-18.7
-11.58
-4.92
0.87
5.59
9.19
11.68
13.1
13.51
13.07
12.0
10.64
9.34
8.42
8.05
8.24
8.88
9.76
10.71
11.63
12.46
13.13
13.56
13.65
13.34
12.6
11.51
10.16
8.63
7.01
5.35
3.7
2.11
0.59
-0.88
-2.34
-3.83
-5.32
-6.76
-8.07
-9.19
-10.09
-10.82
-11.43
-11.96
-12.48
-13.06
-13.79
-14.77
-16.12
-17.85
-19.9
-22.03
-23.85
-24.85
-24.53
-22.52
-18.72
-13.4
-7.05
-0.31
6.22
12.08
17.06
21.06
24.08
26.15
27.25
27.39
26.68
25.33
23.67
22.06
20.79
19.95
19.51
19.31
19.2
19.09
18.93
18.66
18.2
17.4
16.2
14.59
12.65
10.55
8.43
6.41
4.58
2.94
1.45
0.01
-1.53
-3.31
-5.34
-7.56
-9.77
-11.79
-13.45
-14.75
-15.73
-16.49
-17.16
-17.93
-19.02
-20.64
-22.87
-25.52
-28.12
-29.95
-30.32
-28.73
-25.12
-19.8
-13.37
-6.54
0.08
5.96
10.77
14.35
16.69
17.96
18.37
18.18
17.58
16.68
15.57
14.37
13.27
12.46
12.05
12.0
12.13
12.23
12.24
12.22
12.31
12.62
13.07
13.41
13.33
12.57
11.09
9.05
6.74
4.48
2.53
0.99
-0.15
-1.02
-1.78
-2.57
-3.51
-4.66
-6.05
-7.72
-9.64
-11.72
-13.85
-15.87
-17.63
-19.17
-20.63
-22.3
-24.47
-27.28
-30.59
-33.87
-36.36
-37.23
-35.76
-31.71
-25.3
-17.26
-8.62
-0.36
6.76
12.38
16.49
19.24
20.84
21.44
21.15
20.12
18.59
16.89
15.36
14.31
13.84
13.91
14.33
14.86
15.29
15.49
15.41
15.0
14.22
13.05
11.49
9.64
7.68
5.81
4.17
2.75
1.45
0.13
-1.26
-2.71
-4.08
-5.31
-6.42
-7.53
-8.8
-10.32
-12.07
-13.91
-15.66
-17.15
-18.36
-19.29
-20.07
-20.82
-21.66
-22.76
-24.27
-26.3
-28.8
-31.47
-33.67
-34.57
-33.44
-29.88
-24.12
-16.9
-9.23
-2.04
4.12
9.06
12.84
15.57
17.31
18.07
17.97
17.21
16.13
15.04
14.17
13.61
13.34
13.38
13.73
14.41
15.33
16.36
17.26
17.81
17.92
17.6
16.96
16.09
15.03
13.74
12.19
10.42
8.58
6.85
5.35
4.05
2.79
1.39
-0.29
-2.18
-4.1
-5.81
-7.13
-8.05
-8.62
-8.97
-9.24
-9.55
-10.03
-10.88
-12.28
-14.36
-17.06
-20.03
-22.66
-24.19
-23.95
-21.6
-17.19
-11.25
-4.54
2.16
8.23
13.35
17.37
20.27
22.04
22.67
22.22
20.85
18.88
16.64
14.53
12.88
11.94
11.78
12.28
13.19
14.17
14.98
15.54
15.93
16.25
16.53
16.68
16.46
15.66
14.2
12.13
9.63
6.91
4.16
1.49
-1.01
-3.3
-5.37
-7.23
-8.94
-10.53
-12.08
-13.7
-15.45
-17.37
-19.42
-21.48
-23.46
-25.3
-27.09
-29.02
-31.29
-33.92
-36.68
-38.99
-40.11
-39.28
-36.04
-30.38
-22.8
-14.14
-5.39
2.64
9.48
14.97
19.2
22.26
24.24
25.16
25.1
24.23
22.83
21.22
19.68
18.38
17.37
16.65
16.19
15.97
15.95
16.11
16.38
16.68
16.9
16.93
16.67
16.04
15.02
13.59
11.78
9.6
7.17
