0
13.12
15.57
17.23
18.22
18.6
18.45
17.9
17.14
16.46
16.09
16.18
16.7
17.47
18.26
18.9
19.3
19.44
19.3
18.88
18.15
17.13
15.86
14.41
12.81
11.07
9.17
7.1
4.9
2.64
0.43
-1.66
-3.61
-5.44
-7.24
-9.1
-11.14
-13.41
-15.9
-18.52
-21.13
-23.57
-25.82
-27.93
-30.19
-32.91
-36.31
-40.38
-44.69
-48.45
-50.72
-50.69
-47.93
-42.57
-35.23
-26.82
-18.31
-10.42
-3.6
2.02
6.52
10.12
13.04
15.46
17.5
19.21
20.63
21.79
22.72
23.5
24.14
24.64
25.02
25.25
25.37
25.46
25.6
25.82
26.09
26.31
26.27
25.81
24.82
23.3
21.43
19.47
17.67
16.18
14.92
13.67
12.14
10.2
7.93
5.58
3.45
1.72
0.31
-1.06
-2.72
-4.85
-7.42
-10.21
-12.96
-15.46
-17.71
-19.81
-21.99
-24.47
-27.41
-30.91
-34.91
-39.16
-43.25
-46.61
-48.62
-48.75
-46.66
-42.34
-36.07
-28.42
-20.09
-11.85
-4.34
2.02
7.1
11.01
13.99
16.28
18.02
19.25
19.98
20.31
20.41
20.51
20.74
21.15
21.66
22.15
22.53
22.79
22.98
23.13
23.23
23.2
22.95
22.36
21.38
20.01
18.3
16.33
14.21
12.04
9.89
7.83
5.91
4.16
2.54
0.95
-0.8
-2.83
-5.17
-7.71
-10.2
-12.47
-14.43
-16.21
-18.09
-20.36
-23.22
-26.64
-30.32
-33.74
-36.27
-37.29
-36.38
-33.41
-28.57
-22.31
-15.23
-7.97
-1.05
5.12
10.27
14.27
17.1
18.88
19.77
19.97
19.67
19.05
18.31
17.65
17.28
17.34
17.86
18.74
19.79
20.75
21.42
21.71
21.6
21.15
20.4
19.41
18.21
16.78
15.15
13.33
11.34
9.23
7.04
4.81
2.61
0.46
-1.65
-3.74
-5.9
-8.19
-10.58
-13.01
-15.36
-17.52
-19.51
-21.45
-23.56
-26.03
-28.99
-32.48
-36.42
-40.62
-44.68
-48.01
-49.87
-49.53
-46.54
-40.92
-33.24
-24.43
-15.53
-7.33
-0.29
5.55
10.32
14.25
17.46
20.0
21.88
23.14
23.83
24.1
24.13
24.1
24.17
24.4
24.76
25.19
25.59
25.95
26.29
26.65
27.0
27.22
27.14
26.56
25.42
23.77
21.79
19.74
17.83
16.17
14.72
13.36
11.9
10.16
8.05
5.56
2.84
0.12
-2.39
-4.53
-6.33
-7.93
-9.55
-11.39
-13.53
-15.92
-18.39
-20.79
-23.05
-25.26
-27.62
-30.39
-33.81
-37.92
-42.45
-46.84
-50.22
-51.66
-50.43
-46.28
-39.54
-30.99
-21.67
-12.52
-4.24
2.83
8.59
13.07
16.39
18.7
20.18
21.06
21.51
21.68
21.66
21.55
21.44
21.44
21.66
22.1
22.71
23.37
23.95
24.36
24.57
24.55
24.27
23.66
22.68
21.31
19.59
17.59
15.4
13.15
10.93
8.82
6.82
4.89
2.92
0.81
-1.47
-3.9
-6.33
-8.61
-10.63
-12.37
-13.92
-15.48
-17.25
-19.47
-22.27
-25.69
-29.56
-33.46
-36.71
-38.56
-38.33
-35.71
-30.8
-24.13
-16.45
-8.57
-1.14
5.4
10.85
15.14
18.27
20.31
21.33
21.5
21.03
20.14
19.07
18.07
17.31
16.91
16.93
17.37
18.16
19.16
20.18
21.04
21.55
21.62
21.21
20.38
19.19
17.73
16.04
14.16
12.14
10.05
7.94
5.82
3.69
1.52
-0.65
-2.78
-4.79
-6.71
-8.62
-10.7
-13.05
-15.69
-18.44
-21.04
-23.29
-25.21
-27.04
-29.2
-32.03
-35.72
-40.09
-44.63
-48.54
-50.95
-51.1
-48.52
-43.2
-35.62
-26.66
-17.36
-8.67
-1.22
4.8
9.47
13.04
15.75
17.75
19.12
19.94
20.32
20.42
20.36
20.25
20.18
20.22
20.48
21.0
21.75
22.6
23.37
23.88
24.07
23.91
23.36
22.38
20.88
18.84
16.38
13.75
11.26
9.08
7.25
5.58
3.85
1.88
-0.37
-2.86
-5.49
-8.19
-10.9
-13.53
-16.01
-18.28
-20.37
-22.44
-24.8
-27.73
-31.41
-35.68
-40.07
-43.79
-46.02
-46.05
-43.53
-38.51
-31.48
-23.17
-14.44
-6.08
1.33
7.5
12.39
16.11
18.82
20.68
21.76
22.16
22.02
21.54
20.97
20.51
20.24
20.13
20.1
20.04
19.92
19.79
19.7
19.67
19.57
19.23
18.45
17.13
15.32
13.18
10.93
8.71
6.57
4.4
2.09
-0.4
-2.99
-5.54
-7.93
-10.14
-12.25
-14.46
-16.93
-19.78
-22.94
-26.19
-29.12
-31.17
-31.74
-30.37
-26.84
-21.33
-14.42
-6.93
0.29
6.59
11.65
15.45
18.17
20.0
21.04
21.3
20.78
19.57
17.89
16.09
14.54
13.51
13.1
13.26
13.77
14.39
14.9
15.14
15.03
14.57
13.75
12.57
11.0
9.02
6.62
3.87
0.86
-2.29
-5.45
-8.52
-11.44
-14.16
-16.71
-19.17
-21.74
-24.64
-28.07
-32.07
-36.32
-40.18
-42.77
-43.27
-41.18
-36.53
-29.8
-21.83
-13.49
-5.52
1.61
7.68
12.66
16.62
19.66
21.9
23.43
24.32
24.66
24.59
24.28
23.92
23.64
23.47
23.41
23.37
23.34
23.36
23.45
23.63
23.76
23.64
23.04
21.83
20.01
17.72
15.17
12.57
10.07
7.72
5.46
3.17
0.74
-1.87
-4.65
-7.49
-10.24
-12.82
-15.21
-17.47
-19.76
-22.24
-25.12
-28.53
-32.51
-36.9
-41.24
-44.8
-46.75
-46.36
-43.26
-37.63
-30.11
-21.59
-12.95
-4.83
2.41
8.61
13.74
17.78
20.76
22.78
24.04
24.73
25.05
25.12
25.04
24.86
24.7
24.64
24.79
25.15
25.67
26.25
26.77
27.11
27.13
26.74
25.83
24.45
22.72
20.81
18.9
17.07
15.27
13.33
11.09
8.56
5.86
3.28
1.06
-0.72
-2.18
-3.56
-5.16
-7.11
-9.4
-11.88
-14.38
-16.79
-19.1
-21.39
-23.77
-26.36
-29.31
-32.73
-36.6
-40.63
-44.23
-46.58
-46.86
-44.54
-39.56
-32.4
-23.89
-15.01
-6.64
0.61
6.46
10.9
14.09
16.24
17.59
18.34
18.66
18.73
18.7
18.69
18.77
18.91
19.05
19.14
19.22
19.35
19.62
20.05
20.51
20.79
20.64
19.9
18.56
16.74
14.64
12.47
10.31
8.18
5.98
3.63
1.1
-1.55
-4.19
-6.69
-8.96
-10.99
-12.89
-14.85
-17.13
-19.96
-23.43
-27.33
-31.16
-34.14
-35.5
-34.72
-31.63
-26.53
-20.0
-12.74
-5.42
1.44
7.41
12.21
15.76
18.15
19.6
20.38
20.7
20.69
20.36
19.78
19.09
18.49
18.14
18.14
18.45
18.95
19.48
19.94
20.27
20.44
20.4
20.08
19.34
18.04
16.15
13.71
10.95
8.16
5.64
3.55
1.9
0.54
-0.76
-2.24
-4.07
-6.29
-8.84
-11.59
-14.36
-16.95
-19.26
-21.29
-23.17
-25.11
-27.36
-30.14
-33.58
-37.61
-41.97
-46.07
-49.14
-50.31
-48.94
-44.8
-38.22
-30.01
-21.21
-12.8
-5.44
0.64
5.55
9.59
13.04
16.04
18.55
20.5
21.84
22.63
23.03
23.16
23.16
23.06
22.92
22.8
22.83
23.12
23.68
24.4
25.07
25.44
25.34
24.69
23.53
21.97
20.16
18.27
16.45
14.76
13.15
11.48
9.6
7.41
5.0
2.57
0.39
-1.41
-2.9
-4.3
-5.92
-7.97
-10.44
-13.17
-15.9
-18.44
-20.76
-22.98
-25.35
-28.11
-31.43
-35.32
-39.57
-43.74
-47.2
-49.23
-49.21
-46.81
-42.05
-35.36
-27.41
-18.94
-10.64
-3.05
3.46
8.69
12.59
15.24
16.85
17.7
18.08
18.25
18.39
18.64
19.02
19.49
19.96
20.28
20.4
20.33
20.18
20.12
20.24
20.49
20.7
20.62
20.02
18.8
17.03
14.9
12.64
10.44
8.34
6.32
4.31
2.24
0.09
-2.11
-4.32
-6.47
-8.5
-10.4
-12.23
-14.15
-16.43
-19.32
-22.92
-27.03
-31.13
-34.45
-36.16
-35.68
-32.79
-27.77
-21.23
-13.98
-6.8
-0.26
5.35
9.98
13.71
16.62
18.71
19.94
20.28
19.83
18.87
17.8
16.97
16.61
16.71
17.14
17.69
18.23
18.67
18.98
19.09
18.91
18.34
17.35
15.97
14.34
12.56
10.72
8.86
6.98
5.09
3.23
1.4
-0.45
-2.38
-4.5
-6.84
-9.35
-11.92
-14.44
-16.83
-19.09
-21.32
-23.6
-26.03
-28.72
-31.79
-35.31
-39.26
-43.36
-47.02
-49.45
-49.82
-47.55
-42.58
-35.38
-26.8
-17.87
-9.45
-2.06
4.1
9.11
13.15
16.37
18.9
20.82
22.22
23.22
23.89
24.3
24.45
24.35
24.07
23.75
23.57
23.69
24.13
24.78
25.42
25.86
25.96
25.67
25.01
24.01
22.68
21.02
19.07
16.92
14.66
12.36
10.06
7.78
5.52
3.33
1.22
-0.84
-2.91
-5.09
-7.47
-10.03
-12.68
-15.29
-17.76
-20.12
-22.49
-25.08
-28.06
-31.57
-35.56
-39.82
-43.88
-47.08
-48.68
-48.04
-44.83
-39.18
-31.69
-23.21
-14.65
-6.72
0.19
5.99
10.73
14.55
17.54
19.8
21.41
22.5
23.18
23.55
23.7
23.68
23.55
23.41
23.36
23.44
23.66
23.93
24.15
24.23
24.05
23.53
22.6
21.21
19.39
17.25
14.97
12.73
10.64
8.7
6.83
4.9
2.79
0.47
-2.01
-4.53
-6.92
-9.05
-10.86
-12.43
-13.94
-15.69
-17.97
-20.92
-24.5
-28.36
-31.91
-34.38
-35.08
-33.55
-29.7
-23.89
-16.82
-9.32
-2.14
4.17
9.36
13.38
16.32
18.34
19.57
20.15
20.19
19.82
19.19
18.46
17.78
17.29
17.1
17.23
17.67
18.35
19.14
19.88
20.39
20.46
19.98
18.92
17.41
15.64
13.8
12.02
10.31
8.61
6.86
5.04
3.18
1.31
-0.57
-2.53
-4.65
-6.99
-9.58
-12.33
-15.1
-17.77
-20.25
-22.52
-24.68
-26.9
-29.46
-32.6
-36.46
-40.87
-45.31
-48.94
-50.85
-50.35
-47.18
-41.6
-34.26
-25.94
-17.42
-9.26
-1.89
4.4
9.49
13.36
16.17
18.21
19.75
21.0
22.01
22.81
23.4
23.85
24.25
24.62
24.96
25.19
25.26
25.22
25.16
25.2
25.36
25.54
25.52
25.08
24.09
22.59
20.73
18.73
16.74
14.8
12.86
10.85
8.76
6.64
4.61
2.77
1.14
-0.36
-1.9
-3.63
-5.69
-8.09
-10.77
-13.58
-16.35
-18.91
-21.19
-23.21
-25.13
-27.23
-29.83
-33.2
-37.31
-41.82
-46.0
-48.92
-49.69
-47.75
-43.05
-36.08
-27.72
-18.95
-10.59
-3.22
2.91
7.75
11.42
14.08
15.93
17.18
18.03
18.63
19.07
19.39
19.6
19.72
19.77
19.78
19.75
19.71
19.69
19.74
19.88
20.06
20.13
19.88
19.1
17.7
15.75
13.44
11.02
8.74
6.66
4.79
3.02
1.22
-0.68
-2.72
-4.87
-7.07
-9.22
-11.3
-13.34
-15.5
-17.98
-20.92
-24.3
-27.85
-31.05
-33.22
-33.75
-32.25
-28.68
-23.34
-16.77
-9.62
-2.49
4.11
9.82
14.37
17.68
19.76
20.71
20.73
20.05
18.98
17.82
16.86
16.33
16.27
16.58
17.05
17.48
17.76
17.89
17.9
17.76
17.37
16.63
15.49
14.03
12.37
10.61
8.79
6.87
4.82
2.68
0.46
-1.8
-4.17
-6.72
-9.49
-12.36
-15.12
-17.52
-19.45
-21.03
-22.56
-24.41
-26.92
-30.28
-34.47
-39.18
-43.84
-47.67
-49.8
-49.56
-46.61
-41.15
-33.78
-25.4
-16.9
-9.0
-2.08
3.79
8.71
12.87
16.33
19.1
21.12
22.37
22.94
23.05
22.93
22.82
22.85
23.04
23.37
23.74
24.11
24.44
24.75
25.02
25.25
25.32
25.06
24.27
22.84
20.77
18.24
15.51
12.87
10.5
8.46
6.69
5.04
3.34
1.37
-1.01
-3.83
-7.01
-10.29
-13.41
-16.12
-18.38
-20.33
-22.29
-24.64
-27.72
-31.69
-36.39
-41.33
-45.66
-48.43
-48.77
-46.22
-40.9
-33.44
-24.85
-16.08
-7.85
-0.54
5.8
11.2
15.67
19.15
21.62
23.13
23.9
24.2
24.28
24.28
24.23
24.1
23.93
23.82
23.89
24.25
24.85
25.56
26.16
26.43
26.24
25.5
24.25
22.53
20.48
18.22
15.89
13.64
11.59
9.77
8.17
6.63
4.97
2.99
0.56
-2.3
-5.4
-8.47
-11.26
-13.61
-15.57
-17.34
-19.2
-21.49
-24.4
-28.0
-32.12
-36.3
-39.86
-42.0
-42.04
-39.59
-34.74
-27.99
-20.16
-12.08
-4.44
2.32
7.97
12.43
15.72
17.94
19.27
19.98
20.33
20.54
20.73
20.9
21.04
21.08
21.01
20.86
20.67
20.51
20.46
20.54
20.69
20.75
20.49
19.71
18.35
16.46
14.21
11.76
9.19
6.49
3.64
0.7
-2.23
-4.98
-7.47
-9.72
-11.82
-13.86
-15.98
-18.26
-20.85
-23.94
-27.67
-32.02
-36.62
-40.78
-43.63
-44.43
-42.73
-38.58
-32.41
-24.92
-16.85
-8.89
-1.55
4.83
10.06
14.16
17.28
19.61
21.37
22.69
23.62
24.18
24.42
24.47
24.44
24.44
24.5
24.62
24.78
24.98
25.26
25.57
25.79
25.76
25.29
24.33
22.96
21.31
19.53
17.65
15.63
13.44
11.08
8.66
6.35
4.22
2.22
0.22
-1.94
-4.32
-6.86
-9.43
-11.91
-14.23
-16.4
-18.49
-20.55
-22.64
-24.86
-27.4
-30.48
-34.22
-38.53
-43.0
-46.9
-49.38
-49.64
-47.27
-42.27
-35.12
-26.61
-17.66
-9.11
-1.55
4.73
9.73
13.59
16.55
18.78
20.38
21.42
21.99
22.21
22.25
22.22
22.23
22.33
22.52
22.82
23.24
23.73
24.23
24.62
24.78
24.6
24.06
23.15
21.9
20.36
18.57
16.59
14.53
12.43
10.36
8.34
6.34
4.37
2.44
0.53
-1.35
-3.27
-5.28
-7.44
-9.73
-12.09
-14.45
-16.76
-19.07
-21.42
-23.92
-26.7
-29.87
-33.44
-37.26
-40.91
-43.72
-44.9
-43.81
-40.16
-34.17
-26.55
-18.23
-10.14
-2.88
3.26
8.28
12.26
15.31
17.46
18.74
19.24
19.17
18.81
18.48
18.35
18.48
18.79
19.13
19.38
19.52
19.55
19.54
19.5
19.35
18.93
18.09
16.72
14.85
12.62
10.27
7.98
5.85
3.86
1.87
-0.26
-2.61
-5.17
-7.86
-10.56
-13.17
-15.65
-18.01
-20.34
-22.82
-25.68
-29.11
-33.07
-37.23
-40.9
-43.22
-43.42
-41.08
-36.32
-29.72
-22.1
-14.25
-6.75
0.03
5.93
10.85
14.77
17.73
19.82
21.23
22.11
22.63
22.92
23.08
23.23
23.46
23.79
24.18
24.54
24.77
24.84
24.83
24.83
24.9
25.0
24.98
24.63
23.8
22.46
20.68
18.68
16.67
14.78
13.07
11.5
9.98
8.46
6.9
5.29
3.63
1.92
0.19
-1.54
-3.26
-4.98
-6.76
-8.68
-10.85
-13.29
-15.97
-18.74
-21.45
-23.96
-26.22
-28.32
-30.46
-32.91
-35.92
-39.61
-43.83
-48.12
-51.68
-53.64
-53.26
-50.21
-44.63
-37.1
-28.44
-19.51
-10.98
-3.34
3.2
8.57
12.82
16.05
18.39
19.96
20.9
21.38
21.62
21.83
22.16
22.64
23.19
23.7
24.07
24.31
24.49
24.67
24.83
24.89
24.74
24.29
23.53
22.48
21.18
19.66
17.93
16.06
14.13
12.22
10.35
8.45
6.43
4.24
1.94
-0.32
-2.39
-4.25
-6.03
-7.95
-10.15
-12.57
-14.99
-17.21
-19.19
-21.19
-23.66
-26.95
-31.08
-35.64
-39.81
-42.64
-43.36
-41.55
-37.29
-31.04
-23.55
-15.64
-8.04
-1.23
4.52
9.19
12.86
15.63
17.55
18.66
19.03
18.77
18.09
17.21
16.4
15.87
15.74
15.99
16.49
17.04
17.44
17.57
17.4
16.97
16.32
15.42
14.21
12.59
10.54
8.11
5.46
2.71
-0.02
-2.74
-5.47
-8.27
-11.15
-14.04
-16.87
-19.65
-22.44
-25.43
-28.69
-32.08
-35.18
-37.28
-37.61
-35.67
-31.39
-25.2
-17.86
-10.21
-2.92
3.61
9.25
13.99
17.84
20.76
22.67
23.54
23.45
22.64
21.47
20.33
19.55
19.27
19.44
19.83
20.23
20.49
20.58
20.58
20.55
20.51
20.36
19.99
19.27
18.14
16.6
14.68
12.45
10.02
7.48
4.93
2.41
-0.14
-2.8
-5.62
-8.59
-11.57
-14.38
-16.88
-19.04
-21.02
-23.08
-25.49
-28.45
-32.07
-36.26
-40.81
-45.27
-48.99
-51.19
-51.18
-48.54
-43.31
-36.02
-27.49
-18.61
-10.11
-2.41
4.32
10.05
14.79
18.56
21.37
23.31
24.52
25.18
25.5
25.64
25.73
25.84
26.02
26.23
26.45
26.64
26.79
26.89
26.92
26.82
26.48
25.78
24.68
23.21
21.47
19.64
17.85
16.1
14.33
12.41
10.28
7.96
5.59
3.31
1.19
-0.76
-2.67
-4.63
-6.75
-9.01
-11.39
-13.82
-16.3
-18.8
-21.36
-24.05
-26.96
-30.23
-33.96
-38.1
-42.34
-46.1
-48.56
-49.0
-46.9
-42.24
-35.46
-27.35
-18.78
-10.53
-3.1
3.22
8.35
12.33
15.27
17.34
18.73
19.61
20.15
20.46
20.63
20.72
20.79
20.84
20.87
20.9
20.94
21.06
21.29
21.62
21.92
21.99
21.6
20.62
19.02
16.92
14.51
12.0
9.51
7.06
4.59
2.01
-0.73
-3.58
-6.41
-9.06
-11.42
-13.57
-15.72
-18.18
-21.17
-24.7
-28.47
-31.88
-34.21
-34.8
-33.26
-29.57
-24.06
-17.3
-9.97
-2.73
3.9
9.57
14.09
17.44
19.69
21.01
21.59
21.61
21.29
20.81
20.36
20.05
19.94
19.97
20.04
20.05
19.97
19.85
19.77
19.73
19.69
19.48
18.96
18.0
16.57
14.71
12.51
10.08
7.54
5.03
2.66
0.47
-1.57
-3.6
-5.78
-8.24
-10.98
-13.88
-16.73
-19.32
-21.57
-23.55
-25.46
-27.61
-30.27
-33.63
-37.71
-42.2
-46.52
-49.87
-51.38
-50.37
-46.58
-40.24
-32.04
-22.94
-13.88
-5.62
1.43
7.18
11.74
15.32
18.1
20.17
21.59
22.44
22.86
23.07
23.26
23.6
24.1
24.68
25.2
25.55
25.7
25.69
25.57
25.37
25.04
24.53
23.77
22.72
21.36
19.74
17.88
15.85
13.71
11.49
9.19
6.82
4.38
1.93
-0.49
-2.85
-5.13
-7.37
-9.58
-11.78
-13.99
-16.26
-18.67
-21.36
-24.47
-28.08
-32.16
-36.52
-40.82
-44.54
-47.04
-47.69
-46.04
-41.98
-35.8
-28.17
-19.92
-11.84
-4.49
1.86
7.19
11.59
15.19
18.06
20.25
21.75
22.61
22.97
22.97
22.85
22.76
22.79
22.92
23.09
23.19
23.17
23.02
22.78
22.45
21.97
21.25
20.2
18.82
17.13
15.22
13.19
11.08
8.87
6.55
4.09
1.53
-1.03
-3.49
-5.77
-7.81
-9.65
-11.43
-13.33
-15.59
-18.44
-21.99
-26.12
-30.42
-34.22
-36.75
-37.26
-35.33
-30.95
-24.58
-17.02
-9.17
-1.86
4.37
9.36
13.22
16.19
18.51
20.31
21.54
22.17
22.2
21.78
21.18
20.64
20.32
20.22
20.26
20.35
20.48
20.68
20.98
21.28
21.41
21.17
20.42
19.15
17.4
15.29
12.97
10.55
8.2
6.02
4.05
2.25
0.48
-1.41
-3.44
-5.58
-7.74
-9.9
-12.13
-14.52
-17.11
-19.77
-22.29
-24.54
-26.59
-28.78
-31.52
-35.11
-39.47
-44.11
-48.21
-50.85
-51.27
-49.04
-44.16
-37.06
-28.46
-19.27
-10.39
-2.49
4.07
9.3
13.41
16.71
19.36
21.42
22.84
23.65
24.0
24.11
24.23
24.46
24.76
24.99
25.05
24.93
24.73
24.54
24.41
24.24
23.91
23.29
22.3
20.94
19.23
17.23
15.02
12.68
10.35
8.19
6.31
4.68
3.15
1.49
-0.52
-2.97
-5.78
-8.76
-11.67
-14.34
-16.76
-19.01
-21.27
-23.69
-26.41
-29.51
-33.0
-36.72
-40.28
-43.05
-44.3
-43.36
-39.9
-34.05
-26.4
-17.86
-9.38
-1.74
4.61
9.57
13.29
16.05
18.08
19.51
20.37
20.66
20.41
19.8
19.06
18.47
18.17
18.17
18.35
18.51
18.55
18.43
18.19
17.84
17.34
16.58
15.48
14.0
12.23
10.27
8.2
6.03
3.68
1.09
-1.69
-4.5
-7.1
-9.37
-11.33
-13.2
-15.3
-17.9
-21.1
-24.76
-28.47
-31.63
-33.56
-33.64
-31.55
-27.32
-21.37
-14.36
-7.07
-0.15
5.94
10.98
14.89
17.68
19.42
20.22
20.25
19.75
18.98
18.17
17.47
16.89
16.41
15.96
15.56
15.25
15.15
15.28
15.56
15.77
15.61
14.83
13.35
11.25
8.76
6.18
3.69
1.38
-0.81
-3.02
-5.37
-7.93
-10.69
-13.58
-16.46
-19.24
-21.83
-24.26
-26.7
-29.46
-32.84
-36.93
-41.41
-45.49
-48.13
-48.39
-45.8
-40.57
-33.43
-25.39
-17.31
-9.78
-3.0
2.99
8.2
12.58
16.11
18.79
20.72
22.07
23.0
23.63
23.98
24.09
23.98
23.76
23.56
23.52
23.68
24.03
24.44
24.74
24.75
24.31
23.31
21.72
19.6
17.12
14.52
12.0
9.71
7.62
5.58
3.37
0.79
-2.23
-5.57
-9.0
-12.23
-15.04
-17.38
-19.36
-21.29
-23.52
-26.38
-30.03
-34.37
-38.97
-43.15
-46.04
-46.84
-44.99
-40.4
-33.46
-24.99
-16.02
-7.53
-0.17
5.78
10.43
14.06
16.98
19.33
21.13
22.31
22.9
23.02
22.94
22.84
22.85
22.93
22.98
22.93
22.78
22.57
22.34
22.03
21.56
20.82
19.77
18.46
16.93
15.19
13.24
11.03
8.53
5.78
2.86
-0.12
-3.06
-5.87
-8.48
-10.9
-13.16
-15.39
-17.83
-20.72
-24.23
-28.29
-32.45
-35.99
-38.02
-37.84
-35.14
-30.11
-23.38
-15.74
-7.99
-0.73
5.65
10.93
15.02
17.93
19.78
20.76
21.05
20.81
20.14
19.19
18.13
17.22
16.68
16.59
16.82
17.12
17.25
17.08
16.63
16.02
15.31
14.43
13.25
11.63
9.55
7.09
4.41
1.68
-1.03
-3.71
-6.37
-9.01
-11.63
-14.18
-16.71
-19.31
-22.18
-25.49
-29.26
-33.24
-36.86
-39.31
-39.79
-37.79
-33.24
-26.59
-18.67
-10.35
-2.44
4.55
10.36
14.97
18.48
21.04
22.79
23.8
24.17
23.99
23.46
22.85
22.45
22.45
22.85
23.48
24.09
24.55
24.84
25.08
25.37
25.68
25.81
25.45
24.39
22.59
20.26
17.72
15.29
13.18
11.41
9.88
8.41
6.84
5.07
3.08
0.94
-1.21
-3.24
-5.08
-6.79
-8.56
-10.63
-13.13
-16.02
-19.07
-22.0
-24.61
-26.91
-29.07
-31.37
-34.07
-37.38
-41.35
-45.83
-50.43
-54.42
-56.91
-56.98
-54.09
-48.22
-40.0
-30.42
-20.56
-11.31
-3.19
3.58
8.99
13.16
16.3
18.69
20.63
22.33
23.86
25.19
26.19
26.81
27.06
27.07
26.97
26.86
26.83
26.93
27.21
27.6
27.99
28.11
27.72
26.67
25.06
23.13
21.19
19.43
17.84
16.25
14.43
12.28
9.87
7.42
5.15
3.15
1.36
-0.42
-2.42
-4.8
-7.55
-10.54
-13.54
-16.35
-18.86
-21.09
-23.2
-25.44
-28.03
-31.17
-34.88
-39.04
-43.24
-46.86
-49.15
-49.38
-47.07
-42.16
-35.05
-26.54
-17.58
-9.05
-1.56
4.63
9.52
13.29
16.14
18.22
19.66
20.56
21.04
21.23
21.27
21.26
21.24
21.22
21.21
21.22
21.29
21.42
21.61
21.78
21.81
21.54
20.84
19.64
17.98
15.99
13.87
11.76
9.76
7.85
5.92
3.8
1.39
-1.37
-4.37
-7.43
-10.32
-12.87
-15.02
-16.9
-18.77
-20.98
-23.82
-27.36
-31.42
-35.48
-38.79
-40.5
-39.97
-36.89
-31.42
-24.17
-16.0
-7.75
-0.12
6.5
11.96
16.28
19.51
21.7
22.91
23.24
22.88
22.09
21.18
20.38
19.84
19.61
19.68
19.99
20.52
21.17
21.83
22.31
22.45
22.09
21.22
19.87
18.15
16.25
14.29
12.39
10.57
8.78
6.92
4.92
2.79
0.62
-1.44
-3.34
-5.14
-6.99
-9.07
-11.47
-14.12
-16.9
-19.65
-22.25
-24.63
-26.82
-28.93
-31.19
-33.91
-37.34
-41.52
-46.17
-50.56
-53.72
-54.7
-52.87
-48.06
-40.72
-31.71
-22.08
-12.83
-4.65
2.18
7.73
12.27
16.08
19.24
21.72
23.39
24.22
24.35
24.05
23.63
23.36
23.32
23.51
23.86
24.31
24.85
25.48
26.12
26.62
26.73
26.22
24.96
23.06
20.73
18.28
15.97
13.87
11.91
9.92
7.77
5.42
2.94
0.42
-2.06
-4.48
-6.86
-9.23
-11.58
-13.92
-16.23
-18.54
-20.95
-23.66
-26.87
-30.77
-35.37
-40.32
-44.93
-48.23
-49.33
-47.66
-43.24
-36.61
-28.63
-20.18
-11.91
-4.17
2.87
9.07
14.29
18.39
21.28
23.05
23.91
24.1
23.89
23.46
22.98
22.55
22.3
22.27
22.44
22.77
23.17
23.57
23.92
24.11
23.97
23.32
22.01
20.05
17.65
15.16
12.9
11.04
9.46
7.82
5.77
3.13
-0.04
-3.43
-6.7
-9.59
-12.05
-14.19
-16.26
-18.5
-21.14
-24.29
-27.91
-31.71
-35.15
-37.5
-38.03
-36.25
-32.05
-25.79
-18.15
-9.98
-2.04
5.08
11.08
15.83
19.38
21.82
23.23
23.72
23.43
22.64
21.71
21.05
20.88
21.22
21.86
22.47
22.85
22.96
22.93
22.91
22.92
22.84
22.49
21.73
20.59
19.24
17.85
16.5
15.08
13.41
11.36
8.94
6.35
3.83
1.59
-0.31
-1.96
-3.56
-5.32
-7.35
-9.74
-12.43
-15.3
-18.22
-21.05
-23.67
-26.08
-28.36
-30.72
-33.4
-36.64
-40.51
-44.84
-49.08
-52.4
-53.83
-52.54
-48.2
-41.07
-32.01
-22.17
-12.65
-4.25
2.73
8.35
12.85
16.47
19.35
21.54
23.07
24.01
24.53
24.82
25.08
25.42
25.85
26.32
26.77
27.14
27.42
27.61
27.68
27.57
27.27
26.75
26.04
25.18
24.18
23.02
21.65
20.1
18.39
16.6
14.78
12.93
11.05
9.1
7.11
5.14
3.28
1.58
0.01
-1.52
-3.14
-5.05
-7.35
-10.09
-13.15
-16.28
-19.17
-21.59
-23.48
-25.04
-26.66
-28.77
-31.72
-35.59
-40.17
-44.91
-49.03
-51.69
-52.16
-50.01
-45.24
-38.22
-29.68
-20.49
-11.49
-3.33
3.6
9.17
13.47
16.68
19.0
20.61
21.62
22.14
22.28
22.14
21.84
21.48
21.11
20.81
20.63
20.65
20.89
21.35
21.93
22.42
22.64
22.41
21.66
20.4
18.72
16.77
14.68
12.59
10.58
8.68
6.85
5.0
3.03
0.91
-1.37
-3.71
-6.04
-8.27
-10.41
-12.51
-14.67
-17.05
-19.76
-22.88
-26.34
-29.89
-33.1
-35.38
-36.16
-35.04
-31.91
-26.98
-20.72
-13.74
-6.63
0.1
6.06
11.04
14.95
17.76
19.55
20.38
20.41
19.83
18.91
17.94
17.21
16.86
16.88
17.13
17.39
17.56
17.62
17.68
17.8
17.95
17.96
17.62
16.76
15.36
13.56
11.56
9.56
7.62
5.68
3.64
1.41
-1.04
-3.63
-6.22
-8.69
-10.96
-13.02
-14.93
-16.77
-18.66
-20.69
-22.93
-25.41
-28.2
-31.35
-34.94
-38.91
-43.03
-46.74
-49.25
-49.74
-47.64
-42.93
-36.12
-28.11
-19.86
-12.09
-5.17
0.85
6.02
10.37
13.92
16.64
18.59
19.87
20.58
20.79
20.6
20.18
19.76
19.63
19.96
20.74
21.79
22.84
23.66
24.13
24.24
24.01
23.42
22.39
20.88
18.92
16.65
14.26
11.97
9.89
8.0
6.17
4.22
1.98
-0.59
-3.42
-6.35
-9.16
-11.69
-13.9
-15.82
-17.6
-19.41
-21.42
-23.85
-26.89
-30.62
-34.94
-39.42
-43.32
-45.77
-46.01
-43.68
-38.9
-32.22
-24.44
-16.38
-8.68
-1.75
4.16
9.0
12.78
15.59
17.62
19.08
20.19
21.09
21.86
22.49
22.9
23.03
22.86
22.46
22.0
21.66
21.56
21.74
22.07
22.33
22.26
21.7
20.59
19.03
17.18
15.21
13.28
11.43
9.66
7.89
6.01
3.92
1.57
-1.04
-3.83
-6.62
-9.26
-11.61
-13.69
-15.66
-17.81
-20.47
-23.84
-27.84
-32.03
-35.7
-37.96
-38.09
-35.7
-30.91
-24.25
-16.55
-8.65
-1.23
5.27
10.66
14.94
18.15
20.42
21.84
22.53
22.64
22.33
21.81
21.3
21.0
21.01
21.33
21.86
22.42
22.87
23.16
23.29
23.28
23.12
22.75
22.1
21.1
19.79
18.24
16.53
14.69
12.73
10.64
8.45
6.23
4.06
1.97
-0.03
-1.97
-3.9
-5.85
-7.9
-10.11
-12.53
-15.13
-17.83
-20.45
-22.86
-25.03
-27.16
-29.55
-32.54
-36.26
-40.53
-44.76
-48.11
-49.7
-48.86
-45.35
-39.41
-31.72
-23.15
-14.55
-6.57
0.42
6.26
10.95
14.55
17.21
19.11
20.49
21.53
22.41
23.19
23.85
24.36
24.65
24.78
24.8
24.84
24.98
25.22
25.48
25.63
25.52
25.04
24.16
22.91
21.4
19.75
18.03
16.3
14.51
12.63
10.63
8.54
6.46
4.5
2.71
1.08
-0.52
-2.28
-4.34
-6.73
-9.36
-12.04
-14.57
-16.82
-18.8
-20.66
-22.67
-25.12
-28.26
-32.12
-36.47
-40.7
-43.99
-45.49
-44.57
-41.06
-35.28
-27.93
-19.85
-11.85
-4.52
1.79
6.93
10.92
13.91
16.07
17.61
18.66
19.37
19.83
20.16
20.46
20.82
21.22
21.53
21.64
21.5
21.22
20.99
20.98
21.19
21.38
21.18
20.26
18.47
15.92
12.94
9.9
7.07
4.56
2.33
0.23
-1.89
-4.13
-6.51
-8.97
-11.4
-13.7
-15.82
-17.82
-19.86
-22.16
-24.96
-28.35
-32.22
-36.11
-39.35
-41.11
-40.74
-37.97
-33.02
-26.5
-19.2
-11.88
-5.02
1.14
6.54
11.18
15.04
18.09
20.31
21.75
22.5
22.67
22.41
21.92
21.38
20.98
20.85
21.03
21.47
22.07
22.72
23.3
23.7
23.82
23.56
22.84
21.69
20.18
18.47
16.74
15.13
13.72
12.47
11.21
9.78
8.03
5.97
3.73
1.55
-0.38
-1.97
-3.35
-4.77
-6.49
-8.66
-11.29
-14.25
-17.33
-20.35
-23.18
-25.78
-28.23
-30.69
-33.39
-36.59
-40.35
-44.45
-48.32
-51.14
-52.0
-50.25
-45.68
-38.62
-29.88
-20.5
-11.51
-3.61
2.86
7.93
11.84
14.87
17.23
19.01
20.27
21.08
21.57
21.91
22.19
22.43
22.6
22.66
22.66
22.71
22.91
23.32
23.82
24.25
24.39
24.13
23.46
22.45
21.18
19.72
18.08
16.27
14.3
12.27
10.21
8.17
6.14
4.14
2.2
0.37
-1.33
-2.97
-4.7
-6.75
-9.22
-12.06
-15.02
-17.78
-20.13
-22.08
-23.84
-25.78
-28.21
-31.27
-34.88
-38.67
-41.98
-44.04
-44.06
-41.52
-36.39
-29.16
-20.75
-12.19
-4.36
2.22
7.41
11.32
14.15
16.15
17.51
18.43
19.08
19.6
20.05
20.4
20.6
20.64
20.56
20.44
20.4
20.53
20.86
21.35
21.86
22.2
22.16
21.63
20.6
19.14
17.36
15.32
13.09
10.7
8.24
5.86
3.66
1.68
-0.2
-2.2
-4.5
-7.16
-10.07
-13.02
-15.79
-18.32
-20.71
-23.21
-26.1
-29.54
-33.48
-37.59
-41.33
-44.05
-45.19
-44.37
-41.45
-36.57
-30.08
-22.47
-14.35
-6.39
0.83
6.89
11.65
15.18
17.73
19.55
20.83
21.67
22.1
22.21
22.14
22.05
22.09
22.33
22.76
23.31
23.89
24.38
24.69
24.73
24.46
23.89
23.08
22.06
20.88
19.53
17.97
16.17
14.11
11.84
9.44
6.99
4.57
2.21
-0.08
-2.33
-4.57
-6.82
-9.1
-11.42
-13.76
-16.12
-18.48
-20.83
-23.21
-25.71
-28.5
-31.72
-35.45
-39.49
-43.35
-46.28
-47.44
-46.18
-42.31
-36.16
-28.48
-20.19
-12.04
-4.55
2.05
7.71
12.38
16.04
18.69
20.42
21.44
21.99
22.27
22.42
22.49
22.5
22.54
22.69
23.04
23.58
24.18
24.68
24.96
24.98
24.77
24.34
23.66
22.66
21.24
19.4
17.21
14.82
12.34
9.88
7.5
5.25
3.19
1.35
-0.33
-2.0
-3.85
-6.02
-8.49
-11.13
-13.74
-16.16
-18.35
-20.4
-22.51
-24.91
-27.86
-31.45
-35.54
-39.68
-43.08
-44.82
-44.09
-40.58
-34.54
-26.77
-18.33
-10.16
-2.88
3.25
8.27
12.31
15.41
17.57
18.8
19.19
18.97
18.47
17.98
17.7
17.66
17.78
17.97
18.18
18.4
18.65
18.87
18.96
18.8
18.28
17.41
16.21
14.73
12.95
10.84
8.36
5.55
2.53
-0.52
-3.46
-6.17
-8.64
-10.9
-13.05
-15.23
-17.66
-20.52
-23.95
-27.86
-31.84
-35.26
-37.37
-37.51
-35.3
-30.78
-24.39
-16.86
-9.02
-1.65
4.73
9.89
13.89
16.94
19.26
20.95
22.01
22.38
22.1
21.36
20.45
19.68
19.27
19.25
19.52
19.95
20.4
20.8
21.13
21.28
21.15
20.6
19.53
17.97
16.01
13.8
11.46
9.11
6.82
4.63
2.54
0.47
-1.74
-4.23
-7.07
-10.12
-13.13
-15.79
