0
-37.99
-43.44
-50.08
-57.42
-64.44
-69.77
-72.02
-70.18
-63.98
-54.02
-41.57
-28.18
-15.27
-3.82
5.71
13.34
19.35
24.14
27.98
30.97
33.03
34.07
34.16
33.6
32.85
32.28
32.1
32.22
32.46
32.73
33.08
33.61
34.3
34.9
34.97
34.1
32.15
29.33
26.09
22.96
20.34
18.42
17.11
16.16
15.24
14.01
12.28
10.04
7.43
4.7
2.05
-0.44
-2.73
-4.92
-7.11
-9.46
-12.08
-15.1
-18.5
-22.14
-25.83
-29.45
-33.1
-37.05
-41.68
-47.27
-53.77
-60.69
-67.14
-71.98
-74.03
-72.38
-66.73
-57.46
-45.72
-32.96
-20.59
-9.58
-0.32
7.28
13.5
18.6
22.72
25.96
28.43
30.31
31.82
33.08
34.2
35.21
36.11
36.9
37.58
38.17
38.69
39.15
39.59
39.91
40.02
39.73
38.85
37.25
34.92
31.92
28.44
24.74
21.09
17.73
14.8
12.31
10.13
8.14
6.26
4.51
2.98
1.74
0.79
0.03
-0.67
-1.46
-2.51
-3.94
-5.88
-8.36
-11.24
-14.32
-17.35
-20.23
-23.06
-26.05
-29.49
-33.55
-38.29
-43.66
-49.45
-55.23
-60.33
-63.88
-64.87
-62.6
-56.84
-48.1
-37.47
-26.38
-16.12
-7.51
-0.79
4.25
8.05
10.92
13.01
14.32
14.83
14.7
14.26
13.89
13.93
14.5
15.5
16.77
18.14
19.58
21.11
22.81
24.64
26.4
27.79
28.41
28.05
26.65
24.45
21.87
19.27
16.85
14.57
12.21
9.62
6.84
4.14
1.9
0.32
-0.64
-1.33
-2.21
-3.69
-5.95
-8.94
-12.37
-15.92
-19.18
-21.98
-24.28
-26.34
-28.61
-31.62
-35.75
-41.17
-47.55
-54.09
-59.62
-62.84
-62.62
-58.5
-50.82
-40.66
-29.56
-19.01
-10.02
-3.01
2.18
6.01
8.98
11.47
13.68
15.69
17.51
19.12
20.52
21.77
23.0
24.24
25.49
26.65
27.64
28.38
28.97
29.53
30.19
30.93
31.58
31.86
31.47
30.22
28.04
25.09
21.71
18.29
15.17
12.45
10.01
7.57
4.85
1.76
-1.5
-4.64
-7.4
-9.71
-11.72
-13.66
-15.71
-17.99
-20.46
-23.11
-25.9
-28.79
-31.69
-34.6
-37.53
-40.62
-44.03
-47.91
-52.23
-56.65
-60.56
-63.09
-63.35
-60.69
-54.91
-46.46
-36.29
-25.66
-15.7
-7.21
-0.45
4.72
8.68
11.82
14.38
16.46
18.08
19.18
19.76
19.96
20.01
20.21
20.81
21.89
23.32
24.86
26.27
27.42
28.27
28.78
28.9
28.5
27.5
25.96
24.1
22.19
20.48
19.05
17.88
16.84
15.84
14.72
13.37
11.73
9.79
7.65
5.49
3.45
1.58
-0.19
-2.01
-3.96
-6.1
-8.45
-11.1
-14.18
-17.76
-21.77
-25.9
-29.77
-33.07
-35.78
-38.16
-40.69
-43.86
-48.07
-53.41
-59.55
-65.65
-70.47
-72.6
-70.93
-65.06
-55.5
-43.48
-30.6
-18.21
-7.27
1.84
9.16
14.92
19.45
23.07
26.13
28.85
31.41
33.82
35.96
37.7
38.96
39.78
40.4
41.17
42.43
44.33
46.79
49.4
51.6
52.86
52.81
51.39
48.74
45.04
40.56
35.54
30.32
25.28
20.78
17.01
14.01
11.6
9.53
7.5
5.32
2.94
0.47
-1.82
-3.66
-4.94
-5.81
-6.69
-8.13
-10.59
-14.25
-18.94
-24.28
-29.86
-35.32
-40.46
-45.21
-49.58
-53.8
-58.23
-63.36
-69.52
-76.59
-83.84
-89.93
-93.3
-92.56
-87.02
-76.94
-63.42
-48.11
-32.72
-18.57
-6.38
3.71
11.93
18.62
24.04
28.29
31.5
33.77
35.3
36.33
37.06
37.67
38.3
39.08
40.14
41.63
43.58
45.93
48.49
50.91
52.73
53.48
52.81
50.61
47.09
42.75
38.16
33.76
29.71
25.86
21.94
17.73
13.23
8.63
4.22
0.27
-3.09
-5.92
-8.45
-10.98
-13.78
-16.96
-20.38
-23.73
-26.66
-29.01
-30.98
-33.1
-36.04
-40.43
-46.55
-54.12
-62.27
-69.61
-74.42
-75.15
-70.83
-61.44
-48.03
-32.32
-16.25
-1.41
11.29
21.54
29.48
35.41
39.62
42.36
43.88
44.44
44.31
43.71
42.84
41.85
40.82
39.82
38.88
38.1
37.56
37.37
37.58
38.14
38.86
39.44
39.6
39.11
37.9
35.95
33.35
30.25
26.88
23.51
20.44
17.91
15.99
14.56
13.42
12.33
11.15
9.8
8.31
6.76
5.28
3.95
2.78
1.57
-0.06
-2.57
-6.31
-11.26
-17.07
-23.12
-28.83
-33.9
-38.41
-42.82
-47.76
-53.75
-60.99
-69.17
-77.38
-84.31
-88.4
-88.4
-83.61
-74.18
-61.04
-45.74
-29.95
-15.1
-2.14
8.59
17.18
23.95
29.22
33.15
35.77
37.22
37.77
37.9
38.16
38.94
40.41
42.47
44.92
47.6
50.4
53.18
55.72
57.73
58.91
59.04
58.1
56.18
53.5
50.37
47.09
43.93
41.0
38.18
35.14
31.59
27.42
22.89
18.5
14.81
12.09
10.28
8.95
7.63
5.93
3.72
1.08
-1.77
-4.57
-7.13
-9.39
-11.47
-13.62
-16.13
-19.16
-22.67
-26.37
-29.95
-33.2
-36.19
-39.16
-42.55
-46.76
-52.05
-58.45
-65.69
-73.13
-79.7
-84.07
-84.96
-81.51
-73.59
-61.92
-47.88
-33.16
-19.22
-7.05
2.98
10.99
17.31
22.26
25.92
28.31
29.53
29.82
29.7
29.74
30.35
31.66
33.51
35.59
37.66
39.59
41.37
42.93
44.17
44.86
44.9
44.25
43.0
41.3
39.26
36.92
34.3
31.45
28.48
25.48
22.57
19.76
17.02
14.26
11.46
8.63
5.84
3.14
0.52
-2.15
-5.13
-8.67
-12.9
-17.73
-22.84
-27.72
-31.97
-35.39
-38.11
-40.53
-43.12
-46.28
-50.33
-55.39
-61.4
-68.07
-74.78
-80.47
-83.8
-83.51
-78.75
-69.48
-56.59
-41.61
-26.33
-12.29
-0.4
9.06
16.39
22.06
26.55
30.06
32.64
34.29
35.09
35.27
35.18
35.16
35.44
36.1
37.05
38.19
39.42
40.72
42.11
43.51
44.73
45.52
45.48
44.3
41.91
38.46
34.36
30.21
26.5
23.55
21.32
19.53
17.73
15.52
12.71
9.29
5.5
1.63
-2.07
-5.37
-8.21
-10.6
-12.68
-14.69
-17.0
-19.84
-23.35
-27.39
-31.62
-35.69
-39.33
-42.58
-45.7
-49.13
-53.32
-58.53
-64.72
-71.32
-77.38
-81.53
-82.39
-78.99
-71.15
-59.6
-45.78
-31.4
-17.92
-6.21
3.42
11.1
17.08
21.62
24.88
27.03
28.29
28.99
29.49
30.14
31.11
32.4
33.82
35.11
36.09
36.74
37.19
37.68
38.32
39.02
39.56
39.62
39.02
37.76
35.98
33.9
31.6
29.11
26.38
23.45
20.46
17.67
15.28
13.36
11.8
10.39
8.9
7.18
5.18
2.96
0.61
-1.79
-4.19
-6.62
-9.15
-11.93
-15.09
-18.71
-22.74
-26.99
-31.18
-35.1
-38.69
-42.1
-45.76
-50.11
-55.51
-62.0
-69.1
-75.84
-80.89
-82.85
-80.69
-74.09
-63.54
-50.26
-35.81
-21.68
-8.93
1.9
10.75
17.83
23.4
27.67
30.86
33.12
34.66
35.66
36.3
36.7
36.98
37.27
37.7
38.38
39.38
40.64
42.02
43.29
44.18
44.5
44.11
42.98
41.17
38.77
35.91
32.71
29.32
25.92
22.71
19.84
17.41
15.39
13.69
12.16
10.71
9.23
7.69
6.02
4.14
2.0
-0.39
-3.01
-5.84
-8.93
-12.31
-16.04
-20.06
-24.26
-28.4
-32.27
-35.72
-38.72
-41.4
-44.09
-47.26
-51.41
-56.78
-63.14
-69.56
-74.54
-76.48
-74.1
-67.05
-56.02
-42.51
-28.29
-14.91
-3.26
6.41
14.32
20.83
26.21
30.54
33.8
36.0
37.27
37.84
38.02
38.1
38.23
38.56
39.17
40.15
41.47
43.07
44.76
46.25
47.32
47.77
47.54
46.68
45.26
43.38
41.14
38.62
35.93
33.2
30.54
28.01
25.54
22.99
20.23
17.15
13.79
10.31
6.91
3.75
0.88
-1.8
-4.51
-7.5
-10.9
-14.8
-19.08
-23.53
-27.87
-31.84
-35.32
-38.37
-41.21
-44.23
-47.89
-52.54
-58.27
-64.77
-71.24
-76.41
-78.89
-77.5
-71.7
-61.81
-49.02
-35.0
-21.43
-9.59
-0.1
7.1
12.36
16.18
18.93
20.82
22.03
22.77
23.29
23.82
24.53
25.46
26.58
27.86
29.32
30.98
32.78
34.56
36.07
37.04
37.28
36.74
35.49
33.66
31.38
28.73
25.76
22.52
19.15
15.82
12.82
10.3
8.29
6.6
4.9
2.9
0.47
-2.23
-4.86
-7.08
-8.72
-9.84
-10.74
-11.7
-12.93
-14.47
-16.27
-18.21
-20.22
-22.34
-24.71
-27.53
-31.07
-35.58
-41.2
-47.79
-54.85
-61.4
-66.2
-67.98
-65.88
-59.78
-50.37
-38.93
-26.99
-15.82
-6.14
1.86
8.37
13.65
17.87
21.08
23.36
24.85
25.75
26.32
26.77
27.24
27.84
28.59
29.5
30.53
31.58
32.6
33.55
34.45
35.29
35.98
36.33
36.15
35.3
33.8
31.8
29.47
27.0
24.51
22.12
19.9
17.91
16.09
14.3
12.32
10.01
7.36
4.48
1.58
-1.19
-3.75
-6.19
-8.66
-11.34
-14.42
-17.96
-21.93
-26.21
-30.56
-34.76
-38.75
-42.64
-46.78
-51.57
-57.28
-63.91
-70.93
-77.36
-81.84
-83.01
-79.92
-72.38
-61.08
-47.43
-33.12
-19.65
-8.0
1.49
8.95
14.74
19.22
22.63
25.07
26.59
27.27
27.31
27.01
26.75
26.88
27.58
28.84
30.54
32.49
34.58
36.73
38.86
40.8
42.24
42.84
42.37
40.81
38.33
35.24
31.82
28.26
24.64
21.03
17.46
13.98
10.57
7.19
3.76
0.23
-3.38
-7.0
-10.47
-13.7
-16.57
-19.07
-21.29
-23.45
-25.87
-28.98
-33.2
-38.8
-45.72
-53.48
-61.1
-67.24
-70.48
-69.71
-64.54
-55.43
-43.63
-30.76
-18.35
-7.48
1.42
8.44
13.94
18.34
21.98
25.0
27.41
29.16
30.16
30.44
30.16
29.6
29.1
28.9
29.12
29.73
30.64
31.73
32.89
33.93
34.64
34.73
34.02
32.53
30.49
28.24
26.09
24.2
22.52
20.93
19.25
17.36
15.22
12.84
10.28
7.58
4.88
2.3
-0.07
-2.25
-4.34
-6.56
-9.08
-12.03
-15.33
-18.8
-22.21
-25.4
-28.39
-31.43
-34.91
-39.23
-44.64
-51.1
-58.23
-65.23
-70.99
-74.3
-74.06
-69.67
-61.28
-49.86
-36.92
-24.07
-12.51
-2.79
5.18
11.78
17.42
22.26
26.27
29.33
31.45
32.78
33.61
34.22
34.85
35.64
36.67
37.94
39.42
41.04
42.7
44.32
45.77
46.93
47.64
47.72
47.06
45.61
43.47
40.83
37.91
34.9
31.92
29.02
26.19
23.4
20.63
17.86
15.09
12.36
9.72
7.2
4.77
2.39
0.0
-2.46
-5.07
-7.94
-11.22
-14.98
-19.16
-23.46
-27.52
-31.06
-34.08
-36.9
-40.06
-44.1
-49.35
-55.79
-62.95
-69.97
-75.63
-78.62
-77.87
-72.85
-63.9
-52.1
-39.04
-26.26
-14.87
-5.37
2.28
8.4
13.35
17.36
20.54
22.94
24.66
25.8
26.48
26.88
27.21
27.7
28.6
30.06
32.14
34.74
37.56
40.18
42.15
43.08
42.8
41.39
39.12
36.38
33.51
30.74
28.14
25.68
23.23
20.64
17.8
14.69
11.44
8.24
5.3
2.69
0.32
-2.1
-4.86
-8.11
-11.79
-15.68
-19.55
-23.25
-26.85
-30.52
-34.53
-39.13
-44.59
-51.02
-58.34
-65.98
-72.94
-77.91
-79.57
-77.09
-70.34
-60.04
-47.5
-34.22
-21.53
-10.3
-0.9
6.74
12.93
17.99
22.09
25.23
27.28
28.18
28.08
27.39
26.7
26.58
27.33
29.01
31.4
34.15
36.91
39.38
41.36
42.7
43.33
43.26
42.55
41.34
39.79
38.0
36.03
33.85
31.38
28.57
25.39
21.93
18.33
14.83
11.63
8.91
6.74
5.1
3.87
2.82
1.69
0.22
-1.85
-4.66
-8.26
-12.52
-17.18
-21.94
-26.44
-30.4
-33.73
-36.57
-39.24
-42.2
-45.9
-50.7
-56.68
-63.6
-70.83
-77.3
-81.63
-82.48
-78.94
-70.86
-59.02
-44.91
-30.27
-16.58
-4.75
4.96
12.71
18.81
23.52
27.06
29.65
31.52
33.0
34.28
35.52
36.75
37.95
39.12
40.28
41.49
42.76
44.06
45.27
46.22
46.68
46.46
45.5
43.88
41.82
39.55
37.23
34.91
32.5
29.93
27.24
24.57
22.08
19.84
17.79
15.74
13.5
10.95
8.12
5.1
2.03
-0.98
-3.85
-6.57
-9.18
-11.79
-14.6
-17.76
-21.35
-25.27
-29.32
-33.24
-36.88
-40.3
-43.75
-47.6
-52.23
-57.88
-64.49
-71.54
-78.07
-82.7
-84.08
-81.19
-73.79
-62.47
-48.51
-33.49
-18.8
-5.5
5.86
15.03
21.98
26.87
29.97
31.68
32.46
32.73
32.81
32.87
32.96
33.15
33.46
33.97
34.72
35.72
36.99
38.48
40.14
41.85
43.48
44.86
45.73
45.89
45.11
43.34
40.64
37.27
33.63
30.14
27.04
24.41
22.12
19.83
17.23
14.09
10.38
6.23
1.94
-2.15
-5.8
-8.95
-11.7
-14.31
-17.05
-20.06
-23.29
-26.61
-29.88
-33.07
-36.32
-39.91
-44.16
-49.32
-55.52
-62.65
-70.22
-77.34
-82.72
-85.02
-83.13
-76.57
-65.77
-51.9
-36.6
-21.52
-7.92
3.49
12.52
19.37
24.43
28.1
30.71
32.45
33.45
33.83
33.74
33.46
33.25
33.41
34.06
35.21
36.74
38.45
40.2
41.83
43.23
44.28
44.83
44.74
43.94
42.45
40.44
38.18
35.97
33.98
32.22
30.55
28.78
26.78
24.52
22.09
19.63
17.22
14.89
12.65
10.46
8.28
6.05
3.6
0.85
-2.26
-5.54
-8.73
-11.52
-13.76
-15.6
-17.37
-19.49
-22.24
-25.66
-29.56
-33.63
-37.54
-41.11
-44.36
-47.53
-51.01
-55.31
-60.8
-67.5
-74.95
-82.08
-87.46
-89.59
-87.35
-80.37
-69.14
-54.92
-39.36
-24.11
-10.41
1.1
10.29
17.37
22.61
26.23
28.38
29.22
29.12
28.61
28.27
28.6
29.79
31.74
34.21
36.9
39.59
42.14
44.49
46.59
48.33
49.59
50.23
50.14
49.24
47.56
45.2
42.37
39.33
36.25
33.26
30.36
27.51
24.71
21.99
19.44
17.17
15.2
13.5
11.96
10.39
8.61
6.48
3.96
1.14
-1.75
-4.46
-6.83
-8.85
-10.76
-12.87
-15.43
-18.64
-22.49
-26.81
-31.35
-35.83
-40.06
-43.97
-47.76
-51.79
-56.55
-62.45
-69.67
-77.91
-86.36
-93.67
-98.31
-98.85
-94.36
-84.8
-71.02
-54.65
-37.57
-21.54
-7.66
3.59
12.31
18.9
23.75
27.21
29.51
30.9
31.66
32.16
32.7
33.54
34.79
36.39
38.19
40.0
41.71
43.29
44.84
46.43
48.07
49.58
50.67
50.99
50.34
48.68
46.2
43.15
39.83
36.47
33.19
30.0
26.88
23.71
20.38
16.8
12.94
8.83
4.63
0.48
-3.46
-7.11
-10.54
-13.89
-17.39
-21.19
-25.31
-29.68
-34.03
-38.19
-42.07
-45.79
-49.66
-54.05
-59.31
-65.66
-72.96
-80.69
-87.84
-93.1
-95.05
-92.64
-85.45
-73.94
-59.25
-42.95
-26.57
-11.36
1.91
12.84
21.35
27.54
31.61
33.87
34.71
34.55
33.85
33.1
32.73
33.0
33.98
35.52
37.36
39.31
41.31
43.46
45.82
48.27
50.49
52.02
52.55
52.01
50.61
48.68
46.43
43.9
40.92
37.33
33.08
28.3
23.34
18.58
14.34
10.84
8.07
5.89
4.01
2.17
0.23
-1.83
-3.91
-5.9
-7.75
-9.56
-11.51
-13.78
-16.54
-19.78
-23.43
-27.33
-31.34
-35.33
-39.31
-43.4
-47.82
-52.92
-59.0
-66.27
-74.6
-83.42
-91.57
-97.41
-99.21
-95.69
-86.49
-72.45
-55.34
-37.4
-20.54
-6.0
5.81
15.08
22.21
27.59
31.47
34.07
35.59
36.34
36.65
36.86
37.25
38.02
39.24
40.91
42.94
45.24
47.69
50.24
52.8
55.17
57.09
58.2
58.21
56.99
54.58
51.25
47.31
43.09
38.85
34.76
30.88
27.21
23.67
20.15
16.57
12.92
9.25
5.68
2.3
-0.81
-3.71
-6.55
-9.56
-13.01
-17.06
-21.66
-26.61
-31.58
-36.31
-40.68
-44.87
-49.28
-54.41
-60.74
-68.53
-77.56
-87.1
-95.86
-102.1
-104.1
-100.56
-91.09
-76.42
-58.16
-38.44
-19.31
-2.29
11.76
22.63
30.56
36.01
39.5
41.51
42.43
42.62
42.39
42.02
41.78
41.86
42.37
43.33
44.7
46.45
48.53
50.83
53.11
54.95
55.9
55.57
53.8
50.71
46.59
41.85
36.89
32.02
27.44
23.2
19.22
15.32
11.4
7.46
3.7
0.3
-2.64
-5.3
-8.13
-11.58
-15.94
-21.06
-26.4
-31.35
-35.46
-38.77
-41.8
-45.36
-50.26
-57.03
-65.71
-75.76
-86.03
-94.91
-100.58
-101.41
-96.39
-85.49
-69.7
-50.85
-31.08
-12.36
4.01
17.45
28.03
36.09
42.03
46.11
48.52
49.5
49.39
48.66
47.79
47.12
46.82
46.88
47.25
47.91
48.93
50.38
52.19
54.18
56.0
57.27
57.66
56.98
55.22
52.54
49.26
45.74
42.29
39.04
35.87
32.51
28.7
24.28
19.34
14.19
9.22
4.75
0.9
-2.44
-5.6
-8.91
-12.66
-16.96
-21.74
-26.81
-31.93
-36.96
-41.87
-46.79
-51.95
-57.74
-64.58
-72.83
-82.42
-92.6
-101.8
-107.87
-108.77
-103.24
-91.31
-74.37
-54.68
-34.61
-15.99
0.22
13.81
25.02
34.19
41.53
47.08
50.9
53.1
53.99
53.99
53.6
53.22
53.13
53.43
54.1
55.08
56.31
57.72
59.2
60.58
61.65
62.21
62.1
61.13
59.23
56.36
52.59
48.12
43.29
38.47
33.96
29.94
26.44
23.38
20.65
18.13
15.72
13.32
10.85
8.27
5.58
2.77
-0.28
-3.72
-7.76
-12.48
-17.76
-23.28
-28.63
-33.52
-37.91
-42.08
-46.54
-51.88
-58.64
-67.04
-76.73
-86.7
-95.28
-100.51
-100.67
-94.84
-83.29
-67.37
-49.13
-30.69
-13.73
0.73
12.39
21.39
28.07
32.85
36.09
38.12
39.25
39.83
40.18
40.55
41.11
41.85
42.78
43.85
45.07
46.47
48.01
49.52
50.74
51.33
51.05
49.77
47.57
44.65
41.27
37.69
34.03
30.32
26.46
22.33
17.88
13.23
8.65
4.45
0.81
-2.27
-5.08
-7.98
-11.3
-15.13
-19.34
-23.65
-27.74
-31.46
-34.81
-38.05
-41.61
-46.03
-51.73
-58.85
-66.98
-75.1
-81.69
-85.1
-84.06
-78.0
-67.3
-53.22
-37.51
-21.95
-7.85
4.05
13.67
21.28
27.25
31.84
35.2
37.46
38.75
39.31
39.41
39.3
39.15
39.04
39.05
39.2
39.47
39.81
40.09
40.18
39.91
39.17
37.87
35.95
33.46
30.56
27.48
24.44
21.5
18.55
15.34
11.66
7.51
3.1
-1.21
-5.06
-8.27
-10.95
-13.4
-16.02
-19.12
-22.78
-26.87
-31.09
-35.08
-38.64
-41.8
-44.81
-48.1
-52.12
-57.18
-63.26
-69.9
-76.13
-80.65
-81.98
-79.1
-71.69
-60.41
-46.7
-32.27
-18.69
-6.92
2.75
10.48
16.71
21.79
25.99
29.49
32.34
34.61
36.3
37.48
38.2
38.6
38.82
38.96
39.04
39.02
38.88
38.65
38.38
38.12
37.76
37.14
36.02
34.29
31.95
29.19
26.25
23.38
20.74
18.37
16.25
14.3
12.41
10.54
8.61
6.54
4.3
1.82
-0.87
-3.72
-6.62
-9.45
-12.2
-14.99
-18.03
-21.41
-25.05
-28.67
-31.89
-34.47
-36.52
-38.48
-40.98
-44.6
-49.6
-55.76
-62.43
-68.53
-72.84
-74.17
-71.75
-65.39
-55.67
-43.75
-31.11
-19.11
-8.69
-0.24
6.37
11.49
15.54
18.82
21.49
23.58
25.12
26.25
27.12
27.97
28.94
30.06
31.26
32.41
33.45
34.38
35.27
36.11
36.75
36.95
36.47
35.19
33.19
30.74
28.11
25.51
22.97
20.4
17.66
14.64
11.26
7.56
3.64
-0.25
-3.8
-6.75
-8.99
-10.66
-12.13
-13.83
-16.06
-18.91
-22.18
-25.56
-28.72
-31.46
-33.8
-35.98
-38.37
-41.44
-45.61
-51.1
-57.74
-64.91
-71.46
-75.94
-77.02
-73.86
-66.45
-55.62
-42.87
-29.88
-18.02
-8.08
-0.18
5.99
10.91
14.98
18.43
21.4
23.93
26.06
27.87
29.45
30.82
32.03
33.03
33.81
34.4
34.89
35.46
36.22
37.15
37.99
38.35
37.88
36.38
34.01
31.17
28.36
25.92
23.97
22.31
20.61
18.57
15.99
12.95
9.6
6.26
3.12
0.29
-2.37
-5.09
-8.17
-11.8
-16.01
-20.67
-25.56
-30.44
-35.14
-39.51
-43.59
-47.55
-51.76
-56.66
-62.62
-69.58
-76.92
-83.43
-87.62
-88.15
-84.26
-76.07
-64.5
-51.0
-37.1
-24.06
-12.64
-3.06
4.77
11.16
16.42
20.78
24.4
27.38
29.84
31.94
33.78
35.46
36.98
38.36
39.6
40.76
41.89
43.02
44.04
44.8
45.16
45.03
44.41
43.36
41.95
40.23
38.26
36.1
33.83
31.5
29.1
26.46
23.42
19.88
15.87
11.59
7.35
3.36
-0.21
-3.32
-5.99
-8.33
-10.56
-12.92
-15.68
-18.93
-22.53
-26.19
-29.49
-32.19
-34.37
-36.42
-38.97
-42.63
-47.81
-54.55
-62.39
-70.39
-77.22
-81.32
-81.35
-76.54
-67.02
-53.81
-38.59
-23.2
-9.14
2.69
12.06
19.19
24.55
28.61
31.75
34.2
36.11
37.57
38.6
39.27
39.73
40.21
40.93
42.07
43.61
45.41
47.19
48.73
49.94
50.77
51.16
50.97
49.95
47.88
44.76
40.89
36.75
32.87
29.56
26.79
24.27
21.54
18.25
14.32
9.9
5.36
1.07
-2.76
-6.15
-9.32
-12.58
-16.23
-20.38
-24.96
-29.73
-34.34
-38.46
-41.91
-44.75
-47.32
-50.17
-53.97
-59.25
-66.14
-74.2
-82.3
-88.75
-91.8
-90.11
-83.22
-71.7
-56.97
-40.83
-24.92
-10.37
2.26
12.83
21.36
27.94
32.68
35.88
37.89
39.19
40.18
41.08
42.03
43.07
44.23
45.56
47.08
48.78
50.55
52.21
53.56
54.35
54.4
53.58
51.89
49.44
46.44
43.11
39.59
35.87
31.85
27.38
22.39
16.98
11.38
5.94
0.94
-3.46
-7.38
-11.09
-14.95
-19.25
-24.05
-29.16
-34.17
-38.71
-42.6
-45.97
-49.3
-53.2
-58.3
-65.0
-73.23
-82.35
-91.02
-97.46
-99.9
-97.03
-88.49
-75.03
-58.22
-40.05
-22.34
-6.33
7.37
18.73
27.99
35.47
41.4
45.95
49.21
51.32
52.53
53.18
53.65
54.24
55.15
56.44
58.1
60.08
62.32
64.7
66.96
68.73
69.57
69.15
67.34
64.3
60.34
55.84
51.04
46.0
40.65
34.97
29.06
23.22
17.83
13.23
9.5
6.47
3.76
0.93
-2.34
-6.17
-10.42
-14.86
-19.25
-23.42
-27.31
-31.01
-34.59
-38.15
-41.62
-44.96
-48.06
-50.94
-53.81
-57.04
-61.13
-66.6
-73.75
-82.5
-92.2
-101.55
-108.78
-112.01
-109.75
-101.43
-87.61
-69.9
-50.41
-31.23
-13.86
0.9
12.93
22.46
29.81
35.3
39.18
41.76
43.44
44.67
45.88
47.34
49.19
51.37
53.72
56.1
58.38
60.48
62.32
63.68
64.36
64.2
63.16
61.36
59.0
56.23
53.11
49.64
45.81
41.73
37.56
33.35
29.05
24.44
19.41
14.02
8.65
3.75
-0.32
-3.47
-5.96
-8.22
-10.7
-13.75
-17.49
-21.87
-26.6
-31.3
-35.62
-39.33
-42.54
-45.7
-49.47
-54.58
-61.44
-70.03
-79.71
-89.15
-96.5
-99.86
-97.69
-89.45
-75.73
-58.15
-38.85
-19.85
-2.6
12.08
23.99
33.21
39.96
44.59
47.5
49.17
50.04
50.5
50.78
51.06
51.42
51.89
52.47
53.1
53.76
54.42
55.06
55.65
56.07
56.13
55.56
54.15
51.81
48.59
44.67
40.3
35.73
31.14
26.61
22.08
17.43
12.54
7.43
2.33
-2.48
-6.79
-10.61
-14.15
-17.77
-21.7
-25.94
-30.23
-34.24
-37.83
-41.15
-44.76
-49.34
-55.56
-63.77
-73.76
-84.68
-95.01
-102.83
-106.28
-104.05
-95.81
-82.34
-65.3
-46.7
-28.36
-11.6
2.94
15.12
25.03
32.8
38.53
42.38
44.64
45.74
46.16
46.37
46.6
46.9
47.2
47.44
47.65
47.98
48.58
49.44
50.39
51.09
51.19
50.44
48.79
46.37
43.4
40.18
36.94
33.87
31.03
28.38
25.77
23.07
20.2
17.13
13.89
10.5
7.03
3.58
0.28
-2.81
-5.68
-8.49
-11.53
-15.01
-18.98
-23.25
-27.55
-31.61
-35.32
-38.79
-42.3
-46.27
-51.1
-57.17
-64.65
-73.28
-82.21
-89.96
-94.74
-94.88
-89.36
-78.19
-62.49
-44.13
-25.28
-7.81
7.03
18.77
27.56
33.85
38.09
40.57
41.47
41.0
39.57
37.75
36.21
35.46
35.73
36.89
38.61
40.5
42.27
43.78
45.04
46.03
46.74
46.99
46.63
45.5
43.6
41.06
38.14
35.08
31.98
28.77
25.31
21.46
17.27
12.85
8.46
4.32
0.54
-2.84
-5.89
-8.7
-11.36
-13.94
-16.56
-19.25
-22.14
-25.28
-28.74
-32.47
-36.35
-40.18
-43.77
-47.12
-50.54
-54.63
-60.08
-67.25
-75.92
-85.04
-92.96
-97.75
-97.84
-92.46
-81.85
-67.18
-50.22
-32.8
-16.45
-2.14
9.71
19.05
26.09
31.12
34.47
36.52
37.66
38.26
38.61
38.89
39.12
39.36
39.71
40.34
41.49
43.34
45.87
48.85
51.8
54.15
55.4
55.22
53.56
50.67
47.0
42.95
38.8
34.61
30.24
25.59
20.66
15.6
10.66
6.08
1.95
-1.84
-5.49
-9.25
-13.29
-17.62
-22.15
-26.67
-31.06
-35.25
-39.4
-43.81
-48.91
-55.03
-62.28
-70.29
-78.23
-84.79
-88.44
-87.84
-82.27
-71.93
-57.95
-42.1
-26.25
-11.84
0.4
10.41
18.54
25.13
30.41
34.39
37.04
38.41
38.69
38.32
37.75
37.41
37.57
38.25
39.3
40.52
41.82
43.21
44.78
46.49
48.08
49.09
49.01
47.59
44.92
41.41
37.59
33.83
30.28
26.89
23.49
19.96
16.23
12.31
8.23
4.09
0.08
-3.56
-6.61
-8.99
-10.81
-12.42
-14.21
-16.59
-19.83
-23.96
-28.78
-33.9
-38.9
-43.51
-47.71
-51.82
-56.4
-61.99
-68.93
-77.02
-85.47
-92.93
-97.74
-98.37
-93.87
-84.19
-70.27
-53.75
-36.56
-20.35
-6.24
5.34
14.48
21.56
27.06
31.35
34.72
37.32
39.25
40.65
41.7
42.58
43.45
44.34
45.27
46.24
47.3
48.58
50.13
51.83
53.41
54.42
54.51
53.45
51.29
48.24
44.63
40.71
36.69
32.68
28.69
24.73
20.83
17.05
13.54
10.47
7.91
5.81
4.0
2.22
0.34
-1.61
-3.48
-5.18
-6.71
-8.28
-10.21
-12.68
-15.75
-19.32
-23.23
-27.36
-31.64
-36.0
-40.38
-44.76
-49.31
-54.41
-60.55
-68.07
-76.76
-85.67
-93.16
-97.31
-96.58
-90.35
-79.14
-64.43
-48.19
-32.22
-17.73
-5.29
5.05
13.45
20.07
25.0
28.33
30.22
30.95
30.87
30.32
29.66
29.19
29.15
29.73
31.05
33.06
35.62
38.48
41.34
43.89
45.86
46.96
47.0
45.91
43.8
40.96
37.79
34.64
31.66
28.77
25.69
22.16
18.09
13.64
9.19
5.14
1.72
-1.14
-3.77
-6.6
-9.99
-14.08
-18.75
-23.65
-28.42
-32.82
-36.82
-40.64
-44.68
-49.46
-55.4
-62.65
-70.86
-79.11
-86.0
-89.86
-89.32
-83.62
-73.02
-58.71
-42.44
-26.12
-11.23
1.34
11.39
19.11
24.87
29.05
31.93
33.8
34.97
35.77
36.47
37.24
38.12
39.02
39.82
40.47
41.03
41.65
42.53
43.82
45.46
47.19
48.55
49.03
48.34
46.4
43.45
39.9
36.16
32.49
28.99
25.65
22.35
18.95
15.39
11.59
7.57
3.4
-0.78
-4.86
-8.71
-12.33
-15.74
-19.05
-22.37
-25.84
-29.5
-33.33
-37.17
-40.86
-44.27
-47.45
-50.7
-54.52
-59.45
-65.85
-73.6
-81.9
-89.36
-94.2
-94.76
-90.02
-79.97
-65.64
-48.75
-31.29
-14.92
-0.72
10.97
20.23
27.42
32.91
37.03
40.0
41.97
43.08
43.44
43.21
42.65
42.09
41.82
42.04
42.81
44.05
45.64
47.44
49.32
51.1
52.56
53.38
53.34
52.28
50.24
47.43
44.14
40.68
37.29
34.1
31.08
28.11
24.94
21.4
17.46
13.29
9.17
5.43
2.22
-0.49
-2.92
-5.39
-8.19
-11.52
-15.43
-19.8
-24.42
-29.01
-33.36
-37.38
-41.22
-45.23
-49.86
-55.59
-62.76
-71.39
-80.96
-90.3
-97.68
-101.13
-99.08
-90.96
-77.41
-60.22
-41.63
-23.76
-8.02
5.02
15.42
23.55
29.82
34.57
38.07
40.55
42.24
43.28
43.79
43.83
43.47
42.86
42.21
41.74
41.67
42.16
43.2
44.58
45.97
46.9
47.01
46.08
44.07
41.07
37.31
32.99
28.36
23.67
19.17
15.08
11.44
8.18
5.09
1.96
-1.33
-4.78
-8.32
-11.87
-15.38
-18.8
-22.17
-25.5
-28.88
-32.52
-36.74
-41.91
-48.35
-56.1
-64.74
-73.33
-80.42
-84.41
-83.96
-78.38
-67.96
-53.89
-37.93
-21.94
-7.37
4.98
14.89
22.57
28.34
32.48
35.18
36.64
37.11
36.97
36.65
36.49
36.62
37.0
37.46
37.89
38.32
38.98
40.07
41.66
43.51
45.13
45.96
45.61
44.02
41.38
38.1
34.59
31.12
27.8
24.54
21.17
17.49
13.38
8.94
4.41
0.08
-3.87
-7.5
-11.09
-14.99
-19.41
-24.29
-29.36
-34.24
-38.71
-42.77
-46.66
-50.71
-55.31
-60.8
-67.41
-75.1
-83.32
-91.0
-96.61
-98.52
-95.48
-87.08
-73.87
-57.24
-39.03
-21.04
-4.65
9.38
20.85
29.95
37.04
42.41
46.24
48.67
49.92
50.25
50.08
49.78
49.58
49.59
49.85
50.32
50.93
51.58
52.17
52.55
52.61
52.24
51.35
49.86
47.69
44.91
41.67
38.27
35.04
32.15
29.62
27.25
24.8
22.01
18.81
15.25
11.47
7.73
4.24
1.15
-1.56
-4.08
-6.75
-9.88
-13.64
-18.01
-22.75
-27.52
-32.07
-36.25
-40.09
-43.86
-48.02
-53.17
-59.73
-67.71
-76.4
-84.39
-89.83
-91.01
-86.91
-77.51
-63.87
-47.73
-31.0
-15.27
-1.54
9.87
19.09
26.41
32.13
36.4
39.39
41.28
42.4
43.13
43.81
44.58
45.44
46.31
47.17
48.08
49.19
50.58
52.19
53.77
55.02
55.6
55.32
54.08
51.95
49.06
45.59
41.76
37.72
33.53
29.11
24.38
19.22
13.7
8.06
2.64
-2.19
-6.24
-9.59
-12.58
-15.7
-19.42
-23.89
-28.94
-34.05
-38.61
-42.25
-45.01
-47.42
-50.25
-54.28
-60.01
-67.49
-76.21
-85.07
-92.51
-96.76
-96.25
-90.14
-78.65
-63.08
-45.45
-27.86
-11.92
1.55
12.45
21.14
28.08
33.6
37.86
40.85
42.63
43.37
43.38
43.07
42.85
42.97
43.49
44.33
45.36
46.56
47.95
49.47
50.94
51.98
52.18
51.25
49.11
45.91
41.92
37.33
32.3
26.84
21.01
14.9
8.69
2.62
-3.1
-8.35
-13.14
-17.61
-21.94
-26.28
-30.57
-34.62
-38.19
-41.13
-43.47
-45.48
-47.57
-50.27
-54.11
-59.52
-66.64
-75.04
-83.54
-90.38
-93.62
-91.83
-84.55
-72.58
-57.58
-41.57
-26.24
-12.66
-1.16
8.38
16.3
22.91
28.41
32.87
36.32
38.76
40.26
40.97
41.1
40.93
40.74
40.78
41.24
42.26
43.77
45.54
47.22
48.43
48.91
48.58
47.52
45.87
43.7
41.05
37.94
34.52
30.95
27.48
24.28
21.34
18.52
15.64
12.56
9.32
6.11
3.2
0.82
-0.95
-2.31
-3.7
-5.56
-8.31
-12.06
-16.65
-21.77
-27.12
-32.52
-37.89
-43.22
-48.55
-53.99
-59.9
-66.77
-74.98
-84.35
-93.85
-101.71
-105.79
-104.36
-96.78
-83.62
-66.52
-47.52
-28.54
-10.99
4.33
17.09
27.28
35.01
40.51
44.07
46.11
47.11
47.56
47.85
48.28
48.92
49.74
50.56
51.3
51.93
52.56
53.37
54.43
55.66
56.75
57.25
56.7
54.85
51.66
47.42
42.58
37.59
32.72
28.09
23.68
19.46
15.44
11.63
7.96
4.31
0.56
-3.34
-7.33
-11.34
-15.32
-19.35
-23.59
-28.13
-32.91
-37.71
-42.21
-46.17
-49.63
-52.77
-56.01
-59.82
-64.67
-70.87
-78.41
-86.76
-94.77
-100.74
-102.84
-99.64
-90.63
-76.38
-58.49
-39.06
-20.13
-3.17
11.07
22.56
31.63
38.69
44.0
47.66
49.73
50.39
50.04
49.21
48.43
48.02
48.09
48.56
49.32
50.34
51.62
53.11
54.59
55.65
55.83
54.81
52.52
49.22
45.34
41.31
37.36
33.46
29.34
24.74
19.54
13.91
8.22
2.9
-1.77
-5.83
-9.53
-13.25
-17.26
-21.61
-26.18
-30.72
-35.03
-39.02
-42.79
-46.62
-50.89
-56.02
-62.34
-69.87
-78.11
-85.98
-91.94
-94.27
-91.6
-83.38
-70.1
-53.24
-34.84
