0
-5.98
-3.23
-0.7
1.74
4.11
6.3
8.19
9.74
11.02
12.21
13.51
15.01
16.68
18.35
19.78
20.82
21.43
21.69
21.7
21.57
21.27
20.74
19.91
18.81
17.54
16.29
15.2
14.31
13.54
12.72
11.71
10.45
8.96
7.38
5.88
4.55
3.46
2.54
1.68
0.74
-0.39
-1.77
-3.35
-5.0
-6.57
-7.97
-9.22
-10.45
-11.85
-13.59
-15.74
-18.29
-21.17
-24.2
-27.12
-29.53
-30.97
-31.01
-29.48
-26.49
-22.54
-18.27
-14.25
-10.81
-7.95
-5.44
-3.07
-0.74
1.44
3.3
4.75
5.8
6.64
7.43
8.28
9.2
10.15
11.09
12.02
13.0
14.03
15.08
16.04
16.76
17.16
17.18
16.81
16.09
15.08
13.89
12.67
11.61
10.86
10.45
10.3
10.22
9.99
9.5
8.77
7.91
7.09
6.36
5.69
4.97
4.07
2.98
1.76
0.53
-0.71
-2.03
-3.58
-5.48
-7.75
-10.28
-12.92
-15.54
-18.08
-20.52
-22.76
-24.62
-25.79
-25.96
-24.93
-22.75
-19.69
-16.15
-12.57
-9.27
-6.4
-3.92
-1.77
0.13
1.74
2.99
3.85
4.4
4.84
5.44
6.39
7.75
9.4
11.16
12.81
14.25
15.43
16.38
17.06
17.39
17.25
16.58
15.42
13.98
12.53
11.29
10.37
9.68
9.04
8.28
7.32
6.19
4.98
3.7
2.35
0.88
-0.71
-2.33
-3.94
-5.49
-7.04
-8.7
-10.56
-12.62
-14.86
-17.24
-19.76
-22.45
-25.23
-27.93
-30.18
-31.57
-31.7
-30.39
-27.71
-24.02
-19.84
-15.69
-11.94
-8.72
-5.9
-3.32
-0.84
1.54
3.71
5.59
7.24
8.81
10.54
12.56
14.9
17.42
19.95
22.29
24.27
25.78
26.73
27.09
26.89
26.19
25.08
23.69
22.11
20.46
18.85
17.32
15.91
14.58
13.3
12.0
10.69
9.36
7.99
6.55
5.05
3.5
1.99
0.59
-0.7
-1.97
-3.36
-5.03
-7.01
-9.25
-11.61
-13.93
-16.15
-18.28
-20.41
-22.67
-25.16
-27.88
-30.69
-33.25
-35.15
-35.92
-35.3
-33.26
-30.06
-26.16
-22.04
-18.11
-14.61
-11.66
-9.25
-7.32
-5.69
-4.14
-2.46
-0.49
1.74
4.11
6.43
8.58
10.55
12.4
14.18
15.83
17.22
18.19
18.66
18.71
18.49
18.16
17.83
17.53
17.22
16.83
16.36
15.79
15.19
14.61
14.08
13.54
12.89
12.02
10.87
9.47
7.91
6.33
4.79
3.26
1.68
-0.05
-1.93
-3.87
-5.78
-7.54
-9.09
-10.4
-11.49
-12.42
-13.34
-14.47
-15.98
-17.99
-20.33
-22.66
-24.45
-25.15
-24.43
-22.26
-18.97
-15.1
-11.21
-7.71
-4.74
-2.21
-0.0
1.96
3.66
5.05
6.15
7.12
8.14
9.37
10.81
12.33
13.75
14.97
15.97
16.78
17.44
17.96
18.28
18.33
18.06
17.5
16.71
15.78
14.76
13.67
12.51
11.29
10.1
9.09
8.39
8.03
7.88
7.72
7.34
6.67
5.78
4.83
3.91
2.96
1.84
0.43
-1.26
-3.13
-5.04
-6.93
-8.87
-10.98
-13.37
-16.03
-18.86
-21.65
-24.14
-25.99
-26.84
-26.4
-24.57
-21.49
-17.56
-13.29
-9.16
-5.47
-2.3
0.35
2.51
4.16
5.26
5.8
5.9
5.76
5.67
5.89
6.55
7.62
8.94
10.28
11.44
12.34
13.05
13.66
14.22
14.68
14.85
14.55
13.69
12.36
10.81
9.33
8.13
7.28
6.66
6.06
5.26
4.1
2.55
0.67
-1.41
-3.54
-5.62
-7.65
-9.66
-11.68
-13.78
-15.96
-18.25
-20.64
-23.11
-25.51
-27.63
-29.12
-29.61
-28.78
-26.52
-22.99
-18.58
-13.83
-9.25
-5.19
-1.81
0.92
3.1
4.84
6.25
7.43
8.46
9.46
10.51
11.65
12.86
14.1
15.32
16.43
17.4
18.17
18.7
18.99
19.02
18.78
18.26
17.44
16.34
15.06
13.76
12.56
11.53
10.62
9.71
8.73
7.62
6.43
5.22
3.99
2.66
1.12
-0.76
-3.0
-5.49
-8.03
-10.37
-12.36
-14.04
-15.57
-17.25
-19.33
-21.93
-24.94
-28.11
-31.03
-33.23
-34.27
-33.84
-31.81
-28.31
-23.72
-18.63
-13.61
-9.15
-5.45
-2.44
0.07
2.33
4.46
6.47
8.28
9.81
11.05
12.1
13.11
14.26
15.61
17.15
18.7
20.09
21.1
21.63
21.68
21.3
20.61
19.68
18.56
17.25
15.83
14.4
13.09
12.04
11.27
10.63
9.88
8.86
7.54
6.08
4.76
3.74
3.04
2.46
1.68
0.47
-1.2
-3.18
-5.21
-7.06
-8.64
-10.02
-11.45
-13.22
-15.59
-18.66
-22.27
-26.02
-29.33
-31.58
-32.33
-31.4
-28.96
-25.42
-21.3
-17.12
-13.24
-9.83
-6.91
-4.35
-2.09
-0.04
1.76
3.28
4.53
5.61
6.68
7.9
9.32
10.87
12.41
13.8
14.96
15.88
16.6
17.14
17.51
17.68
17.62
17.3
16.72
15.88
14.84
13.65
12.35
10.99
9.64
8.31
7.07
5.92
4.84
3.7
2.36
0.68
-1.36
-3.67
-6.05
-8.29
-10.27
-12.01
-13.65
-15.39
-17.42
-19.75
-22.24
-24.56
-26.29
-27.01
-26.48
-24.7
-21.89
-18.43
-14.66
-10.86
-7.17
-3.7
-0.54
2.19
4.42
6.14
7.44
8.44
9.24
9.95
10.61
11.33
12.17
13.24
14.52
15.88
17.15
18.08
18.48
18.29
17.52
16.32
14.89
13.4
11.97
10.68
9.52
8.44
7.39
6.33
5.26
4.2
3.17
2.12
1.0
-0.29
-1.8
-3.54
-5.43
-7.32
-9.11
-10.74
-12.3
-13.9
-15.72
-17.87
-20.43
-23.41
-26.69
-29.97
-32.79
-34.55
-34.72
-33.0
-29.46
-24.56
-18.97
-13.36
-8.29
-4.04
-0.63
2.03
4.15
5.98
7.69
9.39
11.1
12.76
14.29
15.62
16.73
17.62
18.34
18.95
19.47
19.96
20.41
20.81
21.07
21.1
20.77
20.0
18.8
17.29
15.69
14.26
13.19
12.52
12.13
11.79
11.23
10.32
9.05
7.6
6.15
4.88
3.83
2.9
1.93
0.73
-0.83
-2.76
-4.97
-7.33
-9.73
-12.11
-14.46
-16.8
-19.18
-21.68
-24.32
-27.12
-29.93
-32.4
-34.04
-34.3
-32.86
-29.73
-25.3
-20.2
-15.04
-10.29
-6.1
-2.43
0.85
3.82
6.47
8.68
10.33
11.4
12.02
12.48
13.08
14.03
15.39
17.08
18.86
20.52
21.88
22.82
23.29
23.3
22.89
22.17
21.25
20.24
19.19
18.13
17.04
15.96
14.95
14.08
13.38
12.8
12.2
11.44
10.42
9.1
7.54
5.85
4.14
2.49
0.93
-0.6
-2.19
-3.9
-5.71
-7.5
-9.11
-10.49
-11.72
-13.02
-14.57
-16.47
-18.65
-20.91
-23.08
-25.09
-26.98
-28.72
-30.16
-30.89
-30.45
-28.53
-25.16
-20.73
-15.86
-11.18
-7.07
-3.69
-0.99
1.15
2.84
4.18
5.24
6.14
7.0
7.92
8.95
10.12
11.43
12.9
14.51
16.17
17.7
18.88
19.59
19.81
19.64
19.25
18.7
17.99
17.05
15.88
14.58
13.33
12.3
11.52
10.93
10.36
9.66
8.73
7.52
6.06
4.39
2.59
0.73
-1.12
-2.94
-4.79
-6.75
-8.84
-10.99
-13.05
-14.9
-16.5
-17.97
-19.53
-21.39
-23.62
-26.07
-28.36
-30.0
-30.54
-29.72
-27.53
-24.24
-20.25
-15.96
-11.69
-7.64
-3.93
-0.63
2.18
4.46
6.24
7.63
8.75
9.72
10.63
11.53
12.48
13.57
14.85
16.28
17.68
18.86
19.64
19.94
19.82
19.42
18.82
18.02
16.92
15.44
13.67
11.82
10.22
9.16
8.68
8.57
8.45
7.97
6.97
5.59
4.11
2.86
1.96
1.34
0.74
-0.11
-1.39
-3.12
-5.18
-7.37
-9.56
-11.67
-13.76
-15.93
-18.29
-20.9
-23.76
-26.74
-29.63
-32.14
-33.91
-34.59
-33.94
-31.9
-28.6
-24.39
-19.68
-14.92
-10.42
-6.38
-2.86
0.17
2.79
5.08
7.06
8.7
9.98
10.95
11.77
12.72
14.09
15.97
18.28
20.69
22.8
24.33
25.22
25.54
25.51
25.24
24.8
24.15
23.24
22.05
20.62
19.04
17.44
15.91
14.52
13.22
11.87
10.36
8.64
6.77
4.93
3.26
1.79
0.43
-0.99
-2.58
-4.37
-6.27
-8.14
-9.86
-11.39
-12.75
-14.01
-15.24
-16.54
-18.01
-19.73
-21.78
-24.18
-26.91
-29.8
-32.52
-34.59
-35.44
-34.66
-32.11
-28.08
-23.15
-17.99
-13.17
-8.99
-5.5
-2.59
-0.07
2.16
4.14
5.86
7.27
8.35
9.16
9.78
10.39
11.14
12.12
13.3
14.56
15.73
16.68
17.35
17.72
17.83
17.72
17.39
16.88
16.18
15.35
14.45
13.57
12.8
12.23
11.84
11.57
11.27
10.77
9.97
8.84
7.47
5.95
4.4
2.9
1.49
0.16
-1.12
-2.4
-3.74
-5.16
-6.66
-8.18
-9.69
-11.17
-12.65
-14.19
-15.89
-17.82
-20.02
-22.4
-24.77
-26.79
-28.08
-28.28
-27.17
-24.76
-21.31
-17.2
-12.88
-8.7
-4.88
-1.54
1.25
3.45
5.05
6.09
6.69
7.07
7.5
8.16
9.12
10.35
11.68
12.99
14.16
15.13
15.86
16.32
16.46
16.24
15.7
14.91
13.96
12.87
11.65
10.29
8.82
7.35
6.01
4.85
3.83
2.84
1.76
0.51
-0.87
-2.25
-3.57
-4.81
-6.03
-7.3
-8.66
-10.05
-11.41
-12.68
-13.92
-15.26
-16.88
-18.9
-21.28
-23.81
-26.07
-27.57
-27.85
-26.63
-23.87
-19.85
-15.03
-10.01
-5.3
-1.28
1.91
4.3
6.06
7.36
8.36
9.15
9.82
10.43
11.11
11.94
12.96
14.17
15.48
16.77
17.91
18.81
19.45
19.8
19.88
19.66
19.12
18.23
17.04
15.64
14.21
12.91
11.82
10.93
10.11
9.24
8.24
7.13
5.99
4.88
3.8
2.71
1.49
0.04
-1.71
-3.73
-5.94
-8.18
-10.3
-12.14
-13.66
-14.95
-16.25
-17.82
-19.89
-22.49
-25.45
-28.37
-30.71
-31.95
-31.71
-29.83
-26.46
-22.06
-17.2
-12.5
-8.38
-5.0
-2.27
0.09
2.35
4.65
6.94
9.05
10.78
12.02
12.83
13.43
14.12
15.11
16.46
18.06
19.67
21.07
22.11
22.69
22.78
22.38
21.44
19.99
18.17
16.2
14.41
13.06
12.31
12.11
12.26
12.47
12.42
11.84
10.62
8.79
6.56
4.26
2.19
0.56
-0.61
-1.5
-2.37
-3.49
-4.98
-6.83
-8.88
-10.96
-12.93
-14.77
-16.51
-18.24
-20.1
-22.16
-24.5
-27.05
-29.6
-31.77
-33.07
-33.01
-31.37
-28.23
-24.02
-19.34
-14.76
-10.58
-6.86
-3.5
-0.41
2.4
4.8
6.65
7.92
8.75
9.38
10.07
11.0
12.2
13.59
15.02
16.36
17.49
18.33
18.89
19.2
19.3
19.25
19.04
18.62
17.92
16.95
15.78
14.56
13.45
12.5
11.66
10.81
9.84
8.69
7.42
6.12
4.91
3.87
3.02
2.32
1.66
0.89
-0.15
-1.53
-3.21
-5.02
-6.75
-8.28
-9.64
-10.99
-12.54
-14.42
-16.65
-19.11
-21.57
-23.74
-25.28
-25.85
-25.22
-23.34
-20.37
-16.66
-12.66
-8.76
-5.24
-2.25
0.15
1.96
3.19
3.88
4.1
4.01
3.82
3.78
4.12
5.0
6.41
8.18
10.04
11.72
13.03
13.94
14.5
14.79
14.86
14.69
14.27
13.6
12.76
11.83
10.88
9.98
9.16
8.45
7.83
7.24
6.59
5.77
4.69
3.28
1.57
-0.41
-2.57
-4.78
-6.96
-9.01
-10.94
-12.81
-14.71
-16.7
-18.84
-21.11
-23.5
-25.96
-28.36
-30.41
-31.68
-31.67
-30.02
-26.72
-22.14
-16.98
-11.97
-7.67
-4.31
-1.8
0.15
1.86
3.55
5.3
7.04
8.67
10.11
11.4
12.65
13.99
15.47
17.06
18.61
19.95
20.97
21.66
22.05
22.19
22.05
21.55
20.62
19.3
17.74
16.22
14.97
14.12
13.6
13.2
12.65
11.81
10.63
9.21
7.68
6.1
4.49
2.76
0.85
-1.25
-3.5
-5.83
-8.12
-10.26
-12.18
-13.9
-15.51
-17.23
-19.27
-21.79
-24.75
-27.87
-30.69
-32.65
-33.25
-32.18
-29.45
-25.4
-20.6
-15.71
-11.31
-7.72
-4.95
-2.73
-0.73
1.3
3.41
5.47
7.29
8.74
9.87
10.82
11.77
12.86
14.14
15.59
17.1
18.57
19.86
20.84
21.41
21.5
21.11
20.28
19.07
17.6
16.0
14.44
13.09
12.07
11.4
10.99
10.67
10.25
9.58
8.62
7.4
6.01
4.55
3.08
1.54
-0.15
-2.09
-4.31
-6.71
-9.09
-11.19
-12.85
-14.08
-15.07
-16.09
-17.41
-19.2
-21.44
-23.95
-26.44
-28.52
-29.8
-29.93
-28.72
-26.23
-22.76
-18.79
-14.8
-11.12
-7.84
-4.92
-2.24
0.25
2.49
4.4
5.9
6.99
7.77
8.38
9.01
9.81
10.91
12.29
13.85
15.39
16.68
17.62
18.21
18.49
18.49
18.16
17.41
16.23
14.76
13.27
12.01
11.1
10.5
10.02
9.49
8.83
8.13
7.49
7.04
6.74
6.48
6.07
5.36
4.26
2.79
1.04
-0.88
-2.92
-5.06
-7.3
-9.58
-11.81
-13.87
-15.74
-17.46
-19.06
-20.5
-21.55
-21.84
-21.07
-19.14
-16.26
-12.86
-9.39
-6.19
-3.38
-0.95
1.09
2.69
3.8
4.39
4.55
4.47
4.41
4.56
5.1
6.06
7.44
9.1
10.89
12.6
14.03
15.08
15.68
15.92
15.91
15.79
15.62
15.37
14.92
14.14
12.98
11.51
9.92
8.41
7.06
5.77
4.36
2.69
0.73
-1.41
-3.56
-5.59
-7.46
-9.2
-10.86
-12.46
-14.02
-15.56
-17.12
-18.78
-20.6
-22.63
-24.81
-26.97
-28.77
-29.76
-29.52
-27.83
-24.78
-20.83
-16.62
-12.73
-9.47
-6.8
-4.44
-2.06
0.49
3.13
5.56
7.47
8.67
9.21
9.31
9.35
9.65
10.44
11.76
13.52
15.53
17.58
19.5
21.13
22.34
23.04
23.16
22.72
21.85
20.74
19.64
18.73
18.09
17.63
17.11
16.28
14.91
12.94
10.5
7.85
5.3
3.06
1.2
-0.35
-1.7
-2.97
-4.18
-5.36
-6.57
-7.94
-9.62
-11.69
-14.14
-16.81
-19.54
-22.22
-24.83
-27.36
-29.72
-31.62
-32.66
-32.49
-30.97
-28.21
-24.57
-20.49
-16.34
-12.4
-8.8
-5.63
-2.92
-0.64
1.26
2.88
4.31
5.59
6.75
7.85
8.99
10.3
11.84
13.58
15.33
16.85
17.88
18.29
18.11
17.47
16.53
15.44
14.31
13.21
12.22
11.4
10.81
10.42
10.18
9.93
9.53
8.88
7.95
6.85
5.69
4.62
3.66
2.8
1.89
0.81
-0.58
-2.34
-4.43
-6.72
-9.01
-11.12
-12.92
-14.38
-15.61
-16.8
-18.16
-19.87
-22.02
-24.51
-27.08
-29.29
-30.61
-30.59
-29.05
-26.15
-22.32
-18.15
-14.12
-10.5
-7.32
-4.47
-1.84
0.56
2.65
4.35
5.63
6.6
7.45
8.36
9.5
10.87
12.41
13.97
15.42
16.65
17.63
18.37
18.87
19.07
18.92
18.36
17.42
16.2
14.83
13.45
12.17
11.03
10.0
9.04
8.08
7.06
6.0
4.95
3.99
3.12
2.28
1.35
0.17
-1.3
-3.0
-4.81
-6.58
-8.22
-9.77
-11.32
-12.93
-14.71
-16.66
-18.78
-20.98
-23.01
-24.5
-24.98
-24.12
-21.83
-18.34
-14.19
-10.0
-6.23
-3.13
-0.7
1.24
2.82
4.14
5.21
6.05
6.73
7.38
8.14
9.12
10.31
11.58
12.76
13.71
14.37
14.77
15.01
15.18
15.29
15.32
15.18
14.78
14.06
13.01
11.69
10.22
8.75
7.42
6.36
5.58
5.04
4.63
4.18
3.51
2.46
0.97
-0.89
-2.98
-5.1
-7.13
-8.97
-10.66
-12.31
-14.04
-16.0
-18.3
-20.99
-23.98
-27.07
-29.84
-31.8
-32.5
-31.61
-29.14
-25.37
-20.82
-16.08
-11.64
-7.79
-4.56
-1.86
0.49
2.58
4.4
5.91
7.1
8.04
8.89
9.82
10.96
12.31
13.79
15.26
16.62
17.79
18.76
19.55
20.17
20.6
20.75
20.54
19.89
18.81
17.43
15.97
14.62
13.53
12.68
11.97
11.27
10.45
9.5
8.44
7.32
6.17
4.95
3.59
2.03
0.22
-1.8
-3.93
-6.02
-8.01
-9.86
-11.66
-13.54
-15.64
-18.03
-20.69
-23.5
-26.25
-28.68
-30.47
-31.3
-30.92
-29.24
-26.42
-22.85
-19.03
-15.41
-12.25
-9.54
-7.09
-4.64
-2.03
0.76
3.52
6.0
7.97
9.41
10.45
11.37
12.44
13.82
15.45
17.16
18.69
19.88
20.63
21.01
21.14
21.08
20.83
20.26
19.24
17.76
16.02
14.36
13.13
12.51
12.42
12.56
12.55
12.16
11.34
10.18
8.84
7.38
5.77
3.95
1.9
-0.3
-2.54
-4.69
-6.72
-8.61
-10.4
-12.12
-13.78
-15.42
-17.1
-18.89
-20.9
-23.2
-25.75
-28.32
-30.56
-32.03
-32.31
-31.2
-28.74
-25.23
-21.1
-16.8
-12.65
-8.83
-5.37
-2.27
0.52
2.99
5.1
6.81
8.1
9.03
9.76
10.49
11.39
12.54
13.88
15.27
16.56
17.64
18.5
19.14
19.58
19.74
19.56
18.97
17.96
16.62
15.12
13.6
12.2
10.96
9.86
8.85
7.88
6.93
5.98
5.03
4.05
2.95
1.63
0.02
-1.85
-3.88
-5.88
-7.73
-9.39
-10.98
-12.65
-14.55
-16.7
-19.01
-21.29
-23.37
-25.03
-26.09
-26.33
-25.54
-23.63
-20.71
-17.08
-13.2
-9.45
-6.04
-2.98
-0.17
2.45
4.77
6.62
7.84
8.4
8.45
8.29
8.22
8.5
9.27
10.55
12.19
14.0
15.68
16.97
17.67
17.71
17.18
16.24
15.1
13.95
12.97
12.23
11.73
11.36
10.99
10.46
9.72
8.75
7.62
6.37
5.02
3.6
2.12
0.62
-0.87
-2.36
-3.9
-5.56
-7.39
-9.4
-11.59
-13.95
-16.49
-19.24
-22.16
-25.2
-28.15
-30.76
-32.66
-33.46
-32.84
-30.65
-27.09
-22.6
-17.82
-13.31
-9.41
-6.13
-3.26
-0.52
2.25
5.01
7.59
9.77
11.43
12.65
13.63
14.71
16.16
18.1
20.4
22.79
24.88
26.36
27.11
27.14
26.62
25.69
24.46
22.95
21.17
19.2
17.19
15.36
13.89
12.83
12.07
11.38
10.47
9.17
7.46
5.51
3.57
1.83
0.34
-1.02
-2.48
-4.19
-6.16
-8.27
-10.3
-12.1
-13.7
-15.25
-16.98
-19.06
-21.51
-24.17
-26.82
-29.14
-30.85
-31.66
-31.32
-29.71
-26.89
-23.14
-18.93
-14.76
-11.03
-7.9
-5.27
-2.93
-0.66
1.65
3.91
5.96
7.62
8.84
9.7
10.45
11.35
12.57
14.15
15.92
17.64
19.06
20.0
20.41
20.33
19.86
19.07
18.06
16.87
15.62
14.42
13.42
12.73
12.31
12.02
11.62
10.91
9.85
8.58
7.35
6.39
5.74
5.22
4.51
3.35
1.62
-0.6
-3.05
-5.47
-7.66
-9.59
-11.29
-12.88
-14.5
-16.27
-18.27
-20.54
-22.96
-25.3
-27.15
-28.06
-27.68
-25.89
-22.86
-18.99
-14.84
-10.92
-7.55
-4.83
-2.65
-0.83
0.78
2.19
3.35
4.15
4.6
4.87
5.22
5.94
7.17
8.81
10.6
12.2
13.4
14.14
14.58
14.9
15.21
15.48
15.53
15.18
14.32
13.01
11.44
9.87
8.47
7.34
6.44
5.68
4.93
4.09
3.09
1.89
0.51
-1.06
-2.78
-4.65
-6.62
-8.67
-10.72
-12.74
-14.7
-16.68
-18.83
-21.29
-24.01
-26.73
-28.95
-30.07
-29.67
-27.66
-24.31
-20.15
-15.75
-11.52
-7.62
-4.06
-0.78
2.22
4.84
6.95
8.53
9.68
10.61
11.53
12.6
13.83
15.15
16.46
17.63
18.59
19.29
19.69
19.77
19.58
19.16
18.58
17.83
16.91
15.8
14.53
13.24
12.08
11.2
10.59
10.12
9.56
8.71
7.48
5.97
4.43
3.08
2.05
1.25
0.45
-0.67
-2.32
-4.54
-7.19
-10.04
-12.87
-15.55
-18.11
-20.67
-23.37
-26.33
-29.49
-32.6
-35.18
-36.68
-36.59
-34.68
-31.12
-26.42
-21.27
-16.32
-11.95
-8.19
-4.89
-1.81
1.17
4.02
6.61
8.82
10.62
12.04
13.19
14.13
14.94
15.69
16.42
17.2
18.02
18.81
19.45
19.81
19.83
19.53
18.99
18.26
17.4
16.4
15.32
14.26
13.36
12.73
12.35
12.07
11.67
10.96
9.87
8.5
7.03
5.65
4.45
3.42
2.42
1.27
-0.21
-2.05
-4.15
-6.31
-8.31
-10.0
-11.43
-12.79
-14.35
-16.33
-18.82
-21.71
-24.72
-27.47
-29.57
-30.73
-30.76
-29.65
-27.5
-24.49
-20.86
-16.89
-12.85
-9.02
-5.6
-2.68
-0.21
1.9
3.76
5.35
6.65
7.63
8.37
9.08
9.97
11.22
12.78
14.49
16.09
17.34
18.12
18.44
18.42
18.19
17.88
17.54
17.12
16.54
15.72
14.69
13.56
12.49
11.56
10.75
9.92
8.95
7.8
6.53
5.27
4.12
3.05
1.97
0.7
-0.86
-2.76
-4.9
-7.16
-9.39
-11.48
-13.4
-15.22
-17.05
-19.01
-21.14
-23.31
-25.29
-26.77
-27.41
-27.01
-25.5
-23.0
-19.72
-15.94
-11.9
-7.82
-3.87
-0.21
3.01
5.66
7.69
9.08
9.9
10.25
10.3
10.26
10.33
10.67
11.37
12.39
13.59
14.76
15.75
16.49
16.91
16.97
16.59
15.72
14.45
13.04
11.85
11.2
11.18
11.55
11.95
11.96
11.38
10.22
8.67
6.92
5.14
3.41
1.76
0.19
-1.33
-2.94
-4.75
-6.83
-9.12
-11.44
-13.53
-15.23
-16.55
-17.73
-19.1
-20.92
-23.24
-25.89
-28.45
-30.41
-31.28
-30.71
-28.59
-25.1
-20.63
-15.8
-11.17
-7.14
-3.86
-1.21
1.07
3.2
5.26
7.17
8.77
10.0
11.0
12.0
13.23
14.79
16.55
18.22
19.48
20.15
20.22
19.88
19.37
18.89
18.55
18.31
18.06
17.64
16.95
15.98
14.83
13.62
12.51
11.53
10.65
9.8
8.89
7.89
6.84
5.79
4.79
3.8
2.74
1.5
-0.04
-1.88
-3.97
-6.19
-8.39
-10.42
-12.18
-13.66
-14.93
-16.2
-17.68
-19.6
-22.04
-24.9
-27.85
-30.4
-32.03
-32.28
-30.92
-28.02
-23.92
-19.19
-14.45
-10.25
-6.82
-4.12
-1.87
0.25
2.45
4.69
6.75
8.4
9.49
10.05
10.31
10.57
11.08
11.95
13.15
14.47
15.72
16.67
17.26
17.51
17.51
17.31
16.88
16.17
15.17
13.97
12.77
11.83
11.28
11.07
11.0
10.77
10.19
9.19
7.85
6.3
4.71
3.18
1.74
0.36
-1.03
-2.52
-4.14
-5.88
-7.64
-9.33
-10.89
-12.33
-13.73
-15.2
-16.85
-18.78
-21.04
-23.59
-26.24
-28.61
-30.16
-30.42
-29.15
-26.45
-22.75
-18.63
-14.6
-10.96
-7.79
-5.0
-2.49
-0.22
1.78
3.48
4.9
6.1
7.19
8.24
9.27
10.28
11.24
12.14
13.02
13.88
14.72
15.49
16.12
16.52
16.65
16.46
15.91
15.0
13.78
12.39
11.06
10.01
9.35
9.07
8.96
8.75
8.23
7.33
6.13
4.8
3.47
2.19
0.89
-0.51
-2.09
-3.87
-5.83
-7.88
-9.95
-12.01
-14.04
-16.07
-18.13
-20.21
-22.27
-24.15
-25.58
-26.3
-26.06
-24.78
-22.55
-19.6
-16.24
-12.76
-9.4
-6.29
-3.49
-1.01
1.13
2.92
4.36
5.45
6.27
6.98
7.74
8.73
10.05
11.68
13.48
15.26
16.82
17.99
18.72
19.0
18.88
18.41
17.64
16.61
15.34
13.9
12.4
10.99
9.74
8.67
7.72
6.74
5.62
4.34
2.93
1.49
0.11
-1.24
-2.63
-4.12
-5.74
-7.42
-9.1
-10.77
-12.49
-14.39
-16.59
-19.15
-22.01
-25.0
-27.83
-30.09
-31.36
-31.29
-29.71
-26.74
-22.79
-18.45
-14.26
-10.55
-7.36
-4.54
-1.85
0.89
3.67
6.37
8.76
10.63
11.88
12.62
13.08
13.57
14.33
15.41
16.67
17.89
18.88
19.55
19.93
20.06
19.95
19.5
18.66
17.45
16.04
14.64
13.45
12.53
11.84
11.22
10.52
9.61
8.47
7.17
5.8
4.48
3.26
2.12
0.95
-0.35
-1.84
-3.5
-5.23
-6.94
-8.57
-10.15
-11.74
-13.43
-15.33
-17.54
-20.1
-22.96
-25.9
-28.55
-30.46
-31.21
-30.57
-28.55
-25.39
-21.5
-17.32
-13.19
-9.33
-5.86
-2.81
-0.17
2.08
3.97
5.58
6.99
8.31
9.6
10.91
12.26
13.67
15.1
16.51
17.8
18.86
19.6
19.99
20.09
19.93
19.57
19.05
18.36
17.54
16.63
15.7
14.79
13.88
12.91
11.83
10.61
9.31
8.02
6.83
5.79
4.88
4.0
3.02
1.86
0.49
-1.03
-2.57
-4.01
-5.32
-6.56
-7.87
-9.4
-11.24
-13.36
-15.67
-18.05
-20.41
-22.73
-24.96
-26.94
-28.39
-28.94
-28.28
-26.29
-23.18
-19.35
-15.36
-11.65
-8.43
-5.66
-3.2
-0.9
1.26
3.16
4.66
5.62
6.12
6.34
6.59
7.13
8.1
9.46
11.03
12.52
13.65
14.29
14.46
14.3
14.0
13.7
13.4
13.01
12.47
11.75
10.95
10.23
9.69
9.33
9.06
8.69
8.08
7.23
6.23
5.2
4.23
3.29
2.31
1.17
-0.17
-1.73
-3.44
-5.25
-7.11
-9.04
-11.06
-13.22
-15.57
-18.13
-20.89
-23.73
-26.4
-28.56
-29.76
-29.65
-28.09
-25.19
-21.34
-17.06
-12.84
-9.02
-5.73
-2.91
-0.46
1.73
3.69
5.44
6.94
8.21
9.3
10.27
11.23
12.26
13.42
14.74
16.16
17.6
18.89
19.86
20.39
20.42
19.96
19.11
18.01
16.78
15.59
14.5
13.59
12.9
12.43
12.13
11.87
11.51
10.86
9.84
8.46
6.86
5.25
3.75
2.38
1.04
-0.43
-2.15
-4.08
-6.08
-7.97
-9.63
-11.07
-12.41
-13.83
-15.44
-17.3
-19.39
-21.69
-24.16
-26.7
-29.09
-30.92
-31.74
-31.13
-29.0
-25.55
-21.31
-16.89
-12.77
-9.22
-6.2
-3.51
-0.95
1.54
3.89
5.92
7.51
8.7
9.62
10.54
11.67
13.14
14.91
16.83
18.66
20.13
21.04
21.28
20.91
20.09
19.08
18.08
17.23
16.52
15.88
15.2
14.44
13.6
12.71
11.81
10.9
9.97
9.03
8.06
7.11
6.19
5.32
4.52
3.77
3.02
2.17
1.1
-0.26
-1.87
-3.64
-5.42
-7.11
-8.73
-10.35
-12.06
-13.95
-16.04
-18.34
-20.82
-23.41
-25.95
-28.15
-29.63
-29.98
-28.98
-26.63
-23.2
-19.14
-14.94
-10.99
-7.56
-4.75
-2.53
-0.81
0.56
1.72
2.75
3.69
4.58
5.45
6.39
7.51
8.88
10.48
12.17
13.71
14.95
15.84
16.48
17.05
17.66
18.25
18.63
18.54
17.82
16.52
14.86
13.16
11.68
10.55
9.76
9.16
8.62
8.02
7.34
6.61
5.87
5.12
4.31
3.37
2.23
0.9
-0.59
-2.15
-3.73
-5.26
-6.76
-8.28
-9.9
-11.68
-13.68
-15.88
-18.21
-20.57
-22.77
-24.6
-25.79
-26.06
-25.19
-23.11
-19.96
-16.07
-11.89
-7.88
-4.36
-1.49
0.79
2.58
4.03
5.19
6.1
6.76
7.25
7.73
8.38
9.4
10.86
12.61
14.4
15.9
16.87
17.23
17.07
16.58
15.95
15.3
14.68
14.08
13.5
12.93
12.38
11.85
11.31
10.7
9.94
8.95
7.65
6.09
4.41
2.8
1.42
0.31
-0.65
-1.73
-3.16
-5.05
-7.3
-9.68
-11.96
-13.98
-15.76
-17.46
-19.3
-21.44
-23.88
-26.41
-28.59
-29.87
-29.78
-28.13
-25.05
-21.04
-16.71
-12.57
-8.93
-5.8
-3.04
-0.51
1.86
4.04
5.96
7.56
8.83
9.84
10.68
11.48
12.35
13.38
14.59
15.93
17.24
18.35
19.13
19.51
19.56
19.34
18.94
18.33
17.46
16.28
14.85
13.32
11.92
10.85
10.22
9.95
9.86
9.76
9.5
8.99
8.21
7.19
5.98
4.65
3.32
2.1
1.02
0.04
-0.98
-2.18
-3.68
-5.47
-7.44
-9.44
-11.39
-13.28
-15.16
-17.05
-18.97
-20.93
-22.96
-25.11
-27.38
-29.61
-31.43
-32.33
-31.87
-29.88
-26.55
-22.4
-18.02
-13.87
-10.18
-6.95
-4.06
-1.42
0.96
3.06
4.81
6.23
7.4
8.44
9.48
10.63
11.93
13.33
14.76
16.07
17.17
17.99
18.51
18.74
18.73
18.54
18.19
17.78
17.33
16.93
16.59
16.29
15.96
15.48
14.75
13.68
12.36
10.97
9.75
8.89
8.35
7.95
7.4
6.48
5.13
3.49
1.77
0.15
-1.29
-2.6
-3.85
-5.13
-6.47
-7.85
-9.26
-10.67
-12.06
-13.42
-14.81
-16.33
-18.15
-20.43
-23.2
-26.29
-29.31
-31.76
-33.19
-33.27
-31.95
-29.38
-25.88
-21.83
-17.67
-13.78
-10.48
-7.91
-6.01
-4.59
-3.35
-2.06
-0.58
1.1
2.89
4.73
6.56
8.36
10.1
11.71
13.11
14.23
15.04
15.57
15.89
16.06
16.14
16.12
15.91
15.39
14.51
13.3
12.01
10.93
10.31
10.18
10.39
10.64
10.67
10.34
9.69
8.84
7.91
7.0
6.11
5.24
4.32
3.29
2.08
0.64
-0.99
-2.71
-4.43
-6.04
-7.55
-9.02
-10.57
-12.3
-14.23
-16.26
-18.22
-19.87
-21.0
-21.44
-21.14
-20.07
-18.31
-15.96
-13.15
-10.11
-7.06
-4.26
-1.9
-0.08
1.26
2.25
3.04
3.77
4.45
5.11
5.76
6.46
7.3
8.39
9.75
11.31
12.85
14.13
14.93
15.19
14.95
14.38
13.62
12.77
11.83
10.8
9.69
8.59
7.59
6.74
5.98
5.16
4.13
2.85
1.41
-0.0
-1.16
-1.95
-2.47
-2.96
-3.72
-4.94
-6.64
-8.62
-10.59
-12.35
-13.84
-15.19
-16.62
-18.3
-20.21
-22.08
-23.49
-23.97
-23.24
-21.26
-18.32
-14.85
-11.27
-7.89
-4.79
-1.95
0.66
3.0
4.94
6.37
7.24
7.63
7.69
7.66
7.74
8.13
8.94
10.21
11.81
13.47
14.91
15.91
16.44
16.62
16.6
16.52
16.35
15.99
15.32
14.33
13.15
12.03
11.16
10.62
10.3
9.94
9.31
8.28
6.92
5.45
4.1
3.02
2.14
1.3
0.28
-1.03
-2.63
-4.41
-6.26
-8.09
-9.9
-11.72
-13.61
-15.61
-17.77
-20.09
-22.55
-25.04
-27.35
-29.19
-30.14
-29.87
-28.18
-25.18
-21.26
-16.97
-12.81
-9.1
-5.87
-3.0
-0.34
2.12
4.27
5.98
7.16
7.9
8.44
9.05
10.01
11.4
13.17
15.12
16.93
18.33
19.18
19.5
19.42
19.12
18.7
18.13
17.35
16.31
15.1
13.87
12.84
12.16
11.82
11.7
11.58
11.22
10.46
9.28
7.78
6.14
4.58
3.2
1.96
0.71
-0.74
-2.47
-4.44
-6.48
-8.38
-10.01
-11.36
-12.56
-13.79
-15.23
-16.99
-19.11
-21.53
-24.09
-26.51
-28.4
-29.3
-28.82
-26.82
-23.47
-19.29
-14.93
-11.01
-7.84
-5.44
-3.57
-1.92
-0.32
1.23
2.59
3.68
4.53
5.32
6.26
7.5
9.02
10.65
12.19
13.5
14.56
15.37
15.99
16.38
16.52
16.35
15.91
15.24
14.41
13.44
12.37
11.26
10.27
9.58
9.26
9.23
9.24
8.99
8.3
7.23
6.0
4.85
3.9
3.09
2.25
1.21
-0.05
-1.44
-2.78
-3.99
-5.09
-6.26
-7.71
-9.61
-11.95
-14.63
-17.44
-20.15
-22.6
-24.62
-26.03
-26.6
-26.09
-24.4
-21.63
-18.11
-14.33
-10.72
-7.56
-4.86
-2.51
-0.37
1.59
3.3
4.64
5.53
6.02
6.26
6.5
6.93
7.68
8.78
10.12
11.54
12.87
13.97
14.74
15.12
15.06
14.55
13.64
12.46
11.21
10.08
9.22
8.63
8.18
7.71
7.07
6.2
5.12
3.91
2.65
1.39
0.16
-1.05
-2.22
-3.36
-4.49
-5.67
-6.92
-8.31
-9.87
-11.64
-13.59
-15.7
-17.9
-20.05
-21.91
-23.18
-23.55
-22.82
-20.97
-18.19
-14.83
-11.25
-7.73
-4.46
-1.49
1.13
3.35
5.12
6.42
7.23
7.66
7.81
7.83
7.85
8.02
8.45
9.25
10.42
11.85
13.4
14.88
16.1
16.94
17.32
17.25
16.75
15.93
14.92
13.84
12.79
11.8
10.9
10.05
9.25
8.44
7.53
6.39
4.94
3.17
1.22
-0.7
-2.37
-3.73
-4.89
-6.07
-7.51
-9.29
-11.37
-13.62
-15.91
-18.24
-20.66
-23.17
-25.64
-27.71
-28.88
-28.69
-26.96
-23.83
-19.8
-15.52
-11.58
-8.29
-5.65
-3.41
-1.26
1.03
3.45
5.87
8.05
9.83
11.2
12.27
13.21
14.18
15.23
16.32
17.36
18.27
19.01
19.56
19.93
20.08
19.91
19.32
18.29
16.89
15.3
13.74
12.42
11.42
10.68
10.04
9.36
8.5
7.44
6.22
4.91
3.58
2.27
1.02
-0.2
-1.45
-2.81
-4.38
-6.16
-8.09
