0
27.12
27.68
28.3
28.68
28.58
28.0
27.29
27.11
28.18
30.92
35.07
39.74
43.64
45.58
44.91
41.66
36.4
29.91
22.88
15.82
9.11
3.1
-1.93
-5.93
-9.1
-11.87
-14.68
-17.8
-21.34
-25.35
-30.0
-35.53
-42.01
-48.98
-55.36
-59.66
-60.47
-57.04
-49.53
-38.97
-26.76
-14.28
-2.49
8.07
17.21
24.9
31.12
35.84
39.08
40.92
41.61
41.5
41.01
40.47
39.99
39.35
38.22
36.36
33.93
31.57
30.12
30.19
31.81
34.18
35.94
35.66
32.43
26.18
17.66
8.18
-0.93
-8.7
-14.7
-19.05
-22.2
-24.79
-27.44
-30.72
-35.11
-40.92
-48.07
-55.89
-63.09
-67.96
-68.9
-65.02
-56.56
-44.82
-31.67
-18.92
-7.77
1.36
8.66
14.47
19.02
22.35
24.49
25.66
26.38
27.27
28.85
31.29
34.29
37.28
39.59
40.66
40.13
37.87
34.03
29.05
23.76
19.19
16.33
15.73
17.2
19.79
22.11
22.75
20.74
15.83
8.41
-0.63
-10.26
-19.56
-27.9
-34.99
-40.89
-45.98
-50.83
-55.98
-61.76
-68.0
-73.96
-78.36
-79.75
-76.97
-69.61
-58.19
-44.17
-29.36
-15.44
-3.46
6.23
13.82
19.66
24.02
27.02
28.75
29.47
29.63
29.73
30.15
30.96
31.91
32.61
32.7
32.06
30.8
29.21
27.51
25.84
24.15
22.32
20.26
17.95
15.44
12.77
9.91
6.75
3.15
-0.89
-5.27
-9.63
-13.6
-16.91
-19.52
-21.71
-23.95
-26.83
-30.87
-36.29
-42.91
-49.95
-56.17
-59.98
-59.99
-55.39
-46.3
-33.74
-19.39
-4.99
8.07
19.05
27.79
34.47
39.3
42.43
43.99
44.19
43.51
42.58
41.99
42.12
42.88
43.82
44.33
43.95
42.58
40.51
38.21
36.07
34.21
32.43
30.33
27.55
23.85
19.24
13.96
8.34
2.74
-2.52
-7.24
-11.38
-15.07
-18.56
-22.2
-26.33
-31.21
-36.83
-42.88
-48.61
-52.9
-54.54
-52.6
-46.79
-37.64
-26.36
-14.43
-3.15
6.66
14.71
21.05
25.79
29.01
30.78
31.28
30.77
29.67
28.36
27.17
26.27
25.77
25.62
25.65
25.58
25.08
23.92
22.05
19.6
16.81
13.86
10.79
7.58
4.17
0.6
-3.02
-6.55
-9.96
-13.33
-16.85
-20.63
-24.68
-28.87
-33.03
-37.15
-41.41
-46.14
-51.57
-57.54
-63.33
-67.68
-69.17
-66.71
-59.99
-49.59
-36.82
-23.3
-10.45
0.83
10.18
17.63
23.39
27.63
30.41
31.82
32.05
31.45
30.5
29.61
29.03
28.76
28.64
28.46
28.1
27.52
26.76
25.76
24.37
22.37
19.64
16.18
12.18
7.93
3.68
-0.38
-4.19
-7.8
-11.28
-14.7
-18.1
-21.48
-24.75
-27.87
-30.84
-33.79
-36.96
-40.7
-45.27
-50.63
-56.34
-61.48
-64.8
-65.06
-61.41
-53.68
-42.55
-29.32
-15.5
-2.38
9.26
19.21
27.53
34.33
39.54
42.99
44.61
44.59
43.48
41.99
40.69
39.87
39.46
39.21
38.85
38.3
37.56
36.7
35.73
34.55
33.12
31.34
29.16
26.51
23.31
19.54
15.27
10.76
6.35
2.34
-1.15
-4.21
-7.1
-10.13
-13.64
-17.91
-23.11
-29.14
-35.51
-41.28
-45.24
-46.27
-43.76
-37.84
-29.32
-19.34
-9.0
0.93
10.02
18.02
24.63
29.48
32.25
32.91
31.82
29.72
27.44
25.64
24.66
24.41
24.57
24.73
24.55
23.83
22.53
20.75
18.66
16.36
13.86
11.05
7.74
3.83
-0.6
-5.26
-9.76
-13.82
-17.32
-20.39
-23.22
-25.98
-28.81
-31.85
-35.38
-39.76
-45.19
-51.45
-57.67
-62.48
-64.35
-62.21
-55.8
-45.85
-33.75
-21.08
-9.13
1.38
10.26
17.67
23.81
28.72
32.31
34.42
35.06
34.51
33.23
31.75
30.49
29.59
29.01
28.58
28.1
27.46
26.55
25.3
23.61
21.44
18.82
15.82
12.51
8.85
4.74
0.11
-4.89
-9.92
-14.53
-18.4
-21.53
-24.26
-27.09
-30.52
-34.89
-40.27
-46.53
-53.26
-59.78
-65.09
-68.01
-67.46
-62.9
-54.57
-43.45
-31.01
-18.68
-7.44
2.25
10.39
17.1
22.45
26.41
28.94
30.15
30.36
30.04
29.66
29.52
29.65
29.93
30.13
30.09
29.75
29.15
28.36
27.36
26.06
24.29
21.91
18.91
15.39
11.55
7.62
3.8
0.2
-3.16
-6.3
-9.32
-12.36
-15.55
-19.07
-23.04
-27.57
-32.73
-38.4
-44.22
-49.51
-53.28
-54.44
-52.17
-46.19
-36.92
-25.42
-12.99
-0.84
10.21
19.78
27.74
34.02
38.47
41.01
41.72
41.04
39.7
38.5
38.03
38.45
39.47
40.54
41.12
40.89
39.82
38.13
36.06
33.82
31.38
28.59
25.23
21.11
16.26
10.95
5.63
0.76
-3.42
-6.95
-10.22
-13.72
-17.91
-23.05
-29.21
-36.22
-43.57
-50.4
-55.55
-57.74
-56.1
-50.43
-41.38
-30.22
-18.41
-7.05
3.22
12.21
19.83
25.91
30.13
32.28
32.38
30.91
28.61
26.29
24.58
23.73
23.64
23.93
24.14
23.96
23.26
22.13
20.77
19.31
17.76
15.96
13.64
10.58
6.69
2.1
-2.89
-7.91
-12.65
-16.92
-20.76
-24.35
-28.02
-32.09
-36.84
-42.45
-48.87
-55.75
-62.34
-67.52
-69.98
-68.64
-62.99
-53.38
-40.93
-27.26
-13.91
-2.0
8.03
16.24
22.89
28.17
32.06
34.41
35.19
34.64
33.28
31.75
30.56
29.93
29.74
29.7
29.46
28.84
27.77
26.25
24.36
22.14
19.63
16.81
13.64
10.01
5.78
0.93
-4.4
-9.85
-14.99
-19.46
-23.15
-26.21
-28.98
-31.86
-35.25
-39.51
-44.8
-51.06
-57.75
-63.78
-67.7
-68.05
-63.96
-55.42
-43.42
-29.57
-15.56
-2.68
8.42
17.65
25.17
31.14
35.64
38.62
40.11
40.33
39.69
38.73
37.93
37.54
37.46
37.36
36.83
35.64
33.88
31.92
30.2
28.91
27.92
26.71
24.7
21.47
17.06
11.91
6.67
1.98
-1.8
-4.7
-7.1
-9.48
-12.34
-15.94
-20.36
-25.4
-30.71
-35.75
-39.83
-42.11
-41.76
-38.16
-31.19
-21.36
-9.74
2.33
13.63
23.29
30.91
36.39
39.74
41.08
40.59
38.72
36.15
33.63
31.78
30.84
30.58
30.49
30.02
28.82
26.84
24.29
21.55
18.92
16.59
14.5
12.35
9.75
6.35
2.04
-2.94
-8.1
-12.85
-16.79
-19.9
-22.53
-25.25
-28.71
-33.31
-39.17
-45.96
-52.91
-58.87
-62.53
-62.72
-58.8
-50.88
-39.84
-27.1
-14.17
-2.24
8.03
16.49
23.16
28.13
31.34
32.79
32.63
31.34
29.63
28.21
27.56
27.72
28.29
28.73
28.58
27.62
25.97
23.93
21.84
19.88
18.05
16.12
13.81
10.85
7.15
2.8
-1.93
-6.73
-11.31
-15.5
-19.28
-22.8
-26.29
-30.04
-34.35
-39.46
-45.42
-51.95
-58.35
-63.53
-66.25
-65.46
-60.65
-52.01
-40.47
-27.38
-14.18
-2.01
8.45
16.97
23.59
28.4
31.46
32.83
32.74
31.63
30.11
28.78
28.02
27.83
27.9
27.77
27.07
25.66
23.68
21.33
18.87
16.43
14.05
11.67
9.21
6.56
3.64
0.41
-3.15
-6.96
-10.9
-14.82
-18.52
-21.81
-24.58
-26.89
-29.05
-31.59
-35.13
-40.04
-46.2
-52.84
-58.58
-61.88
-61.46
-56.77
-48.12
-36.56
-23.47
-10.2
2.25
13.28
22.62
30.13
35.71
39.35
41.14
41.43
40.75
39.71
38.84
38.43
38.47
38.7
38.78
38.4
37.42
35.93
34.15
32.33
30.63
29.03
27.3
25.13
22.26
18.62
14.38
9.9
5.61
1.82
-1.39
-4.19
-6.95
-10.08
-13.96
-18.78
-24.51
-30.83
-37.13
-42.52
-45.93
-46.4
-43.29
-36.57
-26.94
-15.63
-4.07
6.52
15.36
22.19
27.06
30.16
31.65
31.72
30.66
28.96
27.16
25.76
25.0
24.75
24.63
24.12
22.85
20.68
17.81
14.67
11.74
9.36
7.48
5.72
3.53
0.46
-3.53
-8.07
-12.53
-16.42
-19.62
-22.43
-25.35
-28.87
-33.29
-38.65
-44.8
-51.31
-57.45
-62.2
-64.4
-63.09
-57.94
-49.38
-38.46
-26.52
-14.7
-3.71
6.13
14.7
21.84
27.3
30.78
32.2
31.79
30.14
28.07
26.37
25.57
25.72
26.46
27.15
27.23
26.42
24.84
22.82
20.72
18.67
16.53
14.01
10.82
6.86
2.27
-2.65
-7.59
-12.26
-16.54
-20.39
-23.95
-27.47
-31.33
-35.94
-41.59
-48.26
-55.49
-62.32
-67.48
-69.74
-68.27
-62.94
-54.31
-43.4
-31.36
-19.13
-7.35
3.54
13.2
21.23
27.21
30.92
32.49
32.41
31.49
30.53
30.15
30.56
31.59
32.81
33.7
33.84
33.03
31.37
29.1
26.55
23.98
21.43
18.8
15.86
12.46
8.59
4.48
0.44
-3.19
-6.29
-8.92
-11.32
-13.77
-16.58
-19.97
-24.05
-28.82
-34.02
-38.99
-42.78
-44.25
-42.47
-37.03
-28.25
-17.06
-4.74
7.49
18.66
28.15
35.64
40.94
44.01
44.96
44.18
42.3
40.1
38.31
37.34
37.28
37.8
38.34
38.33
37.36
35.28
32.25
28.55
24.51
20.34
16.11
11.8
7.47
3.27
-0.5
-3.63
-6.08
-8.1
-10.15
-12.76
-16.37
-21.18
-27.19
-34.18
-41.69
-48.99
-55.04
-58.69
-58.93
-55.27
-47.85
-37.56
-25.65
-13.49
-2.13
7.76
15.96
22.47
27.37
30.74
32.58
33.02
32.32
30.95
29.48
28.39
27.92
27.96
28.16
28.1
27.48
26.21
24.36
22.06
19.42
16.54
13.52
10.44
7.32
4.12
0.77
-2.77
-6.43
-9.98
-13.18
-15.93
-18.38
-20.84
-23.71
-27.28
-31.73
-37.11
-43.35
-50.21
-57.08
-62.97
-66.56
-66.66
-62.57
-54.44
-43.28
-30.58
-17.83
-6.06
4.29
13.24
20.94
27.4
32.46
35.89
37.69
38.17
37.91
37.57
37.64
38.28
39.37
40.61
41.75
42.7
43.53
44.37
45.27
46.1
46.67
46.81
46.55
46.11
45.88
46.14
46.96
48.09
49.16
49.83
50.11
50.41
51.4
53.75
57.69
62.81
67.88
71.12
70.53
64.44
51.89
33.01
9.0
-18.13
-45.93
-72.09
-94.89
-113.49
-127.88
-138.68
-146.62
-152.21
-155.53
-156.27
-154.08
-148.83
-140.87
-130.88
-119.63
-107.74
-95.53
-83.09
-70.47
-57.87
-45.67
-34.31
-24.0
-14.74
-6.25
1.7
9.16
15.97
21.81
26.5
30.08
32.81
35.01
36.85
38.24
38.91
38.57
37.1
34.63
31.48
28.11
24.85
21.88
19.11
16.22
12.75
8.19
2.25
-5.01
-12.97
-20.54
-26.33
-29.06
-27.9
-22.82
-14.56
-4.39
6.25
16.2
24.74
31.67
37.07
41.08
43.79
45.2
45.34
44.42
42.84
41.13
39.78
39.0
38.7
38.5
37.99
36.9
35.26
33.35
31.47
29.73
27.98
25.87
23.09
19.55
15.47
11.25
7.29
3.74
0.45
-2.92
-6.7
-11.0
-15.63
-20.19
-24.23
-27.49
-30.02
-32.22
-34.63
-37.86
-42.3
-48.02
-54.68
-61.47
-67.27
-70.81
-70.98
-67.15
-59.45
-48.75
-36.42
-23.94
-12.36
-2.16
6.67
14.36
21.02
26.43
30.23
32.16
32.38
31.43
30.08
28.99
28.43
28.29
28.26
28.11
27.79
27.38
26.97
26.55
25.92
24.86
23.23
21.04
18.42
15.58
12.73
10.01
7.49
5.14
2.84
0.39
-2.37
-5.5
-8.88
-12.32
-15.6
-18.63
-21.44
-24.1
-26.7
-29.32
-32.12
-35.4
-39.55
-44.72
-50.64
-56.33
-60.33
-61.14
-57.79
-50.23
-39.35
-26.62
-13.52
-1.16
9.87
19.42
27.52
34.15
39.23
42.67
44.54
45.13
44.95
44.64
44.75
45.62
47.2
49.11
50.77
51.66
51.49
50.33
48.45
46.15
43.59
40.69
37.27
33.2
28.52
23.47
18.3
13.25
8.41
3.79
-0.59
-4.72
-8.6
-12.33
-16.05
-19.95
-24.21
-29.0
-34.43
-40.48
-46.9
-53.02
-57.79
-60.01
-58.66
-53.36
-44.55
-33.33
-21.1
-9.15
1.62
10.72
18.01
23.43
27.0
28.75
28.91
27.88
26.24
24.64
23.61
23.4
23.94
24.82
25.56
25.77
25.25
24.05
22.32
20.25
17.91
15.3
12.42
9.35
6.2
3.09
0.05
-3.03
-6.31
-9.91
-13.77
-17.72
-21.52
-25.01
-28.2
-31.32
-34.68
-38.71
-43.75
-49.94
-57.01
-64.22
-70.28
-73.74
-73.39
-68.79
-60.38
-49.36
-37.22
-25.23
-14.14
-4.16
4.72
12.5
18.98
23.87
26.96
28.3
28.28
27.52
26.68
26.26
26.49
27.29
28.37
29.43
30.2
30.55
30.42
29.78
28.51
26.55
23.93
20.86
17.71
14.86
12.55
10.71
8.91
6.65
3.59
-0.3
-4.67
-9.06
-13.07
-16.55
-19.67
-22.74
-26.17
-30.3
-35.31
-41.16
-47.35
-52.94
-56.6
-57.0
-53.2
-45.11
-33.58
-20.16
-6.56
5.87
16.45
25.11
32.18
37.97
42.57
45.89
47.82
48.42
48.06
47.28
46.61
46.32
46.36
46.4
46.05
45.02
43.3
41.04
38.44
35.66
32.7
29.45
25.84
21.79
17.35
12.59
7.64
2.62
-2.3
-6.92
-11.04
-14.6
-17.73
-20.83
-24.45
-29.09
-34.95
-41.69
-48.48
-54.14
-57.42
-57.41
-53.68
-46.38
-36.25
-24.36
-11.9
0.02
10.59
19.32
26.04
30.75
33.57
34.67
34.33
32.94
31.02
29.09
27.57
26.65
26.26
26.23
26.3
26.28
26.0
25.29
24.02
22.07
19.41
16.15
12.54
8.83
5.19
1.67
-1.83
-5.47
-9.35
-13.52
-17.85
-22.12
-26.09
-29.56
-32.54
-35.28
-38.26
-41.98
-46.85
-52.82
-59.32
-65.25
-69.31
-70.28
-67.44
-60.7
-50.64
-38.34
-25.08
-12.07
-0.3
9.64
17.52
23.35
27.3
29.56
30.36
29.98
28.85
27.43
26.16
25.32
24.9
24.68
24.4
23.89
23.2
22.52
22.01
21.65
21.19
20.28
18.61
16.11
13.01
9.68
6.56
3.84
1.51
-0.69
-3.1
-5.9
-9.06
-12.3
-15.3
-17.82
-19.84
-21.62
-23.53
-25.95
-29.21
-33.47
-38.76
-44.83
-51.11
-56.63
-60.11
-60.27
-56.34
-48.34
-37.15
-24.23
-11.14
0.99
11.62
20.71
28.44
34.86
39.87
43.24
44.86
44.89
43.82
42.27
40.84
39.97
39.84
40.35
41.29
42.33
43.14
43.5
43.2
42.15
40.28
37.59
34.17
30.29
26.29
22.53
19.23
16.31
13.5
10.43
6.91
3.02
-0.95
-4.62
-7.75
-10.36
-12.77
-15.51
-19.2
-24.36
-31.18
-39.24
-47.5
-54.38
-58.24
-57.91
-53.12
-44.57
-33.63
-21.8
-10.32
0.08
9.06
16.41
21.9
25.38
26.84
26.65
25.47
24.12
23.31
23.32
24.04
25.02
25.76
25.93
25.53
24.8
24.07
23.54
23.16
22.63
21.55
19.58
16.64
12.91
8.78
4.65
0.82
-2.63
-5.78
-8.8
-11.85
-15.01
-18.29
-21.64
-24.97
-28.13
-31.01
-33.62
-36.14
-38.96
-42.56
-47.35
-53.3
-59.89
-66.0
-70.25
-71.35
-68.54
-61.79
-51.79
-39.69
-26.78
-14.21
-2.74
7.26
15.64
22.43
27.63
31.23
33.28
33.99
33.73
32.95
32.04
31.26
30.67
30.22
29.83
29.42
28.92
28.2
27.15
25.66
23.76
21.54
19.15
16.72
14.26
11.75
9.16
6.51
3.85
1.21
-1.41
-4.08
-6.84
-9.72
-12.68
-15.67
-18.64
-21.55
-24.33
-26.95
-29.47
-32.11
-35.22
-39.21
-44.31
-50.44
-57.03
-63.1
-67.43
-68.9
-66.76
-60.83
-51.54
-39.81
-26.79
-13.6
-1.17
9.95
19.44
27.23
33.34
37.83
40.79
42.4
42.88
42.57
41.86
41.14
40.73
40.83
41.45
42.45
43.59
44.57
45.09
44.91
43.86
41.94
39.25
36.05
32.63
29.22
25.94
22.75
19.49
16.02
12.27
8.28
4.14
0.0
-4.05
-7.91
-11.54
-14.91
-18.15
-21.62
-25.75
-30.94
-37.16
-43.83
-49.84
-53.84
-54.64
-51.62
-44.86
-35.11
-23.53
-11.39
0.2
10.43
18.79
25.06
29.11
31.02
31.0
29.56
27.4
25.35
24.02
23.72
24.3
25.29
26.17
26.56
26.31
25.48
24.21
22.59
20.67
18.46
15.95
13.17
10.18
7.12
4.13
1.35
-1.25
-3.83
-6.71
-10.18
-14.31
-18.9
-23.5
-27.64
-31.0
-33.68
-36.11
-38.92
-42.76
-48.0
-54.59
-61.86
-68.68
-73.55
-75.02
-72.14
-64.78
-53.69
-40.28
-26.18
-12.82
-1.07
8.71
16.56
22.65
27.1
30.01
31.49
31.83
31.52
31.08
30.93
31.2
31.68
32.0
31.81
31.02
29.8
28.47
27.27
26.21
25.06
23.46
21.15
18.07
14.34
10.3
6.33
2.73
-0.31
-2.79
-4.93
-7.06
-9.54
-12.52
-15.96
-19.59
-23.09
-26.23
-28.96
-31.47
-34.11
-37.24
-41.2
-46.15
-51.99
-58.2
-63.82
-67.61
-68.33
-65.12
-57.81
-47.02
-33.94
-20.02
-6.53
5.65
16.07
24.65
31.41
36.36
39.55
41.14
41.52
41.24
40.94
41.08
41.83
43.02
44.34
45.49
46.3
46.75
46.82
46.43
45.44
43.78
41.47
38.74
35.84
32.95
30.06
27.02
23.63
19.76
15.45
10.85
6.18
1.65
-2.6
-6.49
-10.1
-13.64
-17.46
-21.97
-27.5
-34.11
-41.43
-48.61
-54.47
-57.69
-57.24
-52.64
-44.2
-32.87
-19.97
-6.85
5.43
16.17
24.98
31.62
35.93
37.89
37.71
35.84
33.04
30.12
27.79
26.49
26.38
27.3
28.95
30.88
32.57
33.55
33.42
31.97
29.17
25.23
20.48
15.29
10.06
5.09
0.5
-3.7
-7.67
-11.65
-15.82
-20.21
-24.63
-28.78
-32.35
-35.23
-37.63
-40.12
-43.4
-48.11
-54.51
-62.23
-70.27
-77.1
-81.04
-80.72
-75.51
-65.72
-52.53
-37.65
-22.83
-9.34
2.18
11.65
19.31
25.38
29.94
32.97
34.6
35.09
34.91
34.49
34.06
33.62
33.03
32.21
31.27
30.49
30.1
30.19
30.57
30.82
30.44
29.03
26.37
22.55
17.94
13.11
8.63
4.85
1.74
-1.01
-3.87
-7.16
-10.91
-14.88
-18.74
-22.3
-25.57
-28.75
-32.1
-35.84
-40.16
-45.17
-50.81
-56.66
-61.87
-65.13
-65.12
-60.88
-52.21
-39.85
-25.14
-9.71
5.06
18.2
29.24
38.0
44.5
48.75
50.86
51.06
49.81
47.76
45.63
44.1
43.54
43.98
45.13
46.48
47.59
48.14
47.97
47.08
45.44
43.01
39.75
35.73
31.2
26.56
22.29
18.68
15.7
13.01
10.07
6.48
2.19
-2.5
-7.13
-11.37
-15.23
-19.12
-23.63
-29.3
-36.3
-44.37
-52.76
-60.34
-65.72
-67.53
-64.82
-57.36
-45.87
-31.81
-17.03
-3.22
8.51
17.64
24.15
28.25
30.25
30.57
29.72
28.34
27.05
26.28
26.22
26.71
27.44
28.02
28.16
27.77
26.91
25.7
24.25
22.51
20.31
17.52
14.2
10.65
7.37
4.7
2.69
1.02
-0.86
-3.41
-6.82
-11.0
-15.68
-20.58
-25.47
-30.19
-34.59
-38.7
-42.71
-47.09
-52.39
-58.85
-66.13
-73.19
-78.48
-80.44
-78.05
-71.12
-60.35
-47.09
-32.95
-19.32
-7.16
3.14
11.63
18.53
24.05
28.26
31.15
32.8
33.44
33.5
33.4
33.47
33.77
34.11
34.28
34.17
33.84
33.55
33.49
33.7
33.93
33.73
32.65
30.4
27.05
23.01
18.87
15.17
12.13
9.53
6.91
3.74
-0.2
-4.78
-9.52
-13.88
-17.48
-20.3
-22.56
-24.73
-27.29
-30.68
-35.14
-40.6
-46.48
-51.7
-54.82
-54.39
-49.5
-40.1
-27.11
-12.14
3.01
16.81
28.27
37.02
43.1
46.73
48.22
47.95
46.4
44.12
41.72
39.69
38.33
37.66
37.52
37.57
37.43
36.76
35.36
33.21
30.46
27.37
24.22
21.15
18.16
15.16
11.99
8.61
4.99
1.18
-2.83
-6.97
-11.15
-15.21
-18.98
-22.37
-25.45
-28.47
-31.76
-35.66
-40.43
-46.15
-52.52
-58.73
-63.51
-65.37
-63.13
-56.39
-45.85
-33.02
-19.74
-7.49
2.99
11.6
18.58
24.19
28.49
31.47
33.25
34.17
34.7
35.26
36.05
36.98
37.82
38.23
37.95
36.84
34.93
32.37
29.45
26.42
23.41
20.38
17.2
13.79
10.22
6.69
3.39
0.39
-2.5
-5.56
-9.06
-13.1
-17.51
-21.95
-26.0
-29.38
-32.04
-34.24
-36.49
-39.46
-43.7
-49.43
-56.31
-63.46
-69.59
-73.34
-73.61
-69.85
-62.14
-51.27
-38.45
-25.13
-12.57
-1.64
7.34
14.47
19.99
24.11
26.91
28.45
28.88
28.58
28.02
27.63
27.64
28.0
28.5
28.96
29.27
29.4
29.34
29.02
28.29
27.01
25.09
22.58
19.61
16.36
13.07
10.01
7.42
5.39
3.78
2.22
0.22
-2.55
-6.16
-10.25
-14.25
-17.69
-20.35
-22.43
-24.35
-26.62
-29.64
-33.63
-38.58
-44.18
-49.74
-54.22
-56.39
-55.14
-49.86
-40.71
-28.59
-14.92
-1.17
11.45
22.2
30.84
37.38
42.03
45.03
46.62
47.08
46.75
46.0
45.2
44.59
44.25
44.07
43.82
43.26
42.22
40.58
38.34
35.52
32.22
28.56
24.73
20.92
17.29
13.85
10.47
6.99
3.23
-0.87
-5.28
-9.82
-14.33
-18.64
-22.69
-26.47
-30.09
-33.78
-37.86
-42.63
-48.15
-54.04
-59.39
-62.95
-63.47
-60.14
-52.86
-42.35
-29.81
-16.64
-4.09
6.94
15.9
22.58
26.98
29.33
30.01
29.48
28.27
26.91
25.81
25.28
25.37
25.93
26.64
27.15
27.24
26.89
26.17
25.15
23.76
21.84
19.24
15.98
12.32
8.61
5.14
1.98
-1.06
-4.24
-7.77
-11.7
-15.88
-20.1
-24.12
-27.78
-31.04
-34.01
-36.96
-40.27
-44.39
-49.59
-55.82
-62.54
-68.77
-73.2
-74.64
-72.25
-65.91
-56.22
-44.34
-31.63
-19.29
-8.07
1.73
10.08
17.04
22.54
26.41
28.55
29.06
28.38
27.13
25.96
25.32
25.38
26.0
26.95
27.97
28.85
29.45
29.62
29.2
28.03
26.08
23.44
20.34
17.09
13.94
11.08
8.53
6.19
3.84
1.24
-1.79
-5.27
-9.05
-12.82
-16.26
-19.17
-21.56
-23.66
-25.89
-28.74
-32.61
-37.71
-43.85
-50.28
-55.74
-58.69
-57.79
-52.36
-42.64
-29.79
-15.43
-1.19
11.73
22.71
31.59
38.46
43.49
46.8
48.5
48.76
47.92
46.44
44.9
43.84
43.57
44.05
44.92
45.57
45.42
44.17
41.87
38.84
35.53
32.21
28.95
25.58
21.89
17.7
12.95
7.78
2.43
-2.74
-7.47
-11.6
-15.18
-18.49
-21.93
-25.88
-30.6
-36.18
-42.51
-49.27
-55.8
-61.06
-63.75
-62.66
-57.15
-47.5
-34.94
-21.23
-8.15
3.15
12.25
19.3
24.63
28.46
30.83
31.74
31.4
30.2
28.72
27.42
26.6
26.32
26.41
26.62
26.61
26.08
24.84
22.86
20.33
17.53
14.75
12.09
9.47
6.7
3.6
0.09
-3.78
-7.95
-12.34
-16.88
-21.44
-25.83
-29.82
-33.27
-36.3
-39.26
-42.74
-47.28
-53.12
-59.93
-66.68
-71.81
-73.67
-71.03
-63.57
-52.02
-37.95
-23.23
-9.42
2.54
12.45
20.48
26.91
31.83
35.18
36.92
37.18
36.34
34.87
33.25
31.75
30.5
29.48
28.7
28.13
27.74
27.43
27.0
26.18
24.76
22.65
19.92
16.74
13.35
9.98
6.77
3.7
0.65
-2.53
-5.94
-9.52
-13.12
-16.51
-19.54
-22.23
-24.81
-27.65
-31.16
-35.65
-41.17
-47.31
-53.23
-57.64
-59.08
-56.39
-49.15
-37.93
-24.17
-9.7
3.85
15.49
24.96
32.44
38.19
42.31
44.78
45.64
45.25
44.22
43.27
42.91
43.33
44.33
45.52
46.46
46.78
46.22
44.69
42.23
39.06
35.43
31.56
27.56
23.38
18.96
14.25
9.37
4.53
-0.06
-4.28
-8.15
-11.83
-15.55
-19.53
-24.01
-29.2
-35.23
-41.99
-48.93
-55.03
-58.97
-59.48
-55.8
-47.98
-36.92
-24.06
-10.97
1.09
11.35
19.55
25.71
29.99
32.58
33.66
33.56
32.7
31.62
30.79
30.53
30.86
31.51
32.08
32.2
31.64
30.39
28.55
26.27
23.68
20.78
17.54
13.92
9.85
5.33
0.42
-4.7
-9.74
-14.4
-18.46
-21.94
-25.09
-28.3
-31.96
-36.29
-41.38
-47.19
-53.57
-60.16
-66.23
-70.67
-72.13
-69.56
-62.58
-51.78
-38.56
-24.63
-11.44
0.15
9.94
17.99
24.38
29.0
31.67
32.41
31.58
29.84
27.97
26.59
25.93
25.87
26.06
26.15
25.87
25.18
24.1
22.75
21.19
19.43
17.5
15.41
13.18
10.81
8.23
5.33
2.02
-1.73
-5.72
-9.7
-13.33
-16.44
-19.08
-21.51
-24.09
-27.2
-31.15
-36.14
-42.11
-48.65
-54.82
-59.3
-60.58
-57.55
-49.97
-38.58
-24.93
-10.8
2.39
13.87
23.48
31.32
37.53
42.11
45.01
46.28
46.19
45.24
43.98
42.9
42.34
42.36
42.81
43.36
43.64
43.37
42.47
41.06
39.33
37.4
35.2
32.53
29.13
24.91
19.97
14.59
9.17
4.04
-0.6
-4.74
-8.52
-12.22
-16.19
-20.83
-26.39
-32.92
-40.1
-47.17
-53.03
-56.43
-56.35
-52.22
-44.26
-33.4
-20.99
-8.47
3.05
12.98
21.12
27.45
31.89
34.28
34.57
32.96
30.05
26.73
23.88
22.09
21.49
21.81
22.5
23.03
22.97
22.1
20.37
17.86
14.82
11.55
8.3
5.21
2.19
-0.9
-4.25
-7.91
-11.74
-15.52
-19.02
-22.18
-25.1
-28.05
-31.29
-35.06
-39.52
-44.74
-50.63
-56.78
-62.41
-66.41
-67.57
-65.0
-58.47
-48.52
-36.29
-23.18
-10.42
1.21
11.3
19.73
26.46
31.45
34.68
36.28
36.55
35.99
35.14
34.45
34.2
34.36
34.67
34.83
34.56
33.78
32.51
30.8
28.59
25.82
22.42
18.53
14.48
10.6
7.13
4.01
0.96
-2.41
-6.37
-10.96
-15.98
-21.06
-25.84
-30.07
-33.68
-36.88
-40.11
-43.93
-48.84
-54.96
-61.82
-68.34
-73.05
-74.49
-71.77
-64.81
-54.34
-41.66
-28.21
-15.18
-3.3
7.06
15.81
22.88
28.19
31.67
33.42
33.82
33.47
33.03
32.97
33.47
34.31
35.14
35.63
35.69
35.43
35.05
34.64
34.07
33.09
31.43
28.95
25.75
22.09
18.3
14.62
11.19
7.93
4.66
1.16
-2.69
-6.76
-10.8
-14.44
-17.43
-19.74
-21.67
-23.66
-26.19
-29.62
-34.07
-39.37
-45.03
-50.22
-53.82
-54.66
-51.79
-44.88
-34.39
-21.52
-7.85
5.19
16.6
26.02
33.42
38.98
42.77
44.78
45.11
44.09
42.3
40.43
39.04
38.37
38.34
38.57
38.68
38.32
37.29
35.57
33.3
30.67
27.86
24.96
21.94
18.67
14.99
10.85
6.31
1.57
-3.2
-7.87
-12.39
-16.73
-20.9
-24.91
-28.83
-32.88
-37.34
-42.46
-48.32
-54.55
-60.36
-64.6
-66.08
-63.9
-57.81
-48.3
-36.43
-23.55
-10.91
0.62
10.58
18.84
25.36
30.14
33.17
34.51
34.44
33.42
32.04
30.82
30.07
29.82
29.89
29.99
29.9
29.49
28.76
27.71
26.28
24.33
21.72
18.44
14.67
10.77
7.11
3.91
1.13
-1.51
-4.42
-7.94
-12.16
-16.91
-21.85
-26.57
-30.82
-34.59
-38.06
-41.6
-45.61
-50.35
-55.82
-61.6
-66.75
-70.04
-70.24
-66.62
-59.17
-48.72
-36.62
-24.25
-12.65
-2.34
6.53
13.98
19.94
24.29
26.94
28.01
27.92
27.26
26.64
26.48
26.94
27.87
28.93
29.75
30.09
29.85
29.16
28.18
26.99
25.5
23.5
20.84
17.54
13.93
10.42
7.4
4.98
2.98
1.09
-1.02
-3.47
-6.16
-8.89
-11.47
-13.87
-16.22
-18.84
-22.14
-26.53
-32.27
-39.24
-46.86
-54.0
-59.22
-61.11
-58.71
-51.83
-41.11
-27.87
-13.67
0.01
12.17
22.37
30.6
37.02
41.78
44.9
46.4
46.39
45.28
43.69
42.34
41.73
42.01
42.93
44.0
44.7
44.68
43.78
42.01
39.51
36.44
32.97
29.31
25.59
21.87
18.15
14.36
10.43
6.38
2.31
-1.68
-5.47
-9.01
-12.33
-15.51
-18.71
-22.18
-26.22
-31.08
-36.72
-42.66
-47.96
-51.41
-51.92
-48.92
-42.54
-33.59
-23.19
-12.5
-2.37
6.69
14.38
20.58
25.15
28.03
29.32
29.33
28.63
27.83
27.48
27.82
28.73
29.82
30.57
30.62
29.87
28.43
26.55
24.37
21.87
18.95
15.55
11.76
7.89
4.31
1.29
-1.12
-3.09
-4.92
-6.88
-9.13
-11.72
-14.57
-17.66
-21.0
-24.66
-28.82
-33.69
-39.4
-45.92
-52.92
-59.7
-65.22
-68.34
-68.1
-64.05
-56.41
-45.99
-34.0
-21.68
-9.94
0.66
9.99
18.09
24.92
30.33
34.07
35.98
36.19
35.14
33.44
31.68
30.17
28.93
27.84
26.73
25.55
24.42
23.45
22.68
21.97
21.09
19.78
17.85
15.26
12.09
8.6
5.11
1.97
-0.61
-2.63
-4.37
-6.22
-8.55
-11.53
-14.99
-18.54
-21.76
-24.31
-26.17
-27.57
-29.02
-31.05
-34.14
-38.5
-44.0
-50.06
-55.63
-59.42
-60.16
-56.95
-49.67
-39.03
-26.44
-13.49
-1.54
8.72
17.14
23.96
29.42
33.54
36.21
37.42
37.42
36.76
36.05
35.74
35.91
36.37
36.85
37.15
37.26
37.2
36.96
36.39
35.3
33.58
31.24
28.47
25.47
22.39
19.28
16.06
12.58
8.68
4.31
-0.46
-5.4
-10.19
-14.57
-18.44
-21.93
-25.39
-29.31
-34.09
-39.95
-46.7
-53.71
-59.86
-63.72
-63.96
-59.73
-51.02
-38.73
-24.34
-9.52
4.4
16.54
26.49
34.06
39.12
41.64
41.77
39.97
36.98
33.65
30.71
28.58
27.32
26.76
26.59
26.58
26.53
26.33
25.9
25.14
23.93
22.17
19.76
16.72
13.2
9.48
5.84
2.53
-0.39
-3.02
-5.61
-8.42
-11.59
-15.08
-18.7
-22.2
-25.39
-28.22
-30.84
-33.56
-36.77
-40.79
-45.74
-51.44
-57.29
-62.35
-65.59
-66.1
-63.36
-57.39
-48.73
-38.25
-26.94
-15.74
-5.36
3.72
11.26
17.15
21.43
24.19
25.66
26.15
26.11
25.97
26.09
26.59
27.32
27.94
28.11
27.64
26.55
25.01
23.23
21.3
19.21
16.9
14.34
11.6
8.8
6.08
3.51
1.1
-1.17
-3.36
-5.52
-7.74
-10.1
-12.72
-15.61
-18.73
-21.92
-25.04
-28.02
-30.97
-34.13
-37.9
-42.63
-48.42
-54.96
-61.43
-66.55
-68.94
-67.52
-61.92
-52.66
-40.93
-28.16
-15.61
-4.05
6.2
15.07
22.57
28.63
33.19
36.32
38.23
39.27
39.8
40.1
40.36
40.7
41.17
41.8
42.56
43.38
44.08
44.47
44.33
43.45
41.71
39.1
35.77
32.01
28.1
24.26
20.5
16.68
12.58
8.15
3.51
-1.03
-5.15
-8.72
-11.91
-15.1
-18.79
-23.39
-29.09
-35.76
-42.92
-49.77
-55.36
-58.76
-59.26
-56.5
-50.51
-41.65
-30.59
-18.15
-5.3
6.94
17.67
26.18
32.13
35.54
36.68
36.0
34.05
31.45
28.88
26.94
25.99
26.08
26.89
27.93
28.79
29.2
29.04
28.31
26.94
24.89
22.19
18.99
15.61
12.36
9.44
6.79
4.16
1.2
-2.38
-6.65
-11.51
-16.65
-21.68
-26.26
-30.22
-33.62
-36.8
-40.31
-44.73
-50.48
-57.56
-65.4
-72.91
-78.62
-81.05
-79.1
-72.43
-61.56
-47.78
-32.76
-18.1
-4.91
6.32
15.62
23.24
29.34
33.91
36.86
38.24
38.38
37.87
37.34
37.2
37.46
37.81
37.81
37.17
35.9
34.3
32.73
31.44
30.38
29.2
27.47
24.8
21.13
16.73
12.14
7.93
4.48
1.81
-0.46
-2.81
-5.68
-9.17
-13.09
-17.07
-20.72
-23.86
-26.49
-28.87
-31.35
-34.38
-38.38
-43.58
-49.85
-56.53
-62.47
-66.2
-66.38
-62.24
-53.81
-41.97
-28.07
-13.66
-0.01
12.06
22.22
30.47
36.96
41.78
44.99
46.67
47.03
46.53
45.77
45.34
45.6
46.55
47.91
49.27
50.26
50.66
50.37
49.36
47.58
45.02
41.72
37.81
33.47
28.9
24.23
19.55
14.89
10.26
5.65
1.06
-3.51
-8.04
-12.47
-16.76
-20.93
-25.16
-29.79
-35.19
-41.49
-48.41
-55.09
-60.2
-62.36
-60.54
-54.48
-44.73
-32.51
-19.26
-6.29
5.45
15.44
23.4
29.24
32.96
34.69
34.75
33.68
32.15
30.8
30.06
30.09
30.69
31.5
32.11
32.26
31.89
31.07
29.88
28.31
26.21
23.41
19.81
15.55
10.96
6.47
2.42
-1.04
-4.06
-6.95
-10.06
-13.64
-17.68
-21.94
-26.12
-29.88
-33.11
-35.96
-38.81
-42.18
-46.56
-52.21
-59.02
-66.34
-73.0
-77.51
-78.46
-74.93
-66.84
-55.01
-40.93
-26.21
-12.2
0.3
11.04
20.08
27.48
33.18
37.04
39.06
39.48
38.81
