0
39.74
46.61
50.35
51.47
50.46
47.95
44.81
41.99
40.27
40.04
41.15
43.07
45.18
47.04
48.44
49.41
49.93
49.79
48.52
45.62
40.85
34.43
26.99
19.35
12.17
5.66
-0.46
-6.71
-13.56
-21.16
-29.26
-37.36
-44.89
-51.5
-57.2
-62.43
-67.99
-74.92
-84.16
-96.13
-110.22
-124.56
-136.2
-141.88
-139.06
-126.87
-106.45
-80.61
-52.85
-26.37
-3.27
15.59
30.24
41.2
49.03
54.18
57.12
58.39
58.65
58.56
58.64
59.11
59.91
60.81
61.6
62.23
62.82
63.55
64.39
64.99
64.72
62.91
59.15
53.54
46.62
39.17
31.81
24.85
18.16
11.34
3.97
-4.12
-12.81
-21.71
-30.29
-38.14
-45.0
-50.98
-56.57
-62.62
-70.19
-80.13
-92.56
-106.45
-119.47
-128.49
-130.42
-123.32
-107.14
-83.8
-56.61
-29.15
-4.3
16.45
32.9
45.62
55.28
62.27
66.69
68.62
68.5
67.23
65.87
65.29
65.8
67.06
68.4
69.24
69.39
69.07
68.59
68.06
67.17
65.39
62.17
57.3
51.02
43.88
36.57
29.59
23.11
16.94
10.64
3.68
-4.17
-12.76
-21.54
-29.77
-36.94
-43.05
-48.74
-55.12
-63.34
-74.17
-87.61
-102.63
-117.16
-128.35
-133.21
-129.46
-116.33
-94.98
-68.23
-39.77
-13.03
9.71
27.57
40.85
50.34
56.8
60.75
62.52
62.47
61.16
59.33
57.65
56.64
56.49
57.11
58.18
59.34
60.24
60.6
60.25
59.06
56.91
53.7
49.41
44.11
38.01
31.38
24.48
17.43
10.29
3.06
-4.21
-11.34
-18.09
-24.27
-29.84
-35.1
-40.58
-47.03
-55.15
-65.42
-77.69
-90.88
-102.95
-111.15
-112.76
-106.04
-90.91
-69.18
-43.98
-18.78
3.66
21.87
35.71
45.79
52.81
57.22
59.1
58.59
56.13
52.62
49.18
46.83
46.1
46.93
48.79
50.92
52.65
53.52
53.31
51.95
49.39
45.6
40.57
34.44
27.47
20.05
12.47
4.87
-2.82
-10.8
-19.17
-27.84
-36.48
-44.63
-51.9
-58.27
-64.1
-70.15
-77.4
-86.7
-98.4
-111.86
-125.31
-135.96
-140.7
-137.09
-124.25
-103.29
-76.97
-48.79
-21.86
1.79
21.44
37.28
49.84
59.51
66.44
70.74
72.7
72.94
72.36
71.8
71.85
72.7
74.09
75.56
76.73
77.44
77.81
77.98
77.91
77.24
75.33
71.6
65.86
58.5
50.34
42.33
35.11
28.79
22.9
16.7
9.52
1.1
-8.31
-18.07
-27.35
-35.56
-42.52
-48.66
-54.86
-62.3
-71.99
-84.43
-99.19
-114.71
-128.38
-137.13
-138.16
-129.92
-112.68
-88.54
-60.79
-32.92
-7.62
13.79
31.2
45.18
56.32
64.87
70.78
74.03
75.01
74.56
73.77
73.51
74.13
75.39
76.69
77.43
77.42
76.82
76.05
75.44
74.98
74.26
72.63
69.47
64.43
57.64
49.66
41.4
33.76
27.28
21.99
17.3
12.3
6.16
-1.48
-10.33
-19.6
-28.39
-36.09
-42.64
-48.6
-54.87
-62.5
-72.31
-84.68
-99.22
-114.53
-128.25
-137.39
-139.2
-131.97
-115.79
-92.57
-65.49
-37.94
-12.65
8.81
26.08
39.46
49.52
56.7
61.32
63.7
64.3
63.85
63.14
62.92
63.59
65.11
67.02
68.77
69.91
70.34
70.26
69.94
69.46
68.55
66.68
63.33
58.3
51.78
44.37
36.86
29.89
23.78
18.47
13.5
8.22
2.09
-5.09
-13.05
-21.09
-28.41
-34.46
-39.24
-43.39
-47.95
-54.0
-62.32
-73.16
-85.99
-99.51
-111.62
-119.72
-121.35
-114.95
-100.44
-79.44
-54.79
-29.67
-6.63
12.88
28.53
40.55
49.31
54.98
57.63
57.53
55.39
52.3
49.49
47.86
47.81
49.07
50.97
52.77
54.02
54.61
54.76
54.71
54.45
53.68
51.82
48.4
43.22
36.59
29.19
21.87
15.32
9.77
4.92
0.07
-5.59
-12.6
-20.97
-30.11
-39.1
-47.05
-53.54
-58.82
-63.72
-69.41
-77.04
-87.31
-100.14
-114.48
-128.21
-138.48
-142.38
-137.79
-124.16
-102.8
-76.53
-48.75
-22.55
0.13
18.57
33.03
44.2
52.68
58.84
62.84
64.9
65.41
65.02
64.47
64.37
65.0
66.23
67.64
68.74
69.24
69.17
68.83
68.46
68.07
67.21
65.22
61.45
55.64
48.08
39.55
31.02
23.29
16.7
11.02
5.67
-0.05
-6.62
-14.1
-22.18
-30.27
-37.74
-44.23
-49.74
-54.71
-59.89
-66.16
-74.28
-84.65
-97.09
-110.58
-123.18
-132.27
-135.13
-129.78
-115.71
-94.26
-68.25
-41.17
-16.11
5.02
21.64
34.16
43.36
49.9
54.13
56.28
56.7
56.04
55.08
54.54
54.82
55.89
57.38
58.84
59.9
60.4
60.39
60.0
59.33
58.32
56.72
54.2
50.44
45.32
39.01
32.02
24.99
18.49
12.84
7.93
3.33
-1.52
-7.07
-13.45
-20.45
-27.63
-34.48
-40.65
-46.05
-50.88
-55.65
-60.94
-67.44
-75.73
-86.13
-98.34
-111.14
-122.38
-129.2
-128.91
-119.86
-102.24
-78.11
-50.85
-24.04
-0.43
18.62
33.06
43.58
50.91
55.54
57.73
57.79
56.36
54.38
52.84
52.42
53.23
54.89
56.73
58.23
59.13
59.54
59.67
59.68
59.41
58.51
56.49
52.96
47.8
41.27
33.89
26.45
19.65
13.87
9.01
4.48
-0.52
-6.61
-13.89
-21.85
-29.61
-36.3
-41.5
-45.47
-49.03
-53.32
-59.39
-67.94
-79.12
-92.22
-105.64
-116.92
-123.22
-122.1
-112.32
-94.45
-70.67
-44.21
-18.32
4.57
23.12
37.08
46.71
52.48
54.85
54.39
51.85
48.21
44.53
41.73
40.35
40.42
41.53
43.04
44.34
45.09
45.29
45.08
44.57
43.62
41.8
38.61
33.74
27.34
20.01
12.59
5.8
-0.09
-5.3
-10.52
-16.48
-23.62
-31.91
-40.77
-49.35
-56.88
-63.01
-67.97
-72.59
-78.06
-85.61
-96.01
-109.18
-123.78
-137.33
-146.59
-148.49
-141.1
-124.39
-100.27
-72.09
-43.51
-17.49
4.32
21.59
34.81
44.74
51.95
56.78
59.46
60.4
60.27
59.85
59.88
60.73
62.33
64.29
66.1
67.44
68.28
68.78
69.08
69.03
68.21
66.07
62.17
56.4
49.16
41.16
33.21
25.93
19.58
13.92
8.34
2.15
-5.19
-13.7
-22.87
-31.85
-39.81
-46.38
-51.89
-57.29
-63.8
-72.55
-84.12
-98.24
-113.55
-127.66
-137.47
-139.96
-133.13
-116.74
-92.63
-64.13
-35.06
-8.57
13.64
31.24
44.8
55.03
62.36
66.97
69.06
69.15
68.1
66.94
66.51
67.19
68.91
71.18
73.44
75.25
76.44
77.09
77.4
77.44
77.08
75.86
73.22
68.72
62.32
54.5
46.14
38.18
31.23
25.26
19.65
13.48
6.07
-2.69
-12.15
-21.27
-29.07
-35.15
-39.84
-44.18
-49.52
-57.05
-67.52
-80.93
-96.45
-112.19
-125.48
-133.21
-132.73
-122.65
-103.5
-77.65
-48.68
-20.25
4.87
25.27
40.83
52.16
60.07
65.17
67.82
68.37
67.3
65.35
63.33
61.97
61.67
62.37
63.69
65.14
66.35
67.15
67.47
67.17
65.96
63.47
59.41
53.81
47.1
39.92
32.86
26.22
19.94
13.66
6.99
-0.29
-8.1
-16.08
-23.73
-30.63
-36.59
-41.87
-47.2
-53.67
-62.38
-73.89
-87.71
-102.01
-113.86
-119.98
-117.76
-106.2
-86.35
-60.96
-33.61
-7.58
14.98
33.26
47.39
57.84
64.95
68.79
69.52
67.64
64.24
60.68
58.22
57.51
58.48
60.48
62.71
64.57
65.84
66.61
67.0
66.91
65.94
63.55
59.29
53.06
45.17
36.4
27.65
19.71
12.93
7.13
1.58
-4.62
-12.18
-21.25
-31.29
-41.3
-50.21
-57.43
-63.15
-68.35
-74.44
-82.83
-94.38
-109.05
-125.62
-141.67
-153.98
-159.22
-154.97
-140.55
-117.45
-88.91
-58.9
-30.85
-6.82
12.69
28.22
40.61
50.38
57.61
62.26
64.58
65.21
65.15
65.34
66.34
68.13
70.27
72.15
73.29
73.58
73.26
72.72
72.26
71.87
71.12
69.32
65.78
60.18
52.74
44.24
35.74
28.17
21.96
16.89
12.22
7.05
0.67
-7.17
-16.15
-25.52
-34.45
-42.31
-48.96
-54.84
-60.78
-67.83
-76.95
-88.68
-102.8
-118.13
-132.45
-142.79
-146.12
-140.3
-124.88
-101.44
-73.26
-44.25
-17.79
4.21
21.46
34.81
45.41
54.0
60.73
65.38
67.88
68.6
68.37
68.14
68.58
69.85
71.57
73.17
74.24
74.65
74.61
74.44
74.36
74.25
73.73
72.24
69.17
64.18
57.3
49.08
40.37
32.12
25.01
19.15
14.09
9.04
3.17
-3.91
-12.06
-20.66
-28.89
-36.15
-42.27
-47.61
-52.9
-59.0
-66.71
-76.54
-88.49
-101.85
-115.06
-125.74
-131.22
-129.22
-118.61
-99.97
-75.48
-48.25
-21.44
2.6
22.68
38.66
50.95
60.03
66.3
70.0
71.55
71.6
71.04
70.68
71.1
72.34
74.07
75.74
76.91
77.5
77.68
77.75
77.78
77.48
76.23
73.34
68.4
61.44
53.01
43.92
34.97
26.6
18.83
11.26
3.33
-5.39
-14.89
-24.73
-34.13
-42.37
-49.16
-54.83
-60.28
-66.69
-75.07
-85.9
-98.85
-112.71
-125.44
-134.52
-137.45
-132.45
-119.07
-98.48
-73.27
-46.67
-21.64
-0.09
17.39
31.19
42.1
50.7
57.15
61.38
63.42
63.71
63.11
62.55
62.75
63.88
65.67
67.6
69.23
70.34
70.91
71.05
70.75
69.89
68.2
65.4
61.33
55.96
49.54
42.5
35.41
28.8
22.96
17.81
12.92
7.64
1.38
-6.16
-14.81
-24.0
-32.93
-40.85
-47.37
-52.63
-57.27
-62.3
-68.8
-77.61
-89.03
-102.52
-116.56
-128.82
-136.52
-137.22
-129.53
-113.66
-91.43
-65.79
-39.98
-16.62
2.78
17.95
29.49
38.35
45.35
50.92
55.19
58.1
59.74
60.36
60.47
60.53
60.85
61.5
62.41
63.47
64.66
65.96
67.21
68.08
68.09
66.83
64.17
60.31
55.68
50.7
45.61
40.45
35.19
29.82
24.41
19.12
14.03
9.11
4.19
-1.01
-6.75
-13.18
-20.29
-27.9
-35.64
-43.11
-49.93
-55.96
-61.4
-66.77
-72.8
-80.28
-89.69
-100.93
-112.95
-123.75
-130.68
-131.12
-123.38
-107.49
-85.26
-59.83
-34.64
-12.37
5.67
19.54
30.05
38.08
44.13
48.3
50.56
51.18
50.78
50.17
50.06
50.7
51.89
53.18
54.12
54.53
54.47
54.2
53.87
53.48
52.85
51.65
49.58
46.43
42.13
36.84
30.88
24.74
18.93
13.77
9.3
5.28
1.26
-3.23
-8.41
-14.26
-20.49
-26.65
-32.34
-37.31
-41.57
-45.45
-49.53
-54.59
-61.35
-70.24
-81.06
-92.77
-103.45
-110.64
-111.98
-105.94
-92.39
-72.79
-49.8
-26.43
-5.22
12.35
25.89
35.75
42.5
46.53
48.04
47.28
44.73
41.3
38.07
35.98
35.51
36.51
38.38
40.39
41.97
42.97
43.55
43.94
44.23
44.21
43.46
41.5
38.09
33.25
27.33
20.84
14.35
8.31
2.98
-1.64
-5.84
-10.08
-14.83
-20.39
-26.72
-33.42
-39.93
-45.74
-50.7
-55.05
-59.38
-64.46
-71.06
-79.77
-90.68
-103.08
-115.3
-124.81
-128.8
-125.12
-113.07
-93.73
-69.68
-44.14
-20.02
0.77
17.49
30.28
39.7
46.38
50.81
53.37
54.39
54.31
53.61
52.83
52.44
52.68
53.56
54.82
56.16
57.38
58.37
59.13
59.59
59.58
58.86
57.23
54.63
51.1
46.75
41.69
35.99
29.85
23.53
17.38
11.63
6.34
1.3
-3.82
-9.33
-15.41
-21.98
-28.76
-35.37
-41.43
-46.71
-51.32
-55.73
-60.76
-67.32
-76.17
-87.44
-100.35
-113.12
-123.16
-127.73
-124.66
-113.11
-93.96
-69.64
-43.37
-18.35
3.16
20.14
32.68
41.47
47.32
50.79
52.25
52.06
50.74
48.99
47.53
46.89
47.17
48.12
49.29
50.24
50.78
50.98
51.04
51.11
51.08
50.56
48.97
45.85
40.99
34.65
27.47
20.26
13.75
8.27
3.63
-0.83
-5.9
-12.12
-19.43
-27.16
-34.28
-39.9
-43.74
-46.24
-48.51
-51.88
-57.49
-65.93
-77.0
-89.54
-101.47
-110.04
-112.47
-106.85
-92.81
-71.88
-46.99
-21.51
1.7
20.98
35.81
46.41
53.13
56.32
56.33
53.79
49.73
45.36
41.83
39.83
39.46
40.41
42.1
44.02
45.85
47.45
48.74
49.56
49.54
48.24
45.21
40.3
33.78
26.35
18.8
11.75
5.39
-0.58
-6.71
-13.42
-20.8
-28.47
-35.82
-42.23
-47.46
-51.65
-55.45
-59.83
-65.9
-74.56
-86.13
-99.87
-113.83
-125.05
-130.28
-126.99
-114.29
-93.32
-66.96
-38.92
-12.6
9.71
27.18
40.16
49.62
56.48
61.39
64.6
66.2
66.37
65.49
64.1
62.78
61.93
61.66
61.9
62.43
63.08
63.79
64.43
64.79
64.37
62.54
58.8
53.02
45.67
37.63
29.9
23.1
17.29
11.95
6.33
-0.15
-7.55
-15.43
-23.13
-30.07
-36.12
-41.68
-47.53
-54.69
-64.05
-75.94
-89.79
-103.9
-115.54
-121.64
-119.62
-108.38
-88.81
-63.54
-36.14
-9.97
12.69
30.95
45.02
55.63
63.48
68.93
72.17
73.43
73.16
72.0
70.66
69.68
69.27
69.29
69.45
69.5
69.39
69.22
69.13
69.04
68.55
66.97
63.67
58.35
51.27
43.21
35.11
27.67
21.15
15.27
9.48
3.3
-3.51
-10.82
-18.23
-25.31
-31.7
-37.3
-42.34
-47.39
-53.33
-61.07
-71.25
-83.73
-97.22
-109.37
-117.16
-117.85
-109.91
-93.57
-70.85
-44.92
-19.12
3.9
22.68
36.95
47.22
54.23
58.57
60.59
60.5
58.66
55.72
52.58
50.18
49.14
49.54
50.92
52.49
53.51
53.58
52.62
50.81
48.36
45.38
41.83
37.59
32.44
26.25
18.96
10.71
1.83
-7.12
-15.59
-23.11
-29.49
-34.91
-39.84
-44.92
-50.91
-58.48
-68.08
-79.59
-92.11
-103.79
-112.08
-114.37
-108.78
-94.96
-74.25
-49.39
-23.63
0.17
20.27
36.13
48.09
56.78
62.75
66.27
67.51
66.79
64.69
62.03
59.63
58.08
57.55
57.87
58.7
59.7
60.71
61.66
62.45
62.76
62.05
59.72
55.37
49.05
41.36
33.22
25.54
18.8
12.9
7.22
0.99
-6.31
-14.66
-23.57
-32.27
-40.13
-46.89
-52.79
-58.55
-65.1
-73.38
-83.98
-96.75
-110.52
-123.08
-131.52
-133.05
-125.94
-110.23
-87.78
-61.7
-35.33
-11.23
9.25
25.93
39.26
49.77
57.73
63.21
66.29
67.33
67.06
66.4
66.15
66.8
68.25
70.01
71.44
72.08
71.85
71.03
70.05
69.16
68.24
66.8
64.2
59.92
53.89
46.48
38.43
30.6
23.65
17.82
12.86
8.11
2.83
-3.56
-11.11
-19.36
-27.51
-34.78
-40.79
-45.79
-50.53
-55.99
-63.07
-72.3
-83.63
-96.37
-109.14
-119.9
-126.3
-126.15
-118.17
-102.54
-80.98
-56.36
-31.8
-9.74
8.53
22.85
33.78
41.91
47.61
51.07
52.51
52.43
51.56
50.68
50.33
50.64
51.45
52.46
53.47
54.48
55.57
56.79
58.03
59.0
59.21
58.17
55.45
50.92
44.81
37.71
30.46
23.79
18.15
13.5
9.34
5.01
-0.01
-5.88
-12.37
-18.97
-25.11
-30.45
-34.96
-39.01
-43.25
-48.53
-55.59
-64.77
-75.68
-87.01
-96.62
-102.05
-101.18
-92.98
-77.86
-57.62
-34.9
-12.44
7.62
24.05
36.51
45.24
50.68
53.28
53.41
51.55
48.43
45.0
42.27
41.01
41.48
43.27
45.6
47.56
48.62
48.74
48.27
47.67
47.04
46.08
44.08
40.45
34.96
27.98
20.37
13.15
7.03
2.22
-1.7
-5.54
-10.12
-15.96
-23.06
-30.89
-38.59
-45.34
-50.73
-54.94
-58.71
-63.1
-69.18
-77.61
-88.45
-100.96
-113.53
-123.82
-129.2
-127.41
-117.36
-99.63
-76.44
-51.09
-26.84
-5.99
10.56
23.23
33.03
40.88
47.26
52.1
55.22
56.6
56.6
55.94
55.35
55.34
56.1
57.46
59.07
60.54
61.61
62.17
62.19
61.68
60.6
58.83
56.23
52.67
48.14
42.72
36.64
30.21
23.79
17.69
12.07
6.93
2.06
-2.86
-8.12
-13.87
-20.05
-26.39
-32.51
-38.14
-43.23
-47.98
-52.84
-58.41
-65.29
-73.97
-84.55
-96.47
-108.22
-117.47
-121.56
-118.27
-106.73
-87.8
-63.97
-38.55
-14.65
5.63
21.54
33.37
41.93
47.97
51.92
53.99
54.39
53.51
52.0
50.57
49.79
49.95
50.91
52.34
53.81
54.98
55.76
56.22
56.48
56.55
56.21
55.02
52.47
48.24
42.4
35.48
28.26
21.53
15.72
10.84
6.5
2.14
-2.71
-8.32
-14.67
-21.5
-28.36
-34.71
-40.06
-44.21
-47.38
-50.23
-53.78
-58.99
-66.57
-76.57
-88.11
-99.4
-107.93
-111.01
-106.56
-93.83
-73.86
-49.26
-23.48
0.23
19.65
34.01
43.67
49.55
52.53
53.15
51.77
48.8
44.97
41.21
38.38
37.0
37.0
37.89
39.02
39.88
40.39
40.73
41.13
41.56
41.63
40.67
38.02
33.4
27.08
19.83
12.6
6.17
0.8
-3.82
-8.38
-13.64
-19.99
-27.25
-34.73
-41.56
-47.06
-51.16
-54.41
-57.88
-62.82
-70.26
-80.6
-93.28
-106.64
-118.06
-124.47
-123.22
-113.02
-94.47
-70.08
-43.44
-18.07
3.52
20.38
32.81
41.73
47.96
51.92
53.76
53.63
52.06
49.87
47.93
46.83
46.66
47.09
47.68
48.14
48.47
48.91
49.66
50.67
51.49
51.44
49.82
46.27
40.9
34.36
27.54
21.26
15.91
11.36
6.99
2.02
-4.12
-11.51
-19.68
-27.83
-35.16
-41.25
-46.17
-50.46
-55.0
-60.77
-68.61
-78.92
-91.26
-104.17
-115.13
-121.07
-119.3
-108.42
-89.01
-63.5
-35.41
-8.29
15.25
33.94
47.69
57.05
62.76
65.47
65.78
64.39
62.08
59.66
57.8
56.82
56.66
56.98
57.33
57.38
57.08
56.65
56.41
56.54
56.82
56.65
55.22
51.91
46.57
39.69
32.15
24.89
18.47
12.89
7.66
2.12
-4.23
-11.52
-19.38
-27.17
-34.22
-40.07
-44.69
-48.53
-52.45
-57.56
-64.85
-74.82
-87.03
-99.81
-110.48
-115.84
-113.26
-101.55
-81.55
-55.98
-28.53
-2.76
18.9
35.51
47.33
55.17
59.77
61.58
60.81
57.85
53.38
48.43
44.05
41.07
39.84
40.18
41.62
43.57
45.5
47.01
47.79
47.59
46.24
43.67
40.0
35.49
30.38
24.88
19.01
12.67
5.81
-1.5
-8.97
-16.2
-22.76
-28.46
-33.36
-37.81
-42.46
-48.12
-55.59
-65.33
-77.04
-89.32
-99.74
-105.32
-103.44
-92.9
-74.35
-50.3
-24.25
0.42
21.32
37.47
48.99
56.53
60.77
62.17
61.12
58.19
54.21
50.19
47.06
45.35
45.12
45.99
47.48
49.15
50.67
51.83
52.35
51.83
49.83
46.08
40.62
33.91
26.67
19.63
13.23
7.4
1.65
-4.67
-11.98
-20.24
-28.93
-37.26
-44.53
-50.39
-55.03
-59.12
-63.75
-70.09
-79.13
-91.11
-105.13
-118.9
-129.04
-131.99
-125.21
-108.18
-82.77
-52.71
-22.31
4.81
26.61
42.73
53.98
61.53
66.4
69.19
70.23
69.87
68.58
67.02
65.76
65.13
65.14
65.47
65.8
65.94
65.93
65.93
65.97
65.73
64.57
61.75
56.81
49.86
41.59
32.96
24.76
17.29
10.32
3.26
-4.42
-12.97
-22.12
-31.25
-39.62
-46.67
-52.26
-56.82
-61.32
-67.0
-75.08
-86.15
-99.82
-114.35
-126.8
-133.72
-132.11
-120.47
-99.46
-71.79
-41.42
-12.34
12.55
31.99
46.2
56.23
63.15
67.63
69.84
69.9
68.19
65.53
62.91
61.16
60.56
60.85
61.41
61.8
61.96
62.16
62.7
63.51
63.96
63.12
60.11
54.63
47.11
38.52
30.01
22.41
15.94
10.22
4.47
-2.01
-9.55
-17.89
-26.31
-33.96
-40.27
-45.26
-49.53
-54.11
-60.07
-68.25
-79.02
-91.96
-105.63
-117.57
-124.69
-124.06
-113.99
-94.82
-69.02
-40.46
-13.16
9.98
27.79
40.6
49.49
55.41
58.79
59.67
58.18
54.92
51.01
47.69
45.94
46.04
47.6
49.87
52.07
53.71
54.54
54.51
53.51
51.38
48.01
43.43
37.84
31.54
24.8
17.75
10.36
2.64
-5.34
-13.33
-21.01
-28.14
-34.64
-40.68
-46.72
-53.4
-61.5
-71.64
-84.0
-97.86
-111.38
-121.72
-125.74
-121.03
-106.81
-84.4
-56.85
-28.02
-1.35
21.01
38.44
51.44
60.92
67.61
71.78
73.48
72.89
70.59
67.49
64.58
62.57
61.67
61.59
61.84
62.0
61.92
61.65
61.22
60.43
58.81
55.75
50.86
44.1
35.98
27.32
18.96
11.38
4.54
-2.01
-8.89
-16.54
-24.96
-33.68
-41.94
-49.06
-54.76
-59.35
-63.76
-69.3
-77.24
-88.36
-102.5
-118.12
-132.37
-141.63
-142.47
-132.78
-112.66
-84.57
-52.58
-21.1
6.39
28.21
44.4
56.1
64.63
70.82
74.92
76.89
76.85
75.35
73.36
71.85
71.46
72.18
73.47
74.57
74.89
74.32
73.16
71.82
70.55
69.15
67.0
63.39
57.77
50.13
41.05
31.46
22.46
14.81
8.69
3.6
-1.43
-7.36
-14.7
-23.26
-32.25
-40.65
-47.75
-53.48
-58.38
-63.41
-69.69
-78.15
-89.29
-102.87
-117.54
-130.72
-138.99
-139.01
-128.73
-108.34
-80.42
-49.09
-18.65
7.75
28.71
44.35
55.61
63.39
68.2
70.28
69.94
67.84
64.98
62.42
60.91
60.7
61.47
62.59
63.44
63.66
63.27
62.57
61.86
61.17
60.16
58.17
54.53
48.92
41.56
33.21
24.88
17.38
10.99
5.34
-0.33
-6.75
-14.16
-22.21
-30.1
-36.94
-42.27
-46.21
-49.56
-53.52
-59.37
-68.04
-79.73
-93.54
-107.32
-117.99
-122.19
-117.36
-102.7
-79.59
-51.27
-21.81
5.11
27.15
43.58
54.86
61.91
65.57
66.38
64.74
61.29
57.02
53.11
50.54
49.72
50.39
51.71
52.83
53.2
52.84
52.12
51.47
50.96
50.12
48.16
44.3
38.23
30.3
21.44
12.81
5.38
-0.46
-5.05
-9.28
-14.25
-20.76
-29.01
-38.38
-47.78
-56.04
-62.44
-67.08
-70.87
-75.26
-81.76
-91.41
-104.36
-119.45
-134.21
-145.17
-148.73
-142.27
-125.2
-99.33
-68.42
-36.96
-8.77
13.99
30.99
43.15
51.75
57.72
61.49
63.22
63.22
62.16
61.01
60.65
61.5
63.37
65.55
67.22
67.89
67.52
66.63
65.84
65.49
65.36
64.71
62.6
58.32
51.79
43.62
34.87
26.68
19.82
14.39
9.84
5.22
-0.45
-7.66
-16.23
-25.35
-33.96
-41.23
-46.92
-51.49
-55.9
-61.37
-68.94
-79.28
-92.35
-107.09
-121.29
-131.79
-135.2
-128.98
-112.51
-87.46
-57.47
-26.92
0.44
22.41
38.59
49.83
57.45
62.51
65.63
67.05
66.99
65.88
64.37
63.19
62.81
63.27
64.19
64.99
65.18
64.64
63.62
62.58
61.82
61.22
60.22
57.97
53.75
47.31
39.02
29.84
20.95
13.36
7.52
3.15
-0.61
-4.85
-10.41
-17.5
-25.63
-33.84
-41.13
-46.91
-51.27
-54.96
-59.09
-64.84
-73.1
-84.2
-97.6
-111.7
-123.75
-130.37
-128.44
-116.25
-94.36
-65.74
-34.8
-6.06
17.29
34.05
44.71
50.64
53.2
53.24
51.18
47.4
42.49
37.3
32.68
29.21
27.15
26.38
26.58
27.29
28.03
28.32
27.79
26.27
23.84
20.71
17.09
13.1
8.66
3.62
-2.06
-8.26
-14.64
-20.8
-26.33
-30.99
-34.69
-37.55
-39.85
-42.09
-44.9
-49.12
-55.53
-64.58
-75.93
-88.16
-98.76
-104.65
-103.12
-92.79
-74.28
-50.15
-24.07
0.37
20.67
35.86
46.31
52.99
56.82
58.3
57.62
54.99
50.95
46.44
42.52
40.04
39.35
40.18
41.9
43.81
45.37
46.27
46.38
45.56
43.59
40.28
35.57
29.71
23.17
16.47
10.01
3.85
-2.23
-8.6
-15.52
-23.03
-30.81
-38.43
-45.42
-51.61
-57.18
-62.77
-69.27
-77.61
-88.33
-101.1
-114.39
-125.59
-131.52
-129.41
-117.88
-97.54
-70.96
-41.79
-13.68
10.74
30.35
45.35
56.64
65.12
71.36
75.54
77.78
78.39
77.98
77.26
76.82
76.87
77.29
77.82
78.21
78.45
78.58
78.6
78.26
77.1
74.61
70.47
64.71
57.71
50.08
42.43
35.12
28.17
21.34
14.24
6.59
-1.55
-9.85
-17.76
-24.82
-30.91
-36.41
-42.05
-48.82
-57.65
-69.02
-82.57
-96.85
-109.3
-116.8
-116.57
-107.13
-89.0
-64.55
-37.23
-10.47
13.34
33.15
49.03
61.53
71.12
77.97
82.05
83.49
82.81
80.91
78.86
77.53
77.28
77.91
78.88
79.55
79.59
78.99
77.99
76.78
75.29
73.13
69.81
64.96
58.62
51.22
43.45
36.02
29.31
23.24
17.3
10.8
3.16
-5.72
-15.39
-25.03
-33.81
-41.28
-47.65
-53.75
-60.66
-69.38
-80.48
-93.81
-108.43
-122.6
-133.92
-139.77
-138.03
-127.73
-109.54
-85.72
-59.43
-33.83
-11.21
7.36
21.85
32.74
40.59
45.71
48.34
48.85
47.85
46.18
44.63
43.78
43.8
44.59
45.82
47.2
48.52
49.64
50.44
50.67
49.96
47.91
44.24
38.99
32.57
25.68
19.03
13.06
7.81
2.9
-2.2
-7.94
-14.45
-21.48
-28.51
-35.07
-40.96
-46.43
-52.17
-59.1
-68.02
-79.16
-91.81
-104.19
-113.72
-117.66
-113.97
-102.05
-83.04
-59.48
-34.5
-10.87
9.71
26.69
40.32
51.03
59.1
64.53
67.33
67.81
66.67
64.86
63.26
62.45
62.51
63.15
63.89
64.29
64.06
63.17
61.75
60.03
58.15
56.04
53.48
50.12
45.73
40.34
34.28
28.05
22.16
16.9
12.24
7.91
3.47
-1.48
-7.17
-13.6
-20.47
-27.3
-33.6
-39.07
-43.78
-48.29
-53.41
-60.07
-68.93
-80.21
-93.34
-106.92
-118.7
-126.0
-126.35
-118.36
-102.33
-80.3
-55.47
-31.11
-9.58
8.14
22.32
33.78
43.2
50.77
56.26
59.5
60.63
60.27
59.28
58.43
58.13
58.43
59.08
59.8
60.37
60.71
60.79
60.59
59.97
58.76
56.75
53.82
49.91
45.1
39.59
33.65
27.63
21.88
16.64
12.02
7.93
4.13
0.29
-3.9
-8.65
-14.05
-19.97
-26.14
-32.15
-37.69
-42.56
-46.91
-51.21
-56.2
-62.67
-71.16
-81.53
-92.71
-102.67
-108.75
-108.5
-100.45
-84.84
-63.63
-39.93
-16.94
2.97
18.75
30.58
39.21
45.42
49.6
51.82
52.16
50.95
48.83
46.51
44.57
43.18
42.23
41.46
40.71
39.98
39.4
39.05
38.8
38.27
36.95
34.35
30.26
24.83
18.53
12.09
6.18
1.2
-2.92
-6.68
-10.79
-15.85
-21.88
-28.4
-34.52
-39.42
-42.8
-45.01
-46.98
-49.88
-54.75
-62.21
-72.26
-84.01
-95.67
-104.68
-108.27
-104.31
-92.17
-73.12
-49.94
-26.06
-4.37
13.52
27.35
37.73
45.38
50.71
53.81
54.68
53.6
51.28
48.67
46.64
45.78
46.13
47.36
48.91
50.23
51.0
51.16
50.92
50.45
49.78
48.64
46.58
43.13
38.12
31.76
24.71
17.83
11.84
7.13
3.62
0.75
-2.21
-6.03
-11.21
-17.79
-25.35
-33.11
-40.24
-46.2
-51.02
-55.37
-60.37
-67.25
-76.84
-89.19
-103.23
-116.86
-127.14
-131.09
-126.51
-112.73
-91.04
-64.35
-36.36
-10.51
10.96
27.31
38.97
47.0
52.37
55.7
57.28
57.32
56.18
54.4
52.6
51.24
50.48
50.16
49.95
49.56
48.89
48.04
47.22
46.59
46.11
45.45
44.12
41.62
37.65
32.26
25.87
19.13
12.72
7.1
2.4
-1.65
-5.56
-9.84
-14.84
-20.59
-26.82
-33.11
-39.07
-44.5
-49.5
-54.45
-59.93
-66.59
-74.96
-85.25
-97.09
-109.29
-119.8
-125.9
-124.98
-115.34
-97.02
-72.0
-43.71
-15.94
8.27
27.41
41.49
51.44
58.33
62.83
65.14
65.29
63.52
60.44
56.95
53.9
51.84
50.85
50.65
50.74
50.76
50.59
50.34
50.22
50.18
49.89
48.7
45.89
40.99
34.11
25.9
17.4
9.64
3.24
-1.8
-6.07
-10.46
-15.72
-22.13
-29.35
-36.56
-42.83
-47.55
-50.72
-52.98
-55.34
-58.97
-64.79
-73.27
-84.17
-96.28
-107.44
-114.78
-115.39
-107.26
-90.18
-65.94
-37.93
-10.05
14.43
33.63
47.18
55.73
60.27
61.71
60.68
57.76
53.61
49.07
45.05
42.23
40.91
40.95
41.85
43.04
44.17
45.16
46.16
47.23
48.1
48.07
46.28
42.11
35.59
27.48
18.99
11.2
4.61
-1.03
-6.49
-12.56
-19.61
-27.41
-35.32
-42.61
-48.79
-53.89
-58.37
-63.01
-68.74
-76.46
-86.68
-99.18
-112.66
-124.68
-132.07
-131.79
-121.99
-102.81
-76.48
-46.64
-17.27
8.52
29.12
44.35
55.0
62.06
66.33
68.27
68.21
66.58
64.06
61.42
59.32
58.06
57.48
57.14
56.65
55.87
55.02
54.49
54.51
54.91
55.03
53.95
50.91
45.63
38.5
30.43
22.49
15.55
9.91
5.31
0.99
-3.93
-10.14
-17.73
-26.16
-34.44
-41.58
-47.01
-50.95
-54.33
-58.54
-64.88
-74.1
-86.07
-99.52
-112.17
-120.99
-122.96
-115.93
-99.44
-75.09
-46.11
-16.44
10.47
32.58
49.3
61.2
69.23
74.19
76.58
76.78
75.25
72.69
69.88
67.42
65.6
64.33
63.27
62.11
60.69
59.09
57.48
56.07
54.81
53.34
51.08
47.42
41.96
34.78
26.38
17.62
9.3
1.92
-4.57
-10.67
-17.07
-24.31
-32.39
-40.83
-48.83
-55.73
-61.35
-66.17
-71.14
-77.36
-85.76
-96.75
-110.0
-124.34
-137.65
-147.09
-149.63
-143.02
-126.67
-102.11
-72.62
-42.24
-14.48
8.57
26.42
39.62
49.01
55.19
58.41
58.93
57.33
54.59
51.89
50.22
50.1
51.53
54.13
57.35
60.66
63.56
65.64
66.5
65.86
63.57
59.78
54.9
49.45
43.89
38.41
32.85
26.91
20.33
13.14
5.64
-1.7
-8.51
-14.67
-20.39
-26.08
-32.28
-39.59
-48.57
-59.56
-72.28
-85.47
-96.82
-103.38
-102.42
-92.51
-74.14
-49.71
-22.75
3.26
25.78
43.67
56.97
66.32
72.45
75.88
76.94
76.07
73.88
71.19
68.84
67.44
67.17
67.8
68.9
69.97
70.7
70.93
70.59
69.54
67.53
64.26
59.59
53.69
47.1
40.51
34.54
29.34
24.57
19.45
13.21
5.42
-3.66
-13.23
-22.26
-29.93
-36.02
-40.97
-45.81
-51.85
-60.31
-72.0
-86.74
-103.09
-118.26
-128.59
-130.63
-122.31
-103.9
-78.01
-48.68
-20.06
4.89
24.9
40.17
51.6
60.09
66.18
70.12
72.21
72.96
73.1
73.36
74.17
75.52
77.02
78.06
78.21
77.48
76.27
75.21
74.67
74.46
73.76
71.46
66.71
59.37
50.09
40.08
30.53
22.12
14.87
8.19
1.33
-6.27
-14.68
-23.47
-31.95
-39.46
-45.78
-51.22
-56.59
-62.96
-71.3
-82.19
-95.49
-110.11
-123.93
-134.03
-137.35
-131.53
-115.92
-91.93
-62.79
-32.53
-4.78
18.23
35.94
48.96
58.36
64.95
69.1
70.93
70.64
68.83
66.37
64.17
62.8
62.38
62.56
62.82
62.81
62.48
62.03
61.66
61.23
60.21
57.82
53.46
46.99
38.95
30.36
22.27
15.33
9.57
4.43
-0.9
-7.18
-14.7
-23.25
-32.14
-40.49
-47.6
-53.23
-57.81
-62.35
-68.2
-76.5
-87.7
-101.2
-115.1
-126.51
-132.17
-129.4
-117.09
-96.19
-69.57
-41.15
-14.64
7.43
24.16
35.96
43.83
48.61
50.8
50.62
48.4
44.86
41.05
38.1
36.76
37.27
39.26
41.94
44.4
45.9
46.03
44.77
42.39
39.26
35.69
31.66
26.97
21.26
14.35
6.32
-2.36
-11.0
-18.91
-25.62
-31.08
-35.54
-39.63
-44.11
-49.79
-57.4
-67.32
-79.35
-92.33
-104.09
-111.83
-112.78
-105.16
-88.89
-65.77
-38.98
-12.1
11.85
31.13
45.37
55.13
61.37
64.94
66.42
66.21
64.66
62.25
59.57
57.19
55.51
54.63
54.35
54.31
54.18
53.78
53.04
51.84
49.99
47.16
43.03
37.54
30.94
23.73
16.42
9.21
1.98
-5.62
-13.84
-22.55
-31.3
-39.43
-46.47
-52.36
-57.5
-62.68
-68.82
-76.8
-87.05
-99.27
-112.14
-123.28
-129.62
-128.34
-117.84
-98.52
-72.75
-44.19
-16.57
7.37
26.42
40.64
50.81
57.8
62.18
64.34
64.64
63.59
61.84
60.03
58.58
57.61
56.97
56.38
55.64
54.73
53.8
53.0
52.31
51.39
49.64
46.46
41.52
35.04
27.72
20.45
13.87
8.07
2.57
-3.41
-10.49
-18.73
-27.62
-36.3
-44.04
-50.53
-56.12
-61.61
-68.06
-76.38
-87.06
-99.88
-113.58
-125.86
-133.66
-133.95
-124.84
-106.3
-80.5
-51.11
-22.18
3.16
23.33
38.34
49.1
56.61
61.55
64.14
64.57
63.23
60.86
58.35
56.46
55.59
55.69
56.4
57.29
58.03
58.43
58.43
57.92
56.63
54.2
50.35
