0
-9.26
-11.35
-13.46
-15.46
-17.28
-18.93
-20.53
-22.2
-24.06
-26.17
-28.47
-30.81
-32.95
-34.56
-35.26
-34.7
-32.6
-28.91
-23.84
-17.88
-11.65
-5.75
-0.55
3.81
7.4
10.37
12.81
14.73
16.12
17.03
17.57
17.96
18.4
19.0
19.83
20.92
22.25
23.76
25.37
26.91
28.22
29.14
29.59
29.54
28.99
27.97
26.54
24.82
22.99
21.27
19.78
18.56
17.51
16.52
15.5
14.44
13.35
12.15
10.75
9.06
7.07
4.88
2.66
0.48
-1.65
-3.84
-6.17
-8.63
-11.13
-13.62
-16.16
-18.87
-21.74
-24.51
-26.57
-27.18
-25.74
-22.16
-16.88
-10.71
-4.55
0.94
5.43
8.9
11.49
13.36
14.62
15.37
15.71
15.76
15.66
15.53
15.47
15.57
15.85
16.32
17.02
17.92
18.96
20.01
20.87
21.35
21.31
20.72
19.62
18.19
16.58
14.97
13.45
12.11
10.98
10.01
9.13
8.22
7.15
5.87
4.38
2.76
1.1
-0.53
-2.13
-3.76
-5.52
-7.48
-9.66
-12.04
-14.47
-16.82
-18.97
-20.88
-22.6
-24.23
-25.89
-27.72
-29.89
-32.55
-35.79
-39.58
-43.6
-47.32
-50.04
-51.09
-50.03
-46.83
-41.82
-35.66
-29.1
-22.81
-17.21
-12.45
-8.47
-5.12
-2.22
0.29
2.41
4.13
5.54
6.78
8.02
9.4
10.89
12.35
13.57
14.46
15.06
15.53
16.01
16.48
16.81
16.75
16.18
15.12
13.83
12.58
11.58
10.83
10.17
9.43
8.53
7.49
6.42
5.46
4.59
3.78
2.94
2.03
1.07
0.14
-0.73
-1.57
-2.45
-3.5
-4.82
-6.38
-8.11
-9.87
-11.53
-13.06
-14.52
-15.99
-17.51
-19.12
-20.86
-22.79
-25.04
-27.63
-30.36
-32.73
-34.02
-33.54
-30.91
-26.21
-20.0
-13.08
-6.24
-0.07
5.14
9.24
12.25
14.24
15.37
15.87
16.06
16.25
16.67
17.4
18.43
19.6
20.77
21.82
22.74
23.6
24.48
25.39
26.28
26.99
27.33
27.23
26.68
25.77
24.63
23.3
21.85
20.33
18.87
17.57
16.5
15.62
14.78
13.85
12.73
11.42
9.94
8.28
6.41
4.28
1.91
-0.6
-3.1
-5.45
-7.58
-9.54
-11.4
-13.25
-15.19
-17.31
-19.76
-22.64
-25.88
-29.18
-32.0
-33.68
-33.63
-31.57
-27.58
-22.09
-15.77
-9.31
-3.35
1.68
5.56
8.31
10.11
11.2
11.85
12.24
12.55
12.91
13.4
14.05
14.84
15.73
16.66
17.6
18.56
19.54
20.49
21.3
21.8
21.84
21.37
20.4
19.06
17.55
16.04
14.66
13.43
12.26
11.04
9.68
8.21
6.71
5.33
4.05
2.8
1.45
-0.05
-1.62
-3.07
-4.32
-5.44
-6.67
-8.28
-10.35
-12.73
-15.09
-17.13
-18.79
-20.23
-21.74
-23.53
-25.65
-27.95
-30.35
-32.81
-35.38
-38.06
-40.62
-42.64
-43.5
-42.67
-39.85
-35.11
-28.84
-21.69
-14.39
-7.66
-2.09
1.9
4.08
4.46
3.34
1.29
-0.98
-2.75
-3.5
-3.08
-1.69
0.2
2.14
3.82
5.2
6.42
7.62
8.87
10.05
10.97
11.47
11.52
11.2
10.68
10.07
9.42
8.7
7.85
6.86
5.84
4.98
4.42
4.2
4.22
4.21
3.94
3.28
2.26
1.0
-0.35
-1.73
-3.14
-4.59
-6.06
-7.47
-8.78
-9.92
-10.95
-11.9
-12.84
-13.87
-15.14
-16.81
-18.99
-21.69
-24.77
-27.97
-30.94
-33.37
-34.91
-35.23
-34.04
-31.2
-26.79
-21.2
-14.98
-8.76
-3.07
1.79
5.68
8.54
10.41
11.4
11.75
11.76
11.76
12.02
12.73
13.98
15.77
18.07
20.76
23.64
26.47
28.97
30.9
32.08
32.41
31.86
30.53
28.65
26.55
24.61
23.09
22.06
21.36
20.65
19.65
18.19
16.34
14.28
12.24
10.36
8.68
7.15
5.72
4.34
2.99
1.64
0.24
-1.27
-2.96
-4.9
-7.07
-9.46
-12.02
-14.68
-17.4
-20.09
-22.61
-24.69
-25.94
-25.91
-24.26
-20.91
-16.18
-10.65
-5.06
-0.02
4.12
7.29
9.6
11.23
12.28
12.87
13.11
13.2
13.36
13.78
14.54
15.59
16.81
17.99
18.99
19.7
20.11
20.3
20.36
20.36
20.27
19.92
19.16
17.87
16.12
14.13
12.26
10.76
9.73
9.06
8.52
7.88
7.05
6.04
4.88
3.67
2.4
1.12
-0.16
-1.44
-2.76
-4.25
-6.05
-8.19
-10.59
-13.05
-15.36
-17.39
-19.17
-20.82
-22.47
-24.24
-26.21
-28.5
-31.29
-34.68
-38.61
-42.7
-46.35
-48.85
-49.62
-48.37
-45.13
-40.23
-34.18
-27.61
-21.18
-15.45
-10.76
-7.2
-4.57
-2.54
-0.77
0.96
2.72
4.5
6.27
7.93
9.34
10.41
11.09
11.46
11.73
12.1
12.69
13.46
14.24
14.85
15.2
15.23
14.92
14.2
13.07
11.59
10.02
8.73
7.98
7.86
8.15
8.43
8.34
7.69
6.53
5.11
3.72
2.51
1.5
0.57
-0.44
-1.63
-2.98
-4.39
-5.77
-7.12
-8.52
-10.1
-11.89
-13.83
-15.72
-17.43
-18.97
-20.46
-22.0
-23.5
-24.61
-24.79
-23.58
-20.8
-16.64
-11.58
-6.2
-1.02
3.6
7.43
10.38
12.44
13.69
14.3
14.51
14.54
14.61
14.82
15.23
15.87
16.72
17.79
19.08
20.56
22.14
23.68
24.95
25.73
25.88
25.38
24.4
23.17
21.93
20.81
19.81
18.81
17.65
16.21
14.44
12.37
10.16
8.01
6.17
4.81
3.95
3.44
3.0
2.35
1.27
-0.36
-2.51
-5.13
-8.09
-11.27
-14.52
-17.73
-20.78
-23.55
-25.83
-27.34
-27.7
-26.65
-24.15
-20.48
-16.1
-11.52
-7.07
-2.89
1.0
4.51
7.46
9.6
10.82
11.22
11.08
10.75
10.5
10.47
10.71
11.33
12.41
13.94
15.72
17.39
18.57
19.02
18.8
18.18
17.44
16.73
15.94
14.89
13.45
11.71
9.94
8.43
7.33
6.57
5.87
4.97
3.73
2.24
0.7
-0.64
-1.68
-2.51
-3.35
-4.44
-5.95
-7.89
-10.16
-12.61
-15.1
-17.47
-19.59
-21.36
-22.8
-24.09
-25.57
-27.63
-30.47
-33.91
-37.42
-40.24
-41.63
-41.15
-38.72
-34.6
-29.26
-23.24
-17.16
-11.59
-6.95
-3.49
-1.14
0.35
1.34
2.13
2.87
3.63
4.46
5.45
6.67
8.14
9.71
11.15
12.28
13.11
13.81
14.62
15.63
16.74
17.65
18.04
17.77
16.94
15.76
14.51
13.38
12.45
11.76
11.29
10.96
10.67
10.22
9.42
8.15
6.39
4.24
1.85
-0.64
-3.2
-5.76
-8.28
-10.61
-12.6
-14.17
-15.34
-16.27
-17.15
-18.18
-19.47
-21.07
-23.0
-25.24
-27.78
-30.48
-33.02
-34.9
-35.57
-34.58
-31.84
-27.63
-22.54
-17.26
-12.31
-7.95
-4.22
-1.03
1.69
3.93
5.66
6.89
7.77
8.47
9.2
10.06
11.1
12.33
13.76
15.41
17.25
19.18
21.01
22.5
23.49
23.89
23.76
23.23
22.45
21.54
20.59
19.65
18.75
17.89
17.08
16.32
15.58
14.82
13.98
12.99
11.82
10.49
9.09
7.75
6.58
5.56
4.55
3.32
1.65
-0.56
-3.21
-6.14
-9.08
-11.85
-14.37
-16.57
-18.35
-19.48
-19.65
-18.51
-15.95
-12.1
-7.47
-2.73
1.45
4.65
6.8
8.18
9.18
10.09
10.99
11.75
12.21
12.34
12.27
12.22
12.4
12.9
13.66
14.6
15.67
16.83
18.06
19.23
20.1
20.43
20.05
18.94
17.28
15.32
13.38
11.72
10.53
9.79
9.35
8.96
8.31
7.24
5.76
3.99
2.14
0.36
-1.25
-2.66
-3.9
-5.03
-6.13
-7.36
-8.86
-10.7
-12.82
-15.09
-17.31
-19.4
-21.33
-23.18
-25.08
-27.11
-29.33
-31.69
-34.1
-36.34
-38.07
-38.91
-38.48
-36.54
-33.09
-28.34
-22.72
-16.77
-11.07
-6.1
-2.21
0.53
2.26
3.24
3.77
4.12
4.47
4.95
5.66
6.67
7.94
9.36
10.71
11.82
12.58
13.01
13.23
13.32
13.33
13.28
13.17
12.99
12.71
12.27
11.55
10.52
9.23
7.86
6.63
5.67
4.96
4.4
3.89
3.43
3.09
2.87
2.68
2.3
1.52
0.24
-1.44
-3.29
-5.11
-6.77
-8.23
-9.54
-10.73
-11.86
-13.01
-14.27
-15.75
-17.49
-19.41
-21.38
-23.28
-25.04
-26.72
-28.45
-30.3
-32.19
-33.82
-34.72
-34.38
-32.47
-28.98
-24.24
-18.89
-13.53
-8.63
-4.41
-0.89
1.95
4.1
5.51
6.22
6.36
6.24
6.19
6.5
7.35
8.77
10.68
12.91
15.24
17.39
19.17
20.43
21.13
21.36
21.28
21.04
20.79
20.65
20.6
20.57
20.4
19.92
19.06
17.87
16.51
15.18
14.0
13.0
12.18
11.55
11.1
10.73
10.28
9.47
8.07
6.06
3.65
1.2
-0.93
-2.61
-3.96
-5.2
-6.59
-8.27
-10.2
-12.25
-14.18
-15.68
-16.39
-15.98
-14.28
-11.33
-7.46
-3.15
1.1
4.9
8.02
10.36
11.91
12.72
12.85
12.46
11.75
10.97
10.39
10.27
10.77
11.89
13.52
15.33
16.96
18.05
18.44
18.13
17.33
16.32
15.36
14.61
14.07
13.62
13.08
12.27
11.12
9.67
8.11
6.65
5.42
4.43
3.57
2.71
1.79
0.82
-0.18
-1.22
-2.43
-3.95
-5.86
-8.1
-10.49
-12.84
-14.98
-16.84
-18.38
-19.57
-20.44
-21.14
-21.95
-23.25
-25.31
-28.14
-31.43
-34.57
-36.93
-37.97
-37.38
-35.12
-31.37
-26.47
-20.87
-15.11
-9.68
-5.02
-1.38
1.17
2.8
3.76
4.35
4.82
5.32
5.9
6.54
7.25
8.02
8.93
9.98
11.18
12.4
13.48
14.29
14.76
14.9
14.7
14.17
13.24
11.9
10.25
8.48
6.84
5.51
4.54
3.83
3.17
2.39
1.45
0.38
-0.74
-1.84
-2.89
-3.89
-4.82
-5.7
-6.5
-7.24
-7.97
-8.72
-9.57
-10.6
-11.87
-13.45
-15.39
-17.66
-20.14
-22.66
-25.06
-27.18
-28.91
-30.13
-30.71
-30.47
-29.25
-26.88
-23.32
-18.65
-13.18
-7.5
-2.36
1.41
3.21
2.76
0.26
-3.72
-8.35
-12.7
-15.93
-17.44
-16.91
-14.37
-10.2
-4.96
0.65
6.09
10.85
14.65
17.26
18.58
18.68
17.79
16.36
14.87
13.72
13.06
12.85
12.93
13.15
13.46
13.85
14.31
14.76
15.09
15.16
14.92
14.39
13.67
12.86
12.08
11.34
10.61
9.78
8.7
7.26
5.45
3.31
0.97
-1.51
-4.09
-6.73
-9.28
-11.44
-12.77
-12.91
-11.7
-9.28
-6.05
-2.5
0.98
4.16
6.98
9.38
11.26
12.44
12.86
12.56
11.86
11.13
10.78
11.02
11.86
13.15
14.65
16.14
17.49
18.62
19.45
19.91
19.89
19.35
18.38
17.17
15.94
14.83
13.9
13.05
12.18
11.22
10.16
9.05
7.86
6.56
5.06
3.36
1.59
-0.05
-1.43
-2.55
-3.59
-4.82
-6.4
-8.39
-10.64
-12.96
-15.25
-17.48
-19.7
-21.91
-24.0
-25.77
-26.98
-27.42
-26.91
-25.3
-22.5
-18.5
-13.51
-7.96
-2.5
2.13
5.36
6.94
7.09
6.38
5.52
5.08
5.26
5.9
6.65
7.28
7.8
8.5
9.76
11.77
14.48
17.65
21.02
24.41
27.62
30.23
31.51
30.55
26.72
20.06
11.49
2.51
-5.36
-11.09
-14.47
-15.97
-16.33
-16.16
-15.73
-15.04
-14.0
-12.68
-11.34
-10.32
-9.94
-10.34
-11.42
-13.0
-14.8
-16.66
-18.52
-20.39
-22.34
-24.42
-26.6
-28.83
-31.03
-33.12
-34.97
-36.48
-37.41
-37.51
-36.46
-33.98
-29.96
-24.54
-18.21
-11.68
-5.75
-1.05
2.11
3.77
4.26
3.99
3.39
2.83
2.62
2.97
3.93
5.35
6.91
8.27
9.2
9.73
10.09
10.58
11.31
12.16
12.87
13.2
13.05
12.51
11.71
10.76
9.68
8.46
7.15
5.9
4.9
4.27
4.02
3.98
3.88
3.49
2.65
1.39
-0.1
-1.57
-2.77
-3.63
-4.21
-4.75
-5.42
-6.33
-7.48
-8.84
-10.41
-12.23
-14.3
-16.42
-18.16
-18.91
-18.12
-15.52
-11.25
-5.85
-0.08
5.29
9.72
12.99
15.15
16.45
17.13
17.38
17.27
16.91
16.49
16.36
16.84
18.08
19.96
22.14
24.19
25.82
26.93
27.58
27.9
27.94
27.74
27.28
26.57
25.65
24.58
23.42
22.21
20.96
19.66
18.26
16.7
14.93
13.0
11.08
9.34
7.92
6.75
5.67
4.46
2.94
1.09
-1.05
-3.39
-5.86
-8.34
-10.76
-13.0
-15.03
-16.92
-18.75
-20.57
-22.19
-23.2
-23.08
-21.5
-18.47
-14.36
-9.78
-5.29
-1.29
2.06
4.7
6.56
7.54
7.62
6.94
5.85
4.81
4.28
4.54
5.62
7.29
9.2
10.98
12.3
13.06
13.32
13.24
13.01
12.71
12.37
11.9
11.24
10.39
9.41
8.37
7.36
6.45
5.68
5.07
4.57
4.13
3.68
3.15
2.52
1.75
0.85
-0.21
-1.47
-2.93
-4.52
-6.16
-7.8
-9.42
-11.11
-12.96
-15.01
-17.19
-19.36
-21.39
-23.28
-25.13
-27.18
-29.59
-32.34
-35.13
-37.42
-38.6
-38.2
-36.1
-32.53
-28.0
-23.13
-18.42
-14.18
-10.54
-7.51
-5.06
-3.1
-1.54
-0.24
0.93
2.05
3.16
4.21
5.16
6.0
6.77
7.56
8.48
9.64
11.06
12.67
14.34
15.84
16.89
17.28
16.92
15.89
14.4
12.75
11.19
9.89
8.88
8.16
7.67
7.35
7.12
6.82
6.27
5.34
4.01
2.38
0.69
-0.82
-2.01
-2.86
-3.46
-3.95
-4.49
-5.19
-6.12
-7.34
-8.88
-10.67
-12.6
-14.45
-16.05
-17.28
-18.2
-19.0
-19.91
-21.01
-22.15
-22.93
-22.79
-21.23
-18.05
-13.46
-8.06
-2.67
2.01
5.6
8.08
9.74
10.9
11.7
12.17
12.22
11.94
11.61
11.63
12.32
13.72
15.57
17.42
18.94
20.0
20.71
21.29
21.87
22.44
22.86
23.0
22.77
22.21
21.37
20.31
19.13
17.88
16.59
15.26
13.91
12.59
11.36
10.34
9.58
9.03
8.49
7.72
6.51
4.82
2.8
0.65
-1.47
-3.53
-5.6
-7.78
-10.1
-12.53
-15.0
-17.42
-19.7
-21.75
-23.4
-24.37
-24.34
-23.05
-20.36
-16.41
-11.62
-6.58
-1.96
1.74
4.3
5.85
6.69
7.18
7.52
7.79
8.0
8.14
8.34
8.68
9.24
9.96
10.8
11.71
12.67
13.7
14.75
15.64
16.19
16.28
15.94
15.32
14.63
13.94
13.19
12.24
11.05
9.64
8.22
6.99
6.03
5.32
4.68
3.95
3.02
1.93
0.75
-0.45
-1.67
-3.01
-4.59
-6.5
-8.65
-10.88
-12.94
-14.7
-16.15
-17.53
-19.08
-21.02
-23.4
-26.1
-28.97
-31.89
-34.77
-37.49
-39.8
-41.24
-41.26
-39.46
-35.75
-30.51
-24.46
-18.42
-13.07
-8.76
-5.54
-3.23
-1.59
-0.45
0.33
0.84
1.16
1.43
1.83
2.5
3.58
5.08
6.93
8.98
11.05
12.95
14.52
15.68
16.33
16.48
16.13
15.37
14.29
13.04
11.77
10.62
9.67
8.95
8.32
7.66
6.86
5.92
4.96
4.2
3.77
3.61
3.47
2.97
1.86
0.13
-1.94
-3.99
-5.71
-7.0
-7.98
-8.83
-9.68
-10.61
-11.63
-12.83
-14.33
-16.21
-18.47
-20.95
-23.45
-25.79
-27.92
-29.85
-31.56
-32.85
-33.35
-32.66
-30.5
-26.91
-22.23
-16.98
-11.72
-6.95
-2.95
0.1
2.2
3.5
4.21
4.64
5.11
5.85
6.97
8.42
10.09
11.85
13.65
15.45
17.27
19.07
20.73
22.11
23.11
23.7
23.96
24.03
23.99
23.87
23.65
23.27
22.7
21.9
20.78
19.28
17.38
15.22
13.08
11.31
10.08
9.34
8.81
8.11
7.01
5.49
3.71
1.87
0.07
-1.73
-3.57
-5.52
-7.57
-9.72
-11.95
-14.17
-16.11
-17.32
-17.28
-15.63
-12.36
-7.9
-2.96
1.74
5.72
8.81
11.09
12.7
13.76
14.33
14.44
14.2
13.76
13.3
12.99
13.01
13.44
14.25
15.32
16.44
17.39
18.03
18.35
18.42
18.3
17.95
17.25
16.13
14.61
12.88
11.2
9.72
8.46
7.31
6.13
4.81
3.34
1.75
0.0
-1.92
-4.03
-6.28
-8.55
-10.69
-12.64
-14.43
-16.22
-18.18
-20.44
-23.06
-26.02
-29.23
-32.51
-35.61
-38.18
-39.81
-40.1
-38.78
-35.74
-31.1
-25.32
-19.01
-12.92
-7.66
-3.58
-0.72
1.11
2.22
2.83
3.12
3.23
3.35
3.72
4.51
5.79
7.43
9.21
10.87
12.27
13.36
14.18
14.79
15.21
15.49
15.59
15.46
14.99
14.12
12.87
11.34
9.73
8.19
6.78
5.45
4.14
2.82
1.5
0.2
-1.14
-2.69
-4.63
-6.98
-9.64
-12.3
-14.7
-16.71
-18.36
-19.81
-21.29
-22.97
-25.02
-27.51
-30.45
-33.65
-36.74
-39.19
-40.38
-39.85
-37.37
-33.09
-27.54
-21.43
-15.51
-10.34
-6.16
-2.92
-0.37
1.74
3.57
5.15
6.51
7.69
8.81
10.0
11.29
12.67
14.06
15.42
16.71
17.94
19.03
19.94
20.59
21.02
21.28
21.42
21.35
20.94
20.05
18.64
16.85
14.93
13.1
11.48
10.11
8.98
8.06
7.3
6.58
5.76
4.65
3.21
1.52
-0.24
-1.96
-3.71
-5.66
-7.99
-10.61
-13.09
-14.79
-15.07
-13.65
-10.68
-6.68
-2.29
1.92
5.66
8.8
11.37
13.35
14.72
15.42
15.51
15.16
14.65
14.29
14.34
14.9
15.95
17.31
18.74
20.02
21.02
21.67
22.01
22.07
21.84
21.29
20.41
19.21
17.74
16.05
14.19
12.24
10.24
8.32
6.59
5.04
3.63
2.16
0.49
-1.47
-3.68
-6.0
-8.28
-10.49
-12.7
-15.07
-17.69
-20.48
-23.1
-25.02
-25.68
-24.66
-21.91
-17.72
-12.65
-7.36
-2.36
2.01
5.63
8.49
10.65
12.17
13.15
13.71
14.0
14.17
14.38
14.76
15.43
16.4
17.61
18.89
20.01
20.8
21.16
21.13
20.78
20.22
19.51
18.69
17.79
16.86
15.88
14.81
13.61
12.25
10.83
9.51
8.4
7.49
6.6
5.5
3.98
2.08
-0.07
-2.21
-4.16
-5.86
-7.38
-8.86
-10.47
-12.34
-14.53
-17.06
-19.86
-22.82
-25.81
-28.73
-31.49
-33.9
-35.69
-36.45
-35.79
-33.49
-29.63
-24.6
-19.02
-13.53
-8.61
-4.56
-1.48
0.68
2.07
2.92
3.48
3.99
4.6
5.32
6.08
6.84
7.58
8.36
9.19
10.04
10.8
11.38
11.73
11.87
11.85
11.66
11.25
10.5
9.44
8.18
6.99
6.09
5.62
5.55
5.7
5.8
5.56
4.82
3.53
1.79
-0.15
-2.01
-3.59
-4.81
-5.78
-6.67
-7.67
-8.91
-10.4
-12.1
-13.93
-15.82
-17.7
-19.56
-21.36
-23.13
-24.81
-26.32
-27.46
-28.05
-27.91
-26.92
-25.01
-22.19
-18.62
-14.57
-10.51
-6.88
-4.03
-2.03
-0.73
0.17
0.92
1.62
2.22
2.66
3.03
3.51
4.38
5.83
7.86
10.32
12.91
15.23
16.92
17.75
17.73
17.13
16.39
15.89
15.74
15.8
15.74
15.34
14.66
13.88
13.21
12.71
12.22
11.55
10.63
9.58
8.64
7.94
7.38
6.7
5.61
3.94
1.73
-0.82
-3.41
-5.8
-7.79
-9.36
-10.59
-11.6
-12.4
-12.86
-12.7
-11.68
-9.75
-7.09
-4.1
-1.1
1.72
4.33
6.75
8.93
10.68
11.87
12.49
12.67
12.67
12.69
12.84
13.11
13.53
14.11
14.85
15.71
16.53
17.14
17.41
17.31
16.92
16.33
15.59
14.71
13.71
12.65
11.64
10.74
9.95
9.17
8.33
7.34
6.19
4.87
3.42
1.89
0.37
-1.04
-2.25
-3.28
-4.25
-5.31
-6.6
-8.26
-10.35
-12.82
-15.59
-18.49
-21.29
-23.77
-25.85
-27.52
-28.84
-29.77
-30.11
-29.58
-27.97
-25.25
-21.63
-17.52
-13.27
-9.2
-5.45
-2.18
0.49
2.43
3.61
4.15
4.26
4.22
4.27
4.56
5.11
5.91
6.84
7.77
8.54
9.09
9.45
9.73
9.97
10.16
10.16
9.84
9.16
8.18
7.09
6.04
5.13
4.34
3.59
2.78
1.82
0.64
-0.72
-2.19
-3.62
-4.89
-5.93
-6.76
-7.46
-8.07
-8.65
-9.23
-9.92
-10.88
-12.21
-13.89
-15.71
-17.37
-18.62
-19.42
-19.98
-20.66
-21.76
-23.45
-25.69
-28.3
-31.05
-33.65
-35.76
-36.96
-36.86
-35.16
-31.86
-27.25
-21.91
-16.53
-11.81
-8.19
-5.79
-4.41
-3.59
-2.81
-1.7
-0.14
1.7
3.51
5.03
6.14
6.95
7.67
8.44
9.28
10.14
10.96
11.71
12.46
13.23
13.95
14.48
14.68
14.48
13.95
13.29
12.67
12.23
12.01
11.99
12.09
12.16
12.07
11.7
11.03
10.13
9.21
8.44
7.88
7.46
7.03
6.42
5.55
4.44
3.08
1.48
-0.42
-2.63
-4.99
-7.3
-9.35
-11.05
-12.46
-13.71
-14.77
-15.43
-15.36
-14.21
-11.94
-8.8
-5.26
-1.83
1.11
3.49
5.37
6.93
8.27
9.44
10.34
10.93
11.14
11.06
10.89
10.89
11.3
12.22
13.59
15.17
16.65
17.78
18.44
18.67
18.56
18.24
17.73
17.05
16.2
15.22
14.13
12.96
11.77
10.57
9.43
8.37
7.38
6.43
5.43
4.35
3.17
1.89
0.51
-1.0
-2.67
-4.51
-6.48
-8.49
-10.49
-12.5
-14.56
-16.78
-19.21
-21.84
-24.56
-27.25
-29.71
-31.75
-33.16
-33.71
-33.29
-31.83
-29.39
-26.09
-22.09
-17.66
-13.11
-8.84
-5.19
-2.36
-0.37
0.93
1.72
2.13
2.21
2.03
1.71
1.54
1.81
2.74
4.36
6.42
8.59
10.47
11.75
12.25
11.95
11.05
9.87
8.79
8.09
7.83
7.82
7.74
7.24
6.17
4.56
2.61
0.63
-1.08
-2.34
-3.13
-3.55
-3.85
-4.29
-5.01
-6.04
-7.27
-8.65
-10.21
-12.09
-14.38
-17.05
-19.83
-22.35
-24.39
-25.97
-27.35
-28.94
-30.98
-33.47
-36.09
-38.36
-39.71
-39.69
-38.06
-34.83
-30.27
-24.89
-19.27
-13.95
-9.31
-5.57
-2.8
-0.99
0.03
0.54
0.91
1.53
2.6
4.13
5.94
7.83
9.71
11.59
13.51
15.46
17.32
18.9
20.12
21.02
21.73
22.38
22.98
23.43
23.55
23.21
22.36
21.09
19.58
18.02
16.59
15.42
14.51
13.81
13.17
12.42
11.44
10.14
8.51
6.61
4.54
2.39
0.28
-1.74
-3.72
-5.78
-8.06
-10.62
-13.42
-16.23
-18.67
-20.3
-20.69
-19.54
-16.75
-12.51
-7.31
-1.8
3.33
7.54
10.6
12.5
13.42
13.61
13.32
12.82
12.4
12.37
12.94
14.18
15.97
18.06
20.15
21.97
23.35
24.21
24.58
24.54
24.27
23.92
23.61
23.3
22.86
22.14
21.03
19.54
17.75
15.82
13.87
11.98
10.15
8.4
6.68
4.98
3.27
1.48
-0.46
-2.63
-5.08
-7.82
-10.75
-13.77
-16.75
-19.63
-22.45
-25.31
-28.29
-31.35
-34.19
-36.35
-37.29
-36.57
-33.96
-29.63
-23.98
-17.65
-11.32
-5.53
-0.65
3.14
5.88
7.7
8.83
9.55
10.13
10.72
11.41
12.17
12.97
13.82
14.81
16.02
17.42
18.83
19.95
20.52
20.48
19.92
19.1
18.22
17.33
16.39
15.28
13.96
12.45
10.83
9.14
7.37
5.48
3.47
1.42
-0.58
-2.45
-4.13
-5.7
-7.3
-9.09
-11.25
-13.85
-16.86
-20.07
-23.27
-26.3
-29.19
-32.11
-35.31
-38.91
-42.81
-46.59
-49.66
-51.39
-51.26
-49.0
-44.67
-38.58
-31.31
-23.55
-15.96
-9.12
-3.38
1.09
4.26
6.24
7.27
7.69
7.89
8.28
9.09
10.39
12.05
13.92
15.82
17.67
19.36
20.77
21.72
22.07
21.85
21.25
20.54
19.94
19.44
18.81
17.78
16.24
14.31
12.31
10.61
9.44
8.79
8.5
8.33
8.1
7.65
6.86
5.55
3.55
0.73
-2.94
-7.29
-12.02
-16.74
-21.13
-24.97
-28.14
-30.54
-31.96
-32.07
-30.53
-27.13
-21.94
-15.4
-8.24
-1.25
4.88
9.77
13.3
15.63
17.02
17.77
18.15
18.34
18.48
18.65
18.95
19.49
20.41
21.78
23.53
25.44
27.19
28.53
29.33
29.61
29.46
28.93
27.98
26.59
24.83
22.85
20.88
19.05
17.32
15.51
13.48
11.22
8.87
6.71
4.87
3.23
1.52
-0.64
-3.49
-7.06
-11.16
-15.5
-19.68
-23.33
-26.05
-27.45
-27.22
-25.11
-21.13
-15.52
-8.76
-1.5
5.66
12.24
18.03
22.89
26.64
28.9
29.15
27.02
22.63
16.77
10.7
5.75
2.85
2.16
3.22
5.22
7.42
9.39
10.97
12.14
12.84
12.92
12.23
10.72
8.56
6.08
3.72
1.8
0.42
-0.58
-1.57
-2.96
-5.0
-7.68
-10.7
-13.71
-16.41
-18.72
-20.76
-22.77
-24.94
-27.41
-30.19
-33.26
-36.63
-40.32
-44.3
-48.29
-51.79
-54.03
-54.29
-52.08
-47.39
-40.7
-32.87
-24.84
-17.37
-10.93
-5.66
-1.41
2.02
4.85
7.27
9.39
11.33
13.13
14.82
16.31
17.48
18.29
18.88
19.67
21.26
24.18
28.61
34.18
40.04
45.1
48.4
49.39
48.08
44.85
40.36
35.25
30.02
25.03
20.46
16.43
12.99
10.11
7.75
5.73
3.8
1.7
-0.8
-3.72
-6.91
-10.05
-12.88
-15.3
-17.46
-19.67
-22.26
-25.4
-29.07
-33.02
-36.9
-40.22
-42.51
-43.2
-41.91
-38.46
-33.08
-26.4
-19.25
-12.5
-6.73
-2.16
1.3
3.93
5.99
7.65
9.0
10.08
10.94
11.69
12.46
13.34
14.38
15.52
16.69
17.83
18.92
19.96
20.98
21.92
22.66
23.02
22.84
22.03
20.62
18.76
16.67
14.64
12.91
11.6
10.71
10.03
9.27
8.12
6.42
4.21
1.63
-1.12
-3.96
-6.91
-10.04
-13.46
-17.2
-21.26
-25.64
-30.2
-34.64
-38.48
-41.07
-41.9
-40.74
-37.85
-33.86
-29.57
-25.67
-22.67
-20.88
-20.44
-21.41
-23.68
-26.94
-30.62
-34.09
-36.76
-38.23
-38.28
-36.79
-33.67
-28.82
-22.23
-13.98
-4.33
6.38
17.8
29.52
41.12
52.09
61.88
70.0
76.1
80.07
81.99
82.12
80.78
78.3
74.93
70.84
66.11
60.78
54.9
48.65
42.3
36.08
30.22
24.75
19.59
14.62
9.71
4.8
-0.19
-5.32
-10.55
-15.7
-20.39
-24.11
-26.35
-26.75
-25.26
-22.09
-17.72
-12.75
-7.78
-3.28
0.44
3.31
5.48
7.16
8.54
9.68
10.57
11.17
11.54
11.81
12.2
12.9
13.96
15.35
16.9
18.4
19.67
20.54
20.96
20.96
20.7
20.34
19.97
19.58
19.0
18.06
16.7
15.0
13.21
11.56
10.2
9.13
8.23
7.3
6.21
4.86
3.19
1.18
-1.15
-3.77
-6.57
-9.48
-12.43
-15.37
-18.23
-20.95
-23.48
-25.83
-28.09
-30.45
-33.04
-35.91
-38.97
-42.06
-44.97
-47.54
-49.57
-50.73
-50.62
-48.83
-45.19
-39.89
-33.5
-26.8
-20.47
-14.9
-10.17
-6.14
-2.6
0.53
3.3
5.64
7.56
9.07
10.28
11.27
12.17
13.06
13.98
14.94
15.9
16.82
17.68
18.44
19.04
19.38
19.31
18.75
17.69
16.24
14.63
13.08
11.78
10.86
10.34
10.17
10.18
10.14
9.86
9.21
8.25
7.19
6.24
5.56
5.18
4.93
4.59
3.93
2.83
1.21
-0.86
-3.32
-5.97
-8.6
-10.99
-12.97
-14.47
-15.62
-16.65
-17.9
-19.54
-21.51
-23.44
-24.71
-24.72
-23.13
-19.99
-15.73
-10.95
-6.19
-1.75
2.29
5.92
9.06
11.58
13.31
14.32
14.86
15.3
15.93
16.85
17.92
18.97
19.87
20.71
21.59
22.55
23.48
24.13
24.27
23.82
22.88
21.69
20.47
19.34
18.35
17.45
16.6
15.72
14.71
13.54
12.19
10.72
9.25
7.86
6.57
5.28
3.86
2.23
0.36
-1.71
-3.88
-6.1
-8.31
-10.49
-12.62
-14.71
-16.77
-18.81
-20.84
-22.92
-25.08
-27.36
-29.67
-31.76
-33.13
-33.22
-31.53
-27.94
-22.77
-16.78
-10.88
-5.82
-1.98
0.66
2.41
3.63
4.57
5.36
5.99
6.47
6.88
7.3
7.86
8.61
9.53
10.51
11.49
12.38
13.18
13.89
14.53
15.06
15.39
15.4
15.05
14.34
13.36
12.19
10.92
9.58
8.25
6.99
5.9
5.0
4.23
3.44
2.51
1.4
0.19
-0.97
-2.04
-3.05
-4.15
-5.46
-6.96
-8.53
-10.0
-11.29
-12.48
-13.72
-15.12
-16.7
-18.37
-20.08
-21.86
-23.84
-26.11
-28.69
-31.41
-34.09
-36.52
-38.54
-40.0
-40.68
-40.32
-38.66
-35.63
-31.39
-26.36
-21.08
-16.07
-11.7
-8.17
-5.48
-3.55
-2.24
-1.36
-0.75
-0.25
0.27
0.92
1.74
2.71
3.74
4.77
5.76
6.77
7.84
8.97
10.08
11.0
11.58
11.75
11.57
11.16
10.57
9.78
8.73
7.46
6.08
4.84
3.96
3.52
3.46
3.6
3.79
3.92
3.94
3.82
3.45
2.75
1.68
0.23
-1.45
-3.24
-4.98
-6.54
-7.82
-8.79
-9.48
-10.0
-10.51
-11.23
-12.29
-13.79
-15.7
-17.92
-20.19
-22.17
-23.41
-23.48
-22.11
-19.25
-15.21
-10.49
-5.69
-1.31
2.35
5.2
7.29
8.77
9.81
10.57
11.16
11.62
11.94
12.09
12.07
11.95
11.86
11.97
12.43
13.3
14.61
16.24
18.03
19.72
21.03
21.74
21.71
20.95
19.64
18.07
16.55
15.4
14.78
14.67
14.86
15.01
14.8
14.04
12.77
11.25
9.75
8.48
7.43
6.47
5.36
3.97
2.3
0.45
-1.45
-3.34
-5.26
-7.3
-9.55
-12.0
-14.54
-16.99
-19.22
-21.15
-22.78
-24.13
-25.18
-25.75
-25.59
-24.47
-22.23
-18.94
-14.89
-10.52
-6.3
-2.6
0.41
2.72
4.4
5.54
6.2
6.42
6.3
6.02
5.8
5.86
6.27
7.0
7.9
8.85
9.78
10.67
11.53
12.31
12.86
13.06
12.79
12.06
11.04
9.93
8.92
8.13
7.56
7.1
6.61
5.98
5.15
4.14
3.05
1.91
0.69
-0.67
-2.21
-3.91
-5.6
-7.11
-8.32
-9.27
-10.2
-11.39
-12.97
-14.87
-16.81
-18.48
-19.73
-20.66
-21.53
-22.68
-24.29
-26.37
-28.76
-31.23
-33.57
-35.59
-37.09
-37.88
-37.71
-36.35
-33.68
-29.77
-24.91
-19.6
-14.45
-10.01
-6.64
-4.38
-3.0
-2.16
-1.53
-0.94
-0.41
-0.04
0.16
0.27
0.49
1.07
2.14
3.71
5.65
7.7
9.56
10.97
11.75
11.89
11.52
10.9
10.25
9.7
9.23
8.83
8.42
8.01
7.6
7.14
6.58
5.83
4.88
3.78
2.64
1.57
0.67
-0.02
-0.51
-0.9
-1.34
-2.08
-3.29
-4.99
-7.0
-9.0
-10.68
-11.97
-12.98
-13.97
-15.15
-16.57
-18.2
-19.98
-21.89
-23.86
-25.69
-26.95
-27.11
-25.72
-22.69
-18.34
-13.28
-8.22
-3.65
0.16
3.21
5.62
7.54
9.05
10.23
11.1
11.71
12.14
12.53
13.04
13.77
14.78
16.01
17.32
18.56
19.69
20.69
21.57
22.34
22.93
23.28
23.28
22.93
22.23
21.29
20.19
19.07
18.01
17.05
16.16
15.22
14.11
12.76
11.22
9.62
8.08
6.69
5.4
4.15
2.84
1.42
-0.13
-1.86
-3.83
-6.14
-8.84
-11.89
-15.11
-18.17
-20.68
-22.23
-22.45
-21.18
-18.44
-14.53
-9.95
-5.24
-0.9
2.77
5.63
7.73
9.16
10.04
10.49
10.62
10.53
10.33
10.16
10.17
10.48
11.17
12.21
13.5
14.86
16.13
17.19
18.0
18.55
18.81
18.74
18.29
17.49
16.42
15.24
14.05
12.9
11.72
10.44
9.0
7.48
5.98
4.64
3.52
2.57
1.64
0.56
-0.84
-2.62
-4.74
-7.05
-9.42
-11.72
-13.89
-15.94
-17.88
-19.75
-21.62
-23.6
-25.8
-28.39
-31.48
-35.09
-39.05
-42.92
-46.09
-47.85
-47.65
-45.23
-40.74
-34.74
-28.02
-21.36
-15.38
-10.33
-6.24
-2.9
-0.13
2.22
4.19
5.76
6.95
7.85
8.63
9.47
10.52
11.82
13.29
14.76
16.03
16.94
17.39
17.38
16.99
16.35
15.64
15.03
14.61
14.32
14.0
13.49
12.69
11.64
10.55
9.61
8.9
8.35
7.78
6.97
5.81
4.33
2.64
0.91
-0.77
-2.37
-3.92
-5.5
-7.18
-9.0
-10.92
-12.84
-14.68
-16.37
-17.96
-19.56
-21.4
-23.64
-26.31
-29.27
-32.18
-34.51
-35.75
-35.43
-33.32
-29.51
-24.38
-18.55
-12.7
-7.36
-2.83
0.81
3.67
5.92
7.71
9.15
10.36
11.47
12.59
13.78
15.08
16.48
