0
-25.85
-27.56
-28.17
-27.37
-25.14
-21.72
-17.65
-13.53
-9.85
-6.79
-4.28
-2.16
-0.3
1.28
2.42
3.04
3.22
3.19
3.32
3.89
4.99
6.55
8.34
10.13
11.79
13.25
14.48
15.49
16.25
16.72
16.87
16.65
16.08
15.2
14.14
13.07
12.14
11.48
11.06
10.73
10.29
9.57
8.49
7.13
5.62
4.09
2.59
1.08
-0.54
-2.34
-4.34
-6.47
-8.64
-10.78
-12.88
-14.98
-17.14
-19.43
-21.95
-24.83
-28.09
-31.62
-34.98
-37.51
-38.5
-37.48
-34.44
-29.85
-24.5
-19.18
-14.45
-10.5
-7.21
-4.35
-1.67
0.92
3.36
5.5
7.26
8.59
9.59
10.42
11.24
12.19
13.31
14.58
15.97
17.41
18.81
20.1
21.14
21.81
22.01
21.7
20.99
20.01
18.98
18.03
17.26
16.69
16.26
15.92
15.63
15.37
15.1
14.77
14.3
13.58
12.58
11.32
9.83
8.22
6.56
4.88
3.16
1.38
-0.5
-2.52
-4.62
-6.76
-8.87
-10.93
-12.99
-15.18
-17.64
-20.43
-23.54
-26.85
-30.14
-33.11
-35.4
-36.63
-36.49
-34.84
-31.79
-27.7
-23.06
-18.36
-13.98
-10.15
-6.94
-4.33
-2.18
-0.35
1.35
3.03
4.72
6.38
7.96
9.46
10.97
12.59
14.35
16.2
17.99
19.52
20.66
21.35
21.66
21.67
21.48
21.12
20.63
19.97
19.12
18.05
16.81
15.46
14.1
12.83
11.73
10.83
10.14
9.58
9.03
8.35
7.44
6.33
5.15
4.06
3.15
2.39
1.6
0.61
-0.7
-2.3
-4.07
-5.86
-7.6
-9.32
-11.1
-13.0
-15.07
-17.31
-19.75
-22.43
-25.36
-28.39
-31.19
-33.21
-33.93
-32.97
-30.34
-26.45
-21.97
-17.6
-13.78
-10.66
-8.09
-5.82
-3.68
-1.6
0.39
2.22
3.85
5.3
6.59
7.79
8.99
10.25
11.62
13.07
14.54
15.92
17.11
18.05
18.7
18.99
18.88
18.36
17.49
16.46
15.49
14.73
14.24
13.96
13.76
13.54
13.22
12.71
11.92
10.74
9.19
7.39
5.61
4.08
2.92
2.0
1.01
-0.33
-2.17
-4.38
-6.7
-8.81
-10.55
-11.99
-13.33
-14.85
-16.78
-19.17
-21.96
-24.94
-27.79
-30.11
-31.46
-31.48
-30.01
-27.13
-23.24
-18.86
-14.51
-10.55
-7.12
-4.17
-1.6
0.66
2.64
4.29
5.62
6.68
7.63
8.63
9.84
11.32
13.0
14.75
16.37
17.71
18.7
19.32
19.62
19.64
19.42
18.94
18.21
17.25
16.13
14.95
13.85
12.91
12.21
11.73
11.39
11.06
10.59
9.88
8.89
7.66
6.29
4.91
3.61
2.42
1.29
0.1
-1.29
-2.95
-4.86
-6.91
-8.97
-10.94
-12.82
-14.76
-16.95
-19.57
-22.74
-26.37
-30.18
-33.71
-36.39
-37.7
-37.32
-35.25
-31.83
-27.57
-23.05
-18.72
-14.82
-11.4
-8.42
-5.81
-3.47
-1.34
0.62
2.46
4.16
5.73
7.15
8.45
9.7
11.0
12.44
14.08
15.9
17.78
19.52
20.9
21.74
22.0
21.77
21.23
20.6
19.98
19.37
18.72
17.93
17.02
16.05
15.08
14.14
13.17
12.14
11.02
9.9
8.87
8.02
7.32
6.66
5.88
4.86
3.57
2.02
0.26
-1.67
-3.74
-5.9
-8.05
-10.05
-11.79
-13.29
-14.69
-16.22
-18.11
-20.49
-23.36
-26.59
-29.88
-32.86
-35.01
-35.8
-34.83
-32.0
-27.66
-22.52
-17.42
-13.04
-9.69
-7.26
-5.38
-3.69
-1.99
-0.27
1.4
2.92
4.32
5.72
7.25
8.99
10.9
12.85
14.65
16.19
17.41
18.4
19.31
20.3
21.39
22.44
23.19
23.39
22.92
21.91
20.66
19.55
18.77
18.35
18.14
17.9
17.47
16.76
15.76
14.51
13.04
11.41
9.7
8.04
6.56
5.27
4.08
2.76
1.12
-0.91
-3.23
-5.61
-7.8
-9.69
-11.36
-13.01
-14.89
-17.15
-19.81
-22.75
-25.77
-28.65
-31.2
-33.19
-34.38
-34.49
-33.38
-31.06
-27.77
-23.88
-19.81
-15.85
-12.16
-8.75
-5.62
-2.79
-0.31
1.77
3.41
4.62
5.5
6.22
7.03
8.16
9.76
11.81
14.05
16.17
17.86
18.99
19.63
19.96
20.14
20.23
20.19
19.94
19.45
18.78
18.04
17.33
16.67
16.01
15.27
14.35
13.18
11.82
10.39
9.03
7.85
6.85
5.88
4.73
3.22
1.26
-1.03
-3.44
-5.71
-7.61
-9.1
-10.28
-11.36
-12.61
-14.26
-16.42
-19.08
-22.08
-25.13
-27.8
-29.61
-30.15
-29.19
-26.75
-23.14
-18.9
-14.55
-10.52
-7.07
-4.25
-1.99
-0.14
1.46
2.95
4.41
5.82
7.11
8.19
9.04
9.77
10.55
11.5
12.63
13.83
14.93
15.84
16.54
17.07
17.42
17.55
17.35
16.8
15.97
15.05
14.29
13.84
13.68
13.67
13.54
13.07
12.16
10.85
9.3
7.65
6.05
4.52
3.01
1.47
-0.16
-1.88
-3.64
-5.41
-7.15
-8.84
-10.45
-11.97
-13.43
-14.91
-16.58
-18.64
-21.27
-24.46
-28.02
-31.51
-34.35
-35.95
-35.9
-34.12
-30.94
-26.93
-22.76
-18.93
-15.65
-12.84
-10.24
-7.59
-4.82
-2.01
0.64
2.96
4.88
6.42
7.7
8.83
9.95
11.15
12.53
14.13
15.9
17.71
19.33
20.58
21.36
21.69
21.68
21.45
21.05
20.5
19.83
19.11
18.46
18.01
17.74
17.52
17.14
16.42
15.28
13.83
12.26
10.78
9.49
8.32
7.14
5.77
4.09
2.1
-0.07
-2.3
-4.45
-6.47
-8.39
-10.27
-12.12
-13.99
-15.93
-18.08
-20.59
-23.58
-26.96
-30.35
-33.13
-34.64
-34.41
-32.34
-28.76
-24.32
-19.7
-15.46
-11.9
-9.05
-6.73
-4.76
-2.98
-1.32
0.22
1.62
2.91
4.15
5.43
6.83
8.34
9.94
11.58
13.19
14.75
16.21
17.51
18.61
19.43
19.9
19.99
19.7
19.1
18.28
17.37
16.5
15.74
15.04
14.35
13.55
12.61
11.54
10.4
9.28
8.19
7.15
6.16
5.26
4.48
3.77
3.03
2.06
0.7
-1.07
-3.11
-5.17
-7.02
-8.58
-9.98
-11.51
-13.46
-15.97
-19.01
-22.31
-25.43
-27.9
-29.26
-29.21
-27.61
-24.61
-20.58
-16.08
-11.7
-7.87
-4.82
-2.49
-0.65
0.93
2.33
3.5
4.29
4.66
4.73
4.78
5.12
5.88
7.02
8.3
9.53
10.61
11.63
12.7
13.87
14.99
15.77
15.95
15.39
14.21
12.72
11.29
10.21
9.54
9.19
8.91
8.49
7.83
6.97
6.06
5.21
4.47
3.76
2.94
1.91
0.67
-0.7
-2.06
-3.37
-4.71
-6.25
-8.2
-10.69
-13.73
-17.18
-20.79
-24.21
-27.03
-28.81
-29.18
-28.0
-25.41
-21.81
-17.77
-13.81
-10.27
-7.26
-4.7
-2.44
-0.42
1.39
2.98
4.3
5.41
6.34
7.21
8.15
9.28
10.64
12.23
13.95
15.66
17.24
18.6
19.64
20.28
20.42
19.99
19.09
17.94
16.83
15.95
15.35
14.88
14.3
13.46
12.31
10.97
9.57
8.16
6.78
5.42
4.13
3.03
2.18
1.52
0.82
-0.22
-1.83
-4.03
-6.62
-9.27
-11.67
-13.73
-15.6
-17.58
-20.01
-23.08
-26.65
-30.31
-33.45
-35.4
-35.7
-34.2
-31.19
-27.23
-22.99
-19.02
-15.64
-12.88
-10.6
-8.6
-6.73
-4.92
-3.15
-1.44
0.22
1.82
3.39
4.96
6.58
8.33
10.25
12.35
14.53
16.65
18.54
20.02
20.99
21.4
21.32
20.86
20.17
19.45
18.8
18.27
17.86
17.48
17.06
16.5
15.69
14.55
13.06
11.31
9.47
7.72
6.2
4.92
3.75
2.52
1.06
-0.69
-2.71
-4.89
-7.12
-9.33
-11.5
-13.69
-16.0
-18.53
-21.4
-24.66
-28.27
-32.05
-35.69
-38.69
-40.57
-40.88
-39.48
-36.54
-32.57
-28.2
-24.01
-20.3
-17.09
-14.18
-11.34
-8.49
-5.68
-3.09
-0.81
1.16
2.91
4.61
6.36
8.18
10.03
11.84
13.57
15.27
16.96
18.66
20.24
21.5
22.26
22.39
21.94
21.1
20.16
19.44
19.11
19.18
19.5
19.8
19.83
19.43
18.61
17.51
16.32
15.18
14.14
13.11
11.96
10.6
8.95
7.07
5.04
2.92
0.78
-1.35
-3.49
-5.67
-7.97
-10.48
-13.26
-16.23
-19.16
-21.64
-23.19
-23.42
-22.17
-19.53
-15.89
-11.76
-7.67
-4.04
-1.07
1.24
3.0
4.36
5.33
5.81
5.63
4.7
3.19
1.52
0.21
-0.33
0.03
1.06
2.36
3.56
4.49
5.17
5.78
6.43
7.09
7.63
7.9
7.83
7.47
7.0
6.61
6.41
6.41
6.49
6.44
6.07
5.3
4.18
2.87
1.57
0.4
-0.65
-1.67
-2.78
-4.05
-5.43
-6.85
-8.25
-9.62
-11.07
-12.77
-14.9
-17.55
-20.69
-24.07
-27.23
-29.58
-30.55
-29.81
-27.4
-23.72
-19.4
-15.1
-11.23
-7.92
-5.06
-2.43
0.2
2.93
5.73
8.48
11.02
13.23
15.07
16.59
17.92
19.17
20.42
21.7
22.92
24.0
24.81
25.26
25.33
25.06
24.56
24.04
23.69
23.66
24.06
24.88
26.06
27.44
28.81
29.91
30.46
30.24
29.2
27.39
25.02
22.35
19.57
16.79
13.98
11.01
7.73
3.97
-0.35
-5.23
-10.6
-16.36
-22.36
-28.47
-34.56
-40.45
-45.97
-51.01
-55.49
-59.38
-62.56
-64.74
-65.44
-64.11
-60.35
-54.19
-46.15
-37.18
-28.26
-20.19
-13.3
-7.56
-2.74
1.41
4.98
7.96
10.32
12.15
13.65
15.11
16.75
18.63
20.63
22.49
24.02
25.11
25.89
26.59
27.48
28.72
30.34
32.28
34.49
36.97
39.71
42.59
45.25
47.25
48.18
47.94
46.81
45.25
43.71
42.28
40.77
38.79
36.08
32.68
28.89
25.07
21.38
17.76
13.93
9.67
4.96
0.02
-4.81
-9.29
-13.29
-16.92
-20.31
-23.6
-26.82
-30.04
-33.32
-36.83
-40.68
-44.83
-48.98
-52.59
-55.09
-56.05
-55.37
-53.29
-50.3
-46.89
-43.51
-40.37
-37.54
-34.97
-32.54
-30.17
-27.82
-25.53
-23.34
-21.29
-19.31
-17.28
-15.02
-12.44
-9.56
-6.5
-3.41
-0.4
2.49
5.2
7.67
9.78
11.47
12.72
13.63
14.4
15.18
16.04
16.94
17.78
18.46
18.96
19.3
19.53
19.64
19.58
19.28
18.69
17.76
16.5
14.93
13.1
11.07
8.88
6.63
4.41
2.3
0.36
-1.45
-3.2
-5.02
-7.06
-9.44
-12.17
-15.15
-18.15
-20.79
-22.64
-23.35
-22.71
-20.75
-17.75
-14.12
-10.32
-6.68
-3.32
-0.26
2.56
5.14
7.35
9.04
10.11
10.61
10.74
10.86
11.23
12.05
13.33
14.89
16.47
17.8
18.73
19.26
19.5
19.61
19.67
19.64
19.36
18.68
17.59
16.26
14.98
14.01
13.43
13.07
12.64
11.86
10.66
9.18
7.68
6.37
5.36
4.52
3.62
2.42
0.77
-1.32
-3.68
-6.08
-8.35
-10.42
-12.35
-14.26
-16.28
-18.51
-21.0
-23.81
-26.94
-30.25
-33.35
-35.66
-36.54
-35.55
-32.66
-28.32
-23.3
-18.39
-14.14
-10.69
-7.89
-5.39
-2.96
-0.52
1.81
3.82
5.36
6.48
7.32
8.15
9.17
10.48
12.02
13.68
15.32
16.83
18.12
19.11
19.74
20.01
19.96
19.73
19.4
18.99
18.46
17.7
16.72
15.62
14.57
13.75
13.23
12.94
12.68
12.23
11.42
10.2
8.62
6.81
4.94
3.15
1.55
0.1
-1.33
-2.88
-4.66
-6.67
-8.81
-10.92
-12.91
-14.84
-16.89
-19.29
-22.21
-25.61
-29.28
-32.81
-35.7
-37.44
-37.66
-36.21
-33.22
-29.09
-24.38
-19.63
-15.25
-11.41
-8.11
-5.26
-2.77
-0.6
1.27
2.85
4.26
5.57
6.87
8.19
9.55
10.92
12.31
13.69
14.99
16.14
17.06
17.76
18.28
18.69
19.05
19.34
19.49
19.4
19.06
18.49
17.8
17.12
16.5
15.97
15.45
14.81
13.91
12.7
11.21
9.59
8.03
6.68
5.55
4.57
3.57
2.4
1.01
-0.6
-2.38
-4.23
-6.08
-7.93
-9.81
-11.79
-13.98
-16.47
-19.28
-22.34
-25.43
-28.2
-30.21
-31.09
-30.59
-28.68
-25.55
-21.55
-17.1
-12.61
-8.43
-4.79
-1.85
0.34
1.83
2.79
3.44
3.98
4.56
5.22
5.99
6.86
7.85
8.99
10.27
11.62
12.92
14.04
14.88
15.43
15.71
15.76
15.64
15.33
14.85
14.21
13.47
12.71
11.99
11.34
10.69
9.96
9.09
8.08
7.02
5.98
4.95
3.83
2.46
0.73
-1.36
-3.68
-6.01
-8.19
-10.19
-12.09
-14.12
-16.46
-19.24
-22.42
-25.83
-29.17
-32.05
-34.03
-34.72
-33.88
-31.48
-27.8
-23.31
-18.6
-14.2
-10.41
-7.29
-4.67
-2.33
-0.07
2.17
4.33
6.3
7.98
9.32
10.38
11.29
12.21
13.32
14.68
16.22
17.78
19.13
20.13
20.72
20.96
20.98
20.83
20.51
19.95
19.11
18.01
16.75
15.5
14.36
13.32
12.29
11.16
9.87
8.47
7.1
5.84
4.73
3.63
2.33
0.64
-1.51
-4.01
-6.59
-8.96
-10.92
-12.42
-13.59
-14.65
-15.89
-17.6
-19.99
-23.09
-26.69
-30.31
-33.27
-34.96
-34.98
-33.3
-30.23
-26.28
-21.98
-17.73
-13.76
-10.16
-6.9
-3.89
-1.09
1.52
3.85
5.81
7.37
8.59
9.72
11.03
12.71
14.8
17.1
19.32
21.2
22.6
23.55
24.17
24.62
24.92
25.02
24.82
24.23
23.31
22.18
21.05
20.08
19.29
18.59
17.78
16.7
15.28
13.63
11.91
10.29
8.86
7.54
6.17
4.61
2.75
0.63
-1.65
-3.96
-6.23
-8.42
-10.55
-12.64
-14.69
-16.73
-18.84
-21.08
-23.54
-26.2
-28.86
-31.11
-32.46
-32.43
-30.78
-27.61
-23.37
-18.7
-14.18
-10.19
-6.84
-4.02
-1.62
0.39
1.95
2.99
3.53
3.76
3.95
4.39
5.25
6.55
8.16
9.94
11.74
13.47
15.08
16.51
17.69
18.51
18.9
18.83
18.34
17.52
16.47
15.25
13.92
12.52
11.1
9.7
8.38
7.13
5.97
4.89
3.85
2.81
1.66
0.27
-1.47
-3.54
-5.81
-8.08
-10.13
-11.89
-13.43
-14.94
-16.63
-18.62
-20.9
-23.35
-25.68
-27.56
-28.62
-28.52
-27.06
-24.26
-20.42
-16.01
-11.54
-7.43
-3.88
-0.92
1.52
3.53
5.14
6.38
7.31
8.04
8.73
9.55
10.61
11.93
13.45
15.04
16.5
17.71
18.56
19.09
19.35
19.46
19.46
19.36
19.09
18.56
17.73
16.64
15.41
14.22
13.22
12.42
11.72
10.92
9.8
8.24
6.32
4.23
2.16
0.23
-1.57
-3.34
-5.18
-7.05
-8.88
-10.56
-12.12
-13.71
-15.6
-18.03
-21.17
-24.9
-28.86
-32.44
-34.91
-35.65
-34.36
-31.21
-26.73
-21.69
-16.79
-12.46
-8.84
-5.82
-3.24
-0.94
1.13
3.03
4.79
6.45
8.02
9.51
10.9
12.2
13.47
14.78
16.17
17.63
19.07
20.33
21.28
21.79
21.83
21.39
20.56
19.48
18.25
16.99
15.8
14.73
13.8
13.01
12.27
11.52
10.65
9.65
8.55
7.45
6.46
5.6
4.86
4.1
3.2
2.03
0.54
-1.29
-3.39
-5.64
-7.91
-10.05
-12.03
-14.0
-16.22
-19.0
-22.48
-26.5
-30.53
-33.82
-35.66
-35.58
-33.56
-29.99
-25.55
-20.95
-16.72
-13.12
-10.09
-7.42
-4.89
-2.39
0.04
2.28
4.26
5.98
7.53
9.0
10.46
11.93
13.39
14.87
16.41
18.01
19.6
21.02
22.07
22.56
22.44
21.75
20.66
19.35
17.99
16.74
15.69
14.89
14.27
13.76
13.19
12.43
11.39
10.06
8.49
6.77
5.05
3.48
2.19
1.2
0.43
-0.34
-1.32
-2.64
-4.33
-6.28
-8.38
-10.51
-12.68
-14.91
-17.26
-19.77
-22.41
-25.03
-27.34
-28.95
-29.44
-28.55
-26.28
-22.91
-18.95
-14.89
-11.1
-7.73
-4.77
-2.18
0.07
1.91
3.29
4.15
4.56
4.72
4.9
5.44
6.56
8.3
10.47
12.76
14.83
16.49
17.69
18.5
19.03
19.32
19.34
19.02
18.33
17.35
16.23
15.16
14.29
13.64
13.1
12.41
11.33
9.74
7.76
5.63
3.68
2.1
0.89
-0.13
-1.17
-2.39
-3.83
-5.46
-7.22
-9.09
-11.08
-13.24
-15.6
-18.18
-21.0
-24.06
-27.3
-30.58
-33.62
-36.0
-37.21
-36.82
-34.63
-30.83
-25.94
-20.69
-15.75
-11.51
-7.98
-4.98
-2.24
0.35
2.72
4.71
6.23
7.36
8.34
9.43
10.81
12.45
14.18
15.73
16.93
17.74
18.27
18.72
19.22
19.79
20.32
20.67
20.72
20.41
19.76
18.84
17.73
16.52
15.32
14.27
13.43
12.84
12.44
12.11
11.72
11.15
10.33
9.22
7.82
6.13
4.2
2.14
0.06
-1.91
-3.73
-5.46
-7.2
-9.03
-10.98
-13.0
-14.98
-16.9
-18.81
-20.87
-23.26
-26.07
-29.19
-32.3
-34.88
-36.36
-36.33
-34.6
-31.37
-27.13
-22.53
-18.14
-14.29
-11.0
-8.06
-5.25
-2.51
0.05
2.24
3.99
5.36
6.59
7.92
9.44
11.1
12.77
14.33
15.75
17.11
18.42
19.65
20.69
21.4
21.72
21.68
21.34
20.82
20.16
19.42
18.67
17.95
17.33
16.78
16.22
15.48
14.42
13.03
11.41
9.76
8.27
7.05
6.06
5.15
4.13
2.85
1.22
-0.77
-3.08
-5.6
-8.15
-10.53
-12.57
-14.23
-15.62
-17.03
-18.78
-21.11
-24.07
-27.46
-30.87
-33.77
-35.62
-36.03
-34.82
-32.09
-28.2
-23.68
-19.1
-14.9
-11.3
-8.3
-5.78
-3.58
-1.59
0.24
1.88
3.34
4.65
5.91
7.24
8.76
10.5
12.44
14.43
16.3
17.88
19.09
19.89
20.31
20.37
20.04
19.32
18.24
16.86
15.33
13.79
12.34
10.99
9.7
8.35
6.93
5.46
4.02
2.72
1.61
0.66
-0.21
-1.12
-2.16
-3.4
-4.83
-6.39
-8.02
-9.66
-11.3
-12.97
-14.8
-16.92
-19.45
-22.39
-25.56
-28.52
-30.74
-31.65
-30.93
-28.55
-24.85
-20.38
-15.76
-11.44
-7.64
-4.37
-1.53
0.99
3.23
5.18
6.84
8.25
9.51
10.76
12.07
13.46
14.88
16.22
17.36
18.21
18.71
18.9
18.87
18.74
18.57
18.36
18.04
17.5
16.73
15.79
14.85
14.03
13.4
12.89
12.33
11.55
10.42
8.95
7.22
5.42
3.73
2.29
1.16
0.27
-0.55
-1.52
-2.82
-4.54
-6.64
-8.96
-11.28
-13.47
-15.56
-17.68
-20.05
-22.83
-26.04
-29.45
-32.69
-35.23
-36.59
-36.42
-34.62
-31.38
-27.14
-22.49
-17.95
-13.9
-10.44
-7.48
-4.83
-2.32
0.11
2.39
4.39
5.98
7.17
8.07
8.91
9.95
11.36
13.15
15.17
17.2
19.03
20.53
21.66
22.44
22.85
22.88
22.51
21.81
20.87
19.84
18.86
17.99
17.27
16.67
16.13
15.6
14.95
14.11
13.04
11.77
10.39
9.03
7.78
6.66
5.58
4.41
2.98
1.17
-1.03
-3.56
-6.27
-9.01
-11.65
-14.17
-16.66
-19.26
-22.13
-25.38
-28.98
-32.67
-35.97
-38.25
-38.95
-37.75
-34.72
-30.32
-25.21
-20.1
-15.47
-11.55
-8.31
-5.56
-3.1
-0.78
1.46
3.6
5.62
7.53
9.39
11.27
13.24
15.26
17.24
19.07
20.67
22.0
23.07
23.86
24.29
24.29
23.83
23.0
21.95
20.88
19.88
18.93
17.93
16.8
15.5
14.09
12.67
11.28
9.95
8.64
7.36
6.17
5.15
4.34
3.67
2.9
1.8
0.21
-1.86
-4.16
-6.41
-8.42
-10.21
-11.95
-13.89
-16.16
-18.77
-21.62
-24.55
-27.4
-29.91
-31.7
-32.31
-31.37
-28.76
-24.77
-19.99
-15.12
-10.75
-7.1
-4.13
-1.62
0.55
2.41
3.84
4.78
5.28
5.58
5.99
6.78
8.01
9.59
11.3
12.92
14.25
15.24
15.86
16.17
16.19
15.99
15.55
14.89
13.95
12.74
11.3
9.74
8.24
6.91
5.76
4.72
3.65
2.5
1.29
0.15
-0.83
-1.7
-2.58
-3.68
-5.09
-6.81
-8.69
-10.61
-12.51
-14.51
-16.77
-19.37
-22.23
-25.02
-27.27
-28.51
-28.44
-26.98
-24.29
-20.7
-16.59
-12.36
-8.3
-4.61
-1.41
1.24
3.35
4.96
6.15
7.1
7.93
8.77
9.69
10.66
11.65
12.61
13.56
14.55
15.64
16.82
17.98
19.01
19.77
20.18
20.24
20.01
19.5
18.8
17.92
16.95
15.98
15.06
14.23
13.43
12.55
11.49
10.16
8.6
6.92
5.26
3.68
2.17
0.57
-1.26
-3.44
-5.9
-8.47
-10.92
-13.11
-15.08
-17.08
-19.4
-22.3
-25.78
-29.59
-33.17
-35.85
-37.05
-36.46
-34.13
-30.5
-26.19
-21.82
-17.83
-14.34
-11.28
-8.43
-5.58
-2.62
0.44
3.5
6.36
8.87
10.94
12.62
14.07
15.45
16.87
18.33
19.73
20.96
21.95
22.68
23.14
23.28
23.04
22.41
21.46
20.36
19.25
18.25
17.4
16.66
16.04
15.52
15.07
14.6
14.0
13.16
12.06
10.73
9.26
7.71
6.08
4.31
2.38
0.31
-1.78
-3.78
-5.64
-7.41
-9.22
-11.24
-13.59
-16.31
-19.36
-22.63
-26.02
-29.35
-32.4
-34.8
-36.1
-35.88
-33.95
-30.44
-25.83
-20.76
-15.83
-11.39
-7.49
-3.94
-0.55
2.74
5.82
8.5
10.63
12.22
13.45
14.57
15.77
17.03
18.24
19.2
19.77
19.99
19.96
19.84
19.69
19.5
19.16
18.58
17.75
16.73
15.63
14.56
13.61
12.82
12.16
11.54
10.86
10.03
9.01
7.84
6.62
5.42
4.27
3.12
1.9
0.54
-1.0
-2.64
-4.28
-5.81
-7.16
-8.39
-9.62
-11.05
-12.85
-15.15
-17.97
-21.21
-24.65
-27.91
-30.51
-31.94
-31.8
-29.98
-26.71
-22.49
-17.96
-13.65
-9.87
-6.64
-3.85
-1.38
0.81
2.6
3.87
4.57
4.84
5.0
5.41
6.32
7.82
9.76
11.85
13.83
15.47
16.7
17.49
17.86
17.8
17.32
16.55
15.66
14.87
14.33
14.06
13.91
13.63
13.0
11.9
10.35
8.52
6.65
4.94
3.51
2.33
1.27
0.17
-1.12
-2.71
-4.61
-6.77
-9.12
-11.55
-13.99
-16.4
-18.83
-21.34
-24.03
-26.87
-29.66
-31.97
-33.27
-33.11
-31.26
-27.9
-23.46
-18.58
-13.78
-9.36
-5.43
-1.9
1.25
4.03
6.34
8.15
9.5
10.55
11.52
12.59
13.88
15.39
17.03
18.67
20.13
21.27
22.01
22.37
22.48
22.48
22.44
22.35
22.11
21.57
20.7
19.6
18.46
17.46
16.66
15.93
15.02
13.71
11.94
9.86
7.77
5.97
4.59
3.56
2.63
1.55
0.12
-1.65
-3.66
-5.78
-7.94
-10.14
-12.37
-14.64
-16.9
-19.12
-21.37
-23.79
-26.52
-29.55
-32.66
-35.33
-36.94
-36.95
-35.13
-31.63
-26.99
-21.93
-17.11
-12.92
-9.46
-6.59
-4.06
-1.64
0.75
3.09
5.28
7.24
8.87
10.24
11.48
12.76
14.25
15.98
17.82
19.52
20.87
21.72
22.12
22.24
22.25
22.24
22.16
21.94
21.5
20.84
20.05
19.25
18.5
17.84
17.24
16.62
15.9
15.05
14.04
12.91
11.69
10.45
9.2
7.92
6.58
5.08
3.38
1.46
-0.69
-2.99
-5.37
-7.73
-10.0
-12.14
-14.17
-16.19
-18.31
-20.67
-23.37
-26.38
-29.53
-32.48
-34.76
-35.86
-35.47
-33.55
-30.33
-26.32
-22.07
-18.04
-14.5
-11.51
-8.95
-6.68
-4.58
-2.64
-0.88
0.66
2.04
3.41
4.9
6.64
8.65
10.78
12.87
14.73
16.31
17.61
18.71
19.63
20.29
20.59
20.41
19.74
18.68
17.46
16.29
15.32
14.61
14.04
13.48
12.77
11.84
10.69
9.41
8.12
6.93
5.91
5.02
4.16
3.16
1.87
0.22
-1.7
-3.73
-5.68
-7.45
-9.09
-10.75
-12.63
-14.89
-17.61
-20.7
-23.96
-26.99
-29.31
-30.47
-30.15
-28.36
-25.35
-21.62
-17.69
-13.93
-10.54
-7.52
-4.79
-2.33
-0.16
1.65
3.04
4.03
4.72
5.31
5.99
6.89
8.12
9.67
11.44
13.27
14.94
16.26
17.1
17.43
17.32
16.89
16.24
15.46
14.58
13.67
12.78
11.98
11.27
10.57
9.75
8.72
7.46
6.07
4.68
3.37
2.11
0.8
-0.69
-2.45
-4.45
-6.64
-8.92
-11.19
-13.4
-15.51
-17.53
-19.58
-21.82
-24.44
-27.46
-30.68
-33.63
-35.69
-36.29
-35.18
-32.48
-28.67
-24.39
-20.17
-16.36
-13.01
-10.01
-7.23
-4.56
-2.02
0.32
2.39
4.18
5.73
7.15
8.57
10.09
11.74
13.51
15.32
17.08
18.7
20.15
21.36
22.26
22.72
22.67
22.07
21.01
19.68
18.3
17.07
16.07
15.27
14.5
13.6
12.44
11.0
9.4
7.78
6.24
4.83
3.51
2.16
0.69
-0.94
-2.76
-4.72
-6.77
-8.83
-10.88
-12.92
-15.04
-17.34
-19.96
-23.02
-26.49
-30.19
-33.74
-36.57
-38.09
-37.84
-35.74
-32.1
-27.58
-22.87
-18.52
-14.73
-11.43
-8.45
-5.65
-3.05
-0.71
1.32
3.1
4.73
6.31
7.88
9.42
10.96
12.53
14.21
16.02
17.88
19.63
21.03
21.94
22.33
22.26
21.87
21.25
20.47
19.57
18.61
17.65
16.8
16.09
15.44
14.72
13.71
12.33
10.64
8.86
7.28
6.04
5.08
4.16
2.97
1.34
-0.71
-2.98
-5.2
-7.19
-8.93
-10.52
-12.11
-13.81
-15.71
-17.89
-20.39
-23.21
-26.2
-28.99
-31.07
-31.89
-31.13
-28.78
-25.22
-21.0
-16.64
-12.53
-8.79
-5.43
-2.46
0.03
1.89
3.06
3.62
3.83
4.04
4.55
5.52
6.88
8.43
9.95
11.3
12.48
13.58
14.66
15.69
16.49
16.85
16.57
15.67
14.34
12.89
11.6
10.63
9.95
9.41
8.82
8.04
7.04
5.92
4.82
3.84
3.04
2.32
1.57
0.64
-0.53
-1.95
-3.59
-5.41
-7.4
-9.58
-12.03
-14.77
-17.83
-21.15
-24.56
-27.71
-30.12
-31.25
-30.72
-28.47
-24.81
-20.38
-15.84
-11.71
-8.18
-5.16
-2.46
0.1
2.51
4.68
6.43
7.7
8.57
9.23
9.95
10.94
12.33
14.09
16.1
18.15
20.04
21.61
22.76
23.46
23.74
23.65
23.29
22.73
22.07
21.35
20.59
19.8
19.0
18.22
17.42
16.54
15.45
14.06
12.32
10.32
8.22
6.18
4.29
2.45
0.48
-1.77
-4.32
-7.03
-9.68
-12.06
-14.16
-16.14
-18.3
-20.94
-24.19
-27.94
-31.84
-35.37
-37.96
-39.13
-38.58
-36.32
-32.62
-27.98
-22.98
-18.14
-13.76
-9.99
-6.76
-3.93
-1.32
1.19
3.66
6.09
8.45
10.64
12.65
14.47
16.17
17.84
19.54
21.24
22.81
24.1
25.0
25.49
25.63
25.5
25.17
24.63
23.85
22.82
21.64
20.44
19.38
18.51
17.79
17.06
16.17
15.0
13.54
11.89
10.19
8.57
7.1
5.76
4.45
3.01
1.32
-0.69
-2.97
-5.42
-7.92
-10.35
-12.73
-15.06
-17.41
-19.86
-22.53
-25.53
-28.92
-32.56
-36.05
-38.77
-40.05
-39.39
-36.71
-32.37
-27.02
-21.45
-16.25
-11.73
-7.9
-4.57
-1.54
1.32
3.99
6.39
8.43
10.08
11.39
12.49
13.54
14.67
15.98
17.49
19.12
20.68
21.95
22.73
22.99
22.8
22.34
21.71
20.96
20.02
18.85
17.53
16.26
15.28
14.69
14.36
14.01
13.36
12.26
10.79
9.21
7.75
6.57
5.63
4.79
3.82
2.56
0.91
-1.07
-3.22
-5.36
-7.29
-8.95
-10.38
-11.74
-13.29
-15.22
-17.68
-20.63
-23.89
-27.09
-29.79
-31.5
-31.87
-30.71
-28.14
-24.47
-20.17
-15.7
-11.41
-7.49
-4.04
-1.09
1.33
3.23
4.58
5.46
5.93
6.12
6.18
6.27
6.55
7.21
8.36
9.98
11.93
13.93
15.7
16.99
17.74
17.99
17.84
17.41
16.72
15.8
14.63
13.31
11.97
10.77
9.76
8.94
8.18
7.35
6.38
5.28
4.11
2.93
1.69
0.28
-1.41
-3.42
-5.68
-7.98
-10.19
-12.25
-14.26
-16.43
-18.95
-21.94
-25.35
-28.96
-32.36
-35.01
-36.34
-35.94
-33.7
-29.86
-24.97
-19.69
-14.63
-10.13
-6.28
-2.94
0.08
2.92
5.55
7.88
9.75
11.06
11.93
12.6
13.42
14.66
16.41
18.5
20.62
22.49
23.93
24.93
25.55
25.82
25.67
24.98
23.7
21.96
20.06
18.4
17.24
16.64
16.37
16.04
15.33
14.11
12.47
10.63
8.83
7.19
5.7
4.28
2.86
1.39
-0.19
-1.93
-3.94
-6.27
-8.84
-11.5
-14.06
-16.41
-18.56
-20.7
-23.06
-25.83
-29.02
-32.41
-35.56
-37.89
-38.84
-38.07
-35.62
-31.86
-27.46
-23.03
-19.01
-15.54
-12.46
-9.53
-6.58
-3.55
-0.53
2.35
4.97
7.28
9.28
10.99
12.51
13.92
15.35
16.9
18.58
20.3
21.88
23.07
23.68
23.67
23.13
22.29
21.37
20.55
19.88
19.31
18.81
18.35
17.91
17.47
16.96
16.31
15.45
14.38
13.16
11.87
10.57
9.23
7.81
6.26
4.54
2.69
0.73
-1.27
-3.31
-5.33
-7.35
-9.32
-11.23
-13.07
-14.87
-16.71
-18.74
-21.13
-24.02
-27.41
-31.07
-34.58
-37.36
-38.85
-38.72
-36.9
-33.64
-29.38
-24.62
-19.82
-15.3
-11.25
-7.73
-4.72
-2.14
0.12
2.17
4.08
5.88
7.55
9.11
10.59
12.05
13.59
15.22
16.88
18.41
19.67
20.53
21.01
21.19
21.22
21.17
21.04
20.73
20.12
19.15
17.88
16.46
15.08
13.94
13.15
12.69
12.44
12.26
11.97
11.49
10.75
9.78
8.6
7.24
5.71
4.0
2.12
0.1
-2.0
-4.12
-6.2
-8.23
-10.2
-12.14
-14.1
-16.09
-18.15
-20.32
-22.62
-25.1
-27.75
-30.41
-32.75
-34.29
-34.6
-33.38
-30.68
-26.83
-22.36
-17.81
-13.56
-9.79
-6.47
-3.51
-0.83
1.57
3.59
5.16
6.28
7.05
7.68
8.38
9.29
10.42
11.73
13.05
14.25
15.27
16.05
16.59
16.86
16.82
16.44
15.73
14.75
13.66
12.61
11.76
11.16
10.79
10.51
10.14
9.55
8.64
7.46
6.08
4.63
3.21
1.84
0.45
-1.07
-2.81
-4.83
-7.02
-9.28
-11.49
-13.59
-15.65
-17.79
-20.12
-22.68
-25.41
-28.15
-30.59
-32.35
-32.97
-32.08
-29.53
-25.5
-20.53
-15.34
-10.58
-6.61
-3.42
-0.77
1.61
3.84
5.8
7.29
8.21
8.68
8.94
9.3
9.94
10.87
11.99
13.24
14.56
15.97
17.43
18.87
20.13
21.07
21.59
21.66
21.31
20.54
19.42
18.06
16.66
15.45
14.6
14.13
13.87
13.52
12.77
11.52
9.8
7.89
6.04
4.44
3.14
2.0
0.82
-0.59
-2.36
-4.5
-6.92
-9.43
-11.84
-14.04
-16.03
-17.95
-20.08
-22.68
-25.86
-29.54
-33.33
-36.67
-38.94
-39.62
-38.49
-35.64
-31.49
-26.63
-21.64
-16.97
-12.85
-9.31
-6.28
-3.61
-1.18
1.08
3.16
5.03
6.7
8.22
9.76
11.5
13.51
15.8
18.2
20.52
22.6
24.34
25.73
26.77
27.41
27.61
27.33
26.59
25.51
24.21
22.84
21.51
20.3
19.26
18.38
17.6
16.8
15.86
14.69
13.27
11.65
9.93
8.16
6.4
4.68
3.01
1.4
-0.13
-1.59
-3.0
-4.4
-5.82
-7.33
-9.01
-10.91
-13.05
-15.42
-17.98
-20.77
-23.84
-27.32
-31.21
-35.26
-38.98
-41.68
-42.8
-42.1
-39.7
-36.04
-31.65
-26.97
-22.27
-17.69
-13.34
-9.31
-5.7
-2.56
0.1
2.35
4.28
5.98
7.61
9.29
11.16
13.24
15.46
17.63
19.54
21.04
22.15
22.96
23.59
24.13
24.55
24.81
24.86
24.67
24.25
23.63
22.81
21.81
20.72
19.63
18.61
17.66
16.69
15.54
14.11
12.42
10.6
8.82
7.18
5.67
4.19
2.58
0.75
-1.28
-3.48
-5.73
-7.99
-10.24
-12.48
-14.74
-17.0
-19.24
-21.42
-23.59
-25.8
-28.12
-30.54
-32.84
-34.66
-35.57
-35.18
-33.32
-30.11
-25.9
-21.23
-16.59
-12.38
-8.79
-5.83
-3.35
-1.17
0.83
2.7
4.41
5.93
7.29
8.63
10.15
11.93
13.96
16.04
17.98
19.6
20.81
21.61
22.03
22.11
21.92
21.55
21.06
20.49
19.78
18.86
17.7
16.39
15.12
14.11
13.45
13.0
12.48
11.61
10.25
8.53
6.73
5.09
3.71
2.48
1.18
-0.35
-2.15
-4.08
-5.96
-7.73
-9.44
-11.25
-13.3
-15.69
-18.41
-21.41
-24.57
-27.68
-30.41
-32.29
-32.88
-31.89
-29.34
-25.57
-21.13
-16.6
