0
28.95
21.85
14.2
6.72
-0.2
-6.52
-12.61
-19.14
-26.77
-35.92
-46.44
-57.36
-66.95
-73.03
-73.57
-67.26
-54.13
-35.53
-13.79
8.38
28.6
45.23
57.5
65.29
69.0
69.2
66.64
62.24
56.98
51.78
47.44
44.33
42.43
41.41
40.79
40.21
39.48
38.59
37.55
36.14
33.92
30.31
24.87
17.51
8.64
-0.96
-10.43
-19.09
-26.67
-33.35
-39.7
-46.54
-54.67
-64.53
-75.81
-87.25
-96.58
-101.19
-98.81
-88.47
-70.9
-48.38
-24.0
-0.79
19.08
34.55
45.54
52.49
55.99
56.57
54.77
51.25
46.85
42.53
39.16
37.25
36.77
37.29
38.16
38.81
39.01
38.79
38.32
37.61
36.29
33.76
29.37
22.73
14.04
3.99
-6.36
-15.9
-23.89
-30.1
-34.99
-39.52
-44.9
-52.25
-62.05
-73.81
-85.89
-95.74
-100.55
-98.07
-87.42
-69.36
-46.2
-21.04
3.04
23.71
39.7
50.79
57.43
60.35
60.36
58.18
54.54
50.17
45.88
42.39
40.18
39.36
39.6
40.3
40.87
40.93
40.48
39.7
38.84
37.87
36.42
33.89
29.7
23.56
15.66
6.61
-2.68
-11.33
-18.75
-24.85
-30.03
-35.08
-40.96
-48.43
-57.79
-68.5
-79.14
-87.56
-91.38
-88.71
-78.7
-61.97
-40.46
-16.97
5.65
25.18
40.32
50.78
56.87
59.22
58.46
55.26
50.35
44.63
39.12
34.76
32.18
31.49
32.3
33.96
35.89
37.72
39.3
40.51
41.08
40.47
38.08
33.59
27.13
19.36
11.23
3.64
-2.93
-8.52
-13.72
-19.36
-26.3
-35.07
-45.52
-56.67
-66.66
-73.17
-73.98
-67.84
-54.87
-36.67
-15.8
4.96
23.33
37.95
48.35
54.68
57.35
56.88
53.84
48.94
43.13
37.44
32.78
29.7
28.27
28.07
28.43
28.7
28.57
28.07
27.43
26.77
25.91
24.31
21.32
16.45
9.66
1.43
-7.41
-15.94
-23.51
-29.88
-35.32
-40.48
-46.17
-53.19
-61.99
-72.42
-83.5
-93.42
-99.82
-100.42
-93.66
-79.37
-58.91
-34.92
-10.59
11.25
28.77
41.34
49.29
53.4
54.43
53.01
49.67
45.09
40.18
35.95
33.22
32.31
32.89
34.19
35.29
35.56
34.85
33.47
31.87
30.35
28.82
26.81
23.7
18.98
12.57
4.84
-3.5
-11.59
-18.73
-24.55
-29.06
-32.72
-36.26
-40.57
-46.5
-54.51
-64.3
-74.66
-83.56
-88.62
-87.83
-80.23
-66.26
-47.66
-26.94
-6.63
11.25
25.54
35.78
42.03
44.63
44.08
41.11
36.65
31.75
27.36
24.19
22.49
22.14
22.73
23.83
25.1
26.42
27.74
29.04
30.12
30.59
29.93
27.65
23.52
17.7
10.68
3.21
-3.95
-10.26
-15.57
-20.13
-24.49
-29.38
-35.43
-42.94
-51.58
-60.24
-67.12
-70.07
-67.26
-57.88
-42.41
-22.63
-1.07
19.66
37.58
51.54
61.18
66.64
68.28
66.58
62.27
56.34
50.05
44.58
40.81
39.01
38.89
39.72
40.69
41.26
41.24
40.77
40.04
39.06
37.56
34.98
30.72
24.45
16.3
6.92
-2.67
-11.5
-18.97
-25.13
-30.67
-36.68
-44.13
-53.46
-64.15
-74.71
-83.01
-86.75
-84.23
-74.84
-59.26
-39.34
-17.64
3.22
21.11
34.75
43.72
48.28
49.05
46.87
42.62
37.22
31.67
26.86
23.45
21.67
21.32
21.82
22.49
22.83
22.66
22.12
21.43
20.74
19.9
18.5
15.93
11.72
5.72
-1.77
-9.97
-17.93
-24.82
-30.26
-34.55
-38.55
-43.42
-50.2
-59.28
-70.07
-80.99
-89.69
-93.69
-91.18
-81.52
-65.55
-45.35
-23.62
-2.92
14.86
28.76
38.62
44.73
47.52
47.44
44.98
40.81
35.79
30.9
26.95
24.51
23.61
23.94
24.9
25.85
26.43
26.52
26.26
25.85
25.31
24.35
22.44
19.03
13.87
7.21
-0.26
-7.67
-14.31
-19.88
-24.58
-28.89
-33.41
-38.66
-45.01
-52.53
-60.82
-68.84
-74.96
-77.26
-74.17
-65.09
-50.7
-32.83
-13.84
3.98
19.01
30.42
38.03
42.0
42.73
40.77
36.88
31.97
27.08
23.08
20.51
19.55
19.99
21.37
23.24
25.26
27.28
29.2
30.84
31.85
31.73
30.02
26.58
21.7
16.04
10.41
5.37
1.09
-2.69
-6.51
-11.05
-16.85
-24.18
-32.81
-41.82
-49.62
-54.16
-53.56
-46.72
-33.77
-16.26
3.38
22.43
38.69
50.86
58.57
62.14
62.21
59.49
54.7
48.65
42.21
36.22
31.35
27.95
25.92
24.92
24.46
24.17
23.87
23.49
22.97
22.1
20.55
17.87
13.72
7.98
0.86
-7.01
-14.87
-21.94
-27.78
-32.44
-36.53
-40.98
-46.74
-54.4
-63.81
-73.91
-82.81
-88.17
-87.96
-80.99
-67.48
-49.07
-28.33
-8.05
9.49
23.05
32.34
37.8
40.13
40.08
38.24
35.13
31.31
27.37
23.92
21.46
20.23
20.13
20.73
21.42
21.72
21.46
20.79
20.04
19.38
18.59
17.05
14.04
9.14
2.54
-5.06
-12.66
-19.4
-24.88
-29.2
-32.9
-36.74
-41.51
-47.81
-55.85
-65.11
-74.21
-81.12
-83.57
-79.88
-69.53
-53.54
-34.02
-13.65
5.16
20.79
32.53
40.37
44.73
46.1
44.96
41.87
37.48
32.64
28.22
24.96
23.25
23.0
23.75
24.79
25.55
25.78
25.57
25.21
24.86
24.42
23.44
21.39
17.84
12.69
6.24
-0.95
-8.22
-15.02
-21.0
-26.06
-30.38
-34.36
-38.63
-43.85
-50.45
-58.22
-66.13
-72.41
-75.08
-72.56
-64.35
-51.13
-34.57
-16.78
0.25
15.02
26.59
34.48
38.55
39.03
36.5
31.97
26.68
21.89
18.54
17.12
17.59
19.52
22.35
25.58
28.87
32.06
35.03
37.52
39.06
39.09
37.15
33.15
27.46
20.78
13.92
7.44
1.5
-4.16
-10.05
-16.74
-24.63
-33.83
-43.96
-54.01
-62.4
-67.24
-66.79
-60.17
-47.75
-31.04
-12.39
5.8
21.64
34.05
42.68
47.66
49.33
48.22
44.98
40.46
35.57
31.15
27.72
25.47
24.23
23.64
23.35
23.11
22.78
22.3
21.63
20.7
19.34
17.27
14.16
9.7
3.82
-3.2
-10.81
-18.29
-24.99
-30.65
-35.44
-39.95
-45.03
-51.45
-59.63
-69.24
-79.11
-87.28
-91.4
-89.52
-80.71
-65.59
-46.16
-25.23
-5.51
11.08
23.77
32.7
38.44
41.6
42.56
41.58
39.07
35.74
32.53
30.34
29.58
30.08
31.17
32.01
32.06
31.28
30.07
28.94
28.18
27.62
26.68
24.64
20.95
15.48
8.55
0.86
-6.79
-13.65
-19.34
-23.91
-27.83
-31.9
-36.96
-43.64
-52.08
-61.79
-71.51
-79.42
-83.42
-81.72
-73.44
-59.02
-40.23
-19.74
-0.31
16.0
28.21
36.36
41.11
43.14
42.98
41.02
37.73
33.78
29.95
27.0
25.35
25.02
25.68
26.88
28.14
29.13
29.61
29.43
28.6
27.17
25.26
22.92
20.01
16.25
11.34
5.16
-2.01
-9.51
-16.51
-22.32
-26.72
-30.05
-33.13
-36.97
-42.39
-49.72
-58.6
-67.96
-76.12
-81.18
-81.46
-75.97
-64.76
-48.89
-30.18
-10.74
7.44
22.92
34.78
42.67
46.6
46.96
44.42
39.97
34.81
30.13
26.93
25.69
26.32
28.27
30.75
33.1
35.01
36.47
37.66
38.66
39.25
38.98
37.35
34.12
29.35
23.46
17.02
10.52
4.3
-1.6
-7.37
-13.39
-20.18
-28.17
-37.47
-47.49
-56.8
-63.39
-65.19
-60.82
-50.2
-34.6
-16.31
2.14
18.6
31.77
41.24
47.18
50.05
50.33
48.49
45.04
40.64
36.15
32.36
29.93
29.09
29.55
30.65
31.62
31.95
31.54
30.63
29.52
28.32
26.74
24.23
20.23
14.51
7.23
-1.0
-9.4
-17.25
-24.03
-29.61
-34.24
-38.49
-43.2
-49.23
-57.15
-66.87
-77.35
-86.71
-92.59
-92.9
-86.43
-73.37
-55.28
-34.55
-13.79
4.82
19.92
30.97
38.17
42.13
43.62
43.37
41.97
39.84
37.37
34.93
32.94
31.82
31.76
32.65
34.04
35.36
36.13
36.15
35.49
34.38
32.95
31.15
28.74
25.4
20.9
15.27
8.79
1.94
-4.73
-10.77
-15.98
-20.41
-24.36
-28.32
-32.87
-38.59
-45.88
-54.75
-64.61
-74.06
-81.08
-83.49
-79.63
-68.97
-52.44
-32.21
-11.1
8.25
23.91
35.07
41.88
45.1
45.67
44.5
42.22
39.38
36.42
33.8
31.94
31.08
31.2
32.05
33.24
34.36
35.16
35.51
35.35
34.58
33.09
30.8
27.63
23.61
18.77
13.2
7.07
0.59
-5.84
-11.81
-16.99
-21.27
-24.85
-28.17
-31.78
-36.19
-41.77
-48.59
-56.41
-64.47
-71.43
-75.58
-75.22
-69.22
-57.53
-41.32
-22.66
-3.96
12.82
26.49
36.7
43.63
47.6
48.92
47.91
45.11
41.34
37.58
34.8
33.59
33.99
35.64
37.9
40.11
41.8
42.76
42.95
42.46
41.35
39.57
36.88
32.96
27.55
20.64
12.66
4.38
-3.34
-9.88
-15.09
-19.38
-23.48
-28.18
-34.1
-41.53
-50.4
-60.19
-69.8
-77.57
-81.54
-79.99
-71.99
-57.98
-39.67
-19.62
-0.46
15.81
28.17
36.54
41.39
43.42
43.26
41.45
38.5
35.03
31.66
29.02
27.57
27.46
28.53
30.36
32.44
34.29
35.49
35.79
35.05
33.29
30.65
27.31
23.45
19.16
14.4
9.04
3.03
-3.48
-10.14
-16.53
-22.26
-27.22
-31.56
-35.59
-39.66
-44.12
-49.27
-55.42
-62.77
-71.12
-79.6
-86.6
-90.04
-88.03
-79.55
-65.02
-46.19
-25.64
-6.04
10.67
23.51
32.42
37.86
40.48
40.9
39.68
37.46
34.87
32.49
30.75
29.82
29.64
30.06
30.94
32.19
33.74
35.48
37.14
38.34
38.61
37.58
35.06
31.1
26.01
20.3
14.43
8.8
3.54
-1.42
-6.27
-11.16
-16.16
-21.13
-25.87
-30.19
-34.07
-37.68
-41.47
-46.01
-51.84
-59.19
-67.61
-75.83
-81.92
-83.73
-79.65
-69.19
-53.3
-34.1
-14.28
3.73
18.35
28.98
35.85
39.54
40.66
39.61
36.79
32.65
27.85
23.21
19.61
17.69
17.67
19.3
21.92
24.75
27.06
28.4
28.65
27.96
26.57
24.67
22.3
19.32
15.58
11.04
5.88
0.39
-5.04
-10.19
-14.98
-19.46
-23.76
-27.94
-32.06
-36.21
-40.62
-45.58
-51.06
-56.46
-60.5
-61.45
-57.81
-48.87
-35.15
-18.27
-0.38
16.47
30.82
41.98
49.83
54.51
56.21
55.15
51.7
46.51
40.52
34.87
30.6
28.4
28.44
30.23
32.86
35.31
36.76
36.89
35.85
34.08
31.95
29.52
26.43
22.2
16.45
9.28
1.21
-6.96
-14.53
-21.09
-26.62
-31.4
-35.83
-40.35
-45.4
-51.41
-58.61
-66.82
-75.19
-82.22
-86.04
-84.93
-77.99
-65.43
-48.62
-29.66
-10.82
6.01
19.64
29.63
36.08
39.44
40.27
39.12
36.59
33.23
29.66
26.46
24.12
23.03
23.27
24.67
26.83
29.2
31.17
32.23
32.1
30.7
28.24
24.97
21.11
16.76
11.88
6.36
0.23
-6.3
-12.9
-19.17
-24.83
-29.83
-34.29
-38.51
-42.95
-48.11
-54.46
-62.15
-70.69
-78.79
-84.52
-85.84
-81.31
-70.62
-54.85
-36.09
-16.77
0.99
15.83
27.16
35.02
39.7
41.7
41.52
39.77
37.07
34.14
31.58
29.91
29.46
30.27
32.09
34.46
36.81
38.64
39.68
39.82
39.18
37.85
35.9
33.3
30.03
26.1
21.53
16.46
10.99
5.3
-0.5
-6.28
-11.96
-17.48
-22.84
-28.03
-33.1
-38.16
-43.53
-49.63
-56.84
-65.06
-73.37
-80.03
-82.88
-80.11
-71.05
-56.48
-38.38
-19.27
-1.36
13.95
26.14
35.27
41.55
45.1
45.96
44.32
40.72
36.1
31.6
28.29
26.78
27.05
28.48
30.26
31.63
32.28
32.27
31.93
31.48
30.89
29.84
27.85
24.57
19.84
13.88
7.19
0.43
-5.77
-10.99
-15.1
-18.39
-21.33
-24.58
-28.73
-34.19
-41.04
-48.91
-56.82
-63.24
-66.32
-64.34
-56.4
-42.83
-25.26
-6.15
11.99
27.32
39.05
47.25
52.44
55.03
55.22
53.19
49.35
44.6
40.11
36.95
35.68
36.11
37.48
38.82
39.37
38.86
37.44
35.49
33.28
30.84
27.95
24.24
19.42
13.45
6.55
-0.85
-8.28
-15.33
-21.82
-27.75
-33.27
-38.66
-44.29
-50.64
-58.15
-66.98
-76.71
-86.05
-93.0
-95.38
-91.5
-80.91
-64.6
-44.72
-23.91
-4.57
11.69
24.19
32.96
38.45
41.18
41.7
40.53
38.31
35.66
33.29
31.77
31.44
32.31
34.05
36.12
37.93
39.04
39.23
38.54
37.12
35.08
32.44
29.08
24.89
19.82
13.95
7.48
0.75
-5.97
-12.37
-18.22
-23.41
-27.95
-32.02
-36.01
-40.48
-45.99
-52.89
-61.09
-69.84
-77.7
-82.8
-83.3
-77.91
-66.43
-49.86
-30.19
-9.84
8.95
24.62
36.48
44.54
49.24
51.19
51.0
49.32
46.81
44.2
42.11
40.92
40.67
41.09
41.8
42.46
42.92
43.21
43.4
43.5
43.28
42.41
40.57
37.58
33.52
28.69
23.44
18.04
12.61
7.1
1.4
-4.52
-10.55
-16.4
-21.76
-26.42
-30.41
-34.07
-37.9
-42.5
-48.37
-55.68
-64.12
-72.69
-79.7
-83.17
-81.31
-73.26
-59.46
-41.62
-22.21
-3.66
12.25
24.73
33.75
39.65
42.84
43.63
42.34
39.45
35.7
32.03
29.36
28.37
29.24
31.65
34.81
37.81
39.93
40.88
40.9
40.47
39.99
39.51
38.62
36.68
33.17
27.95
21.36
14.11
6.97
0.54
-4.94
-9.54
-13.69
-17.94
-22.91
-29.17
-36.99
-46.08
-55.4
-63.24
-67.5
-66.42
-59.14
-46.14
-29.11
-10.47
7.38
22.65
34.45
42.63
47.51
49.56
49.28
47.23
44.1
40.62
37.43
34.96
33.34
32.47
32.15
32.23
32.66
33.38
34.24
34.89
34.83
33.64
31.1
27.35
22.78
17.88
12.97
8.06
2.91
-2.79
-9.13
-15.86
-22.45
-28.34
-33.22
-37.18
-40.65
-44.23
-48.55
-54.03
-60.96
-69.29
-78.47
-87.28
-93.81
-95.84
-91.56
-80.35
-63.23
-42.68
-21.75
-3.13
11.7
22.55
30.12
35.3
38.68
40.41
40.49
39.18
37.1
35.15
34.07
34.19
35.27
36.75
38.05
38.91
39.46
40.01
40.85
41.94
42.86
42.91
41.47
38.26
33.5
27.81
21.97
16.55
11.72
7.19
2.45
-2.93
-9.04
-15.55
-21.91
-27.6
-32.46
-36.7
-40.82
-45.43
-51.11
-58.19
-66.65
-75.9
-84.68
-91.17
-93.37
-89.69
-79.59
-63.92
-44.62
-24.23
-5.15
11.01
23.51
32.36
38.0
40.94
41.66
40.71
38.64
36.09
33.65
31.81
30.82
30.77
31.51
32.84
34.47
36.11
37.51
38.44
38.71
38.13
36.55
33.9
30.17
25.54
20.24
14.58
8.83
3.09
-2.6
-8.19
-13.58
-18.56
-22.87
-26.4
-29.26
-31.78
-34.57
-38.27
-43.39
-50.0
-57.55
-64.78
-69.91
-71.02
-66.66
-56.43
-41.13
-22.63
-3.31
14.64
29.67
41.07
48.79
53.17
54.69
53.89
51.34
47.72
43.8
40.25
37.54
35.89
35.25
35.37
35.94
36.69
37.35
37.71
37.58
36.8
35.24
32.86
29.69
25.88
21.61
17.07
12.35
7.38
2.02
-3.93
-10.46
-17.31
-24.01
-30.09
-35.23
-39.47
-43.24
-47.16
-51.92
-58.07
-65.87
-75.01
-84.49
-92.55
-97.07
-96.1
-88.59
-74.85
-56.5
-36.08
-16.21
1.12
14.87
24.86
31.53
35.47
37.22
37.28
36.11
34.31
32.48
31.18
30.79
31.35
32.64
34.27
35.92
37.43
38.82
40.1
41.19
41.82
41.61
40.21
37.46
33.55
28.81
23.77
18.79
14.03
9.36
4.53
-0.74
-6.5
-12.6
-18.68
-24.34
-29.33
-33.68
-37.76
-42.24
-47.87
-55.24
-64.34
-74.32
-83.41
-89.33
-89.95
-84.03
-71.76
-54.66
-35.16
-15.82
1.34
15.13
25.24
31.91
35.76
37.43
37.54
36.6
35.03
33.17
31.33
29.85
29.01
29.01
29.87
31.42
33.37
35.37
37.08
38.2
38.45
37.57
35.41
31.98
27.53
22.44
17.09
11.71
6.29
0.7
-5.2
-11.44
-17.87
-24.16
-29.94
-34.95
-39.14
-42.81
-46.52
-51.0
-56.89
-64.17
-72.06
-78.85
-82.53
-81.28
-74.3
-62.01
-45.93
-28.12
-10.57
5.27
18.54
28.88
36.17
40.39
41.65
40.35
37.21
33.22
29.43
26.7
25.51
25.9
27.55
29.93
32.52
34.89
36.8
38.13
38.79
38.72
37.81
35.93
32.94
28.76
23.41
17.06
10.09
2.97
-3.86
-10.14
-15.88
-21.38
-27.12
-33.62
-41.22
-49.92
-59.17
-67.77
-74.0
-75.99
-72.41
-62.95
-48.59
-31.3
-13.46
2.87
16.39
26.6
33.62
37.82
39.6
39.37
37.59
34.83
31.75
28.99
27.02
26.1
26.26
27.28
28.82
30.45
31.76
32.47
32.36
31.4
29.67
27.29
24.44
21.25
17.74
13.81
9.32
4.14
-1.69
-7.91
-14.17
-20.12
-25.52
-30.38
-34.88
-39.38
-44.37
-50.35
-57.72
-66.44
-75.73
-84.05
-89.3
-89.47
-83.41
-71.29
-54.59
-35.65
-16.87
-0.12
13.54
23.81
30.87
35.09
36.92
36.91
35.68
33.91
32.23
31.12
30.85
31.45
32.81
34.68
36.81
38.96
40.94
42.53
43.48
43.47
42.25
39.71
35.97
31.4
26.47
21.51
16.61
11.59
6.11
0.03
-6.55
-13.18
-19.33
-24.57
-28.82
-32.33
-35.58
-39.13
-43.55
-49.26
-56.47
-64.94
-73.71
-81.1
-85.01
-83.57
-75.86
-62.36
-44.92
-26.06
-8.19
7.05
19.04
27.91
34.03
37.71
39.05
38.2
35.59
32.02
28.51
26.06
25.23
26.09
28.2
30.82
33.22
34.9
35.69
35.7
35.18
34.3
33.08
31.29
28.66
24.98
20.26
14.8
9.08
3.62
-1.23
-5.38
-9.0
-12.44
-16.11
-20.41
-25.69
-32.16
-39.8
-48.09
-55.93
-61.69
-63.57
-60.19
-51.12
-37.19
-20.26
-2.69
13.38
26.5
36.08
42.26
45.49
46.33
45.28
42.8
39.41
35.67
32.2
29.57
28.17
28.12
29.23
30.96
32.64
33.71
33.91
33.38
32.44
31.35
29.99
27.95
24.62
19.63
13.07
5.46
-2.46
-10.07
-17.01
-23.2
-28.75
-33.77
-38.51
-43.36
-48.88
-55.65
-63.94
-73.33
-82.52
-89.58
-92.4
-89.38
-80.02
-65.13
-46.59
-26.85
-8.21
7.62
19.82
28.39
33.82
36.77
37.9
37.78
36.86
35.58
34.37
33.53
33.27
33.56
34.3
35.28
36.33
37.25
37.9
38.12
37.78
36.78
35.05
32.59
29.39
25.46
20.85
15.64
9.98
4.08
-1.81
-7.48
-12.77
-17.59
-21.98
-26.1
-30.18
-34.62
-39.83
-46.21
-53.99
-62.91
-72.07
-79.87
-84.3
-83.52
-76.49
-63.45
-45.91
-26.27
-7.01
9.91
23.42
33.34
40.01
43.98
45.74
45.73
44.4
42.32
40.13
38.37
37.4
37.24
37.71
38.52
39.43
40.27
40.97
41.39
41.29
40.36
38.34
35.21
31.17
26.63
21.98
17.42
12.9
8.21
3.12
-2.46
-8.36
-14.22
-19.62
-24.24
-28.06
-31.39
-34.81
-39.0
-44.56
-51.75
-60.23
-68.91
-76.09
-79.84
-78.54
-71.49
-59.17
-43.14
-25.53
-8.4
6.76
19.26
29.03
36.22
40.99
43.43
43.7
42.23
39.82
37.38
35.73
35.29
36.02
37.47
39.08
40.38
41.21
41.6
41.75
41.73
41.47
40.65
38.78
35.41
30.3
23.51
15.5
6.93
-1.45
-9.06
-15.62
-21.24
-26.36
-31.66
-37.85
-45.44
-54.47
-64.24
-73.33
-79.81
-81.79
-77.95
-68.09
-53.22
-35.29
-16.65
0.58
14.95
25.92
33.64
38.64
41.43
42.37
41.7
39.7
36.9
34.04
31.88
30.9
31.14
32.16
33.33
34.14
34.35
34.04
33.39
32.48
31.22
29.36
26.66
22.96
18.27
12.63
6.23
-0.7
-7.86
-14.91
-21.57
-27.71
-33.35
-38.71
-44.13
-50.03
-56.83
-64.76
-73.51
-82.14
-88.95
-91.89
-89.21
-80.11
-65.16
-46.17
-25.65
-6.09
10.69
23.76
33.02
38.83
41.85
42.71
42.05
40.47
38.51
36.65
35.22
34.42
34.29
34.76
35.68
36.89
38.17
39.37
40.27
40.63
40.23
38.89
36.55
33.24
29.07
24.19
18.7
12.73
6.39
-0.11
-6.54
-12.67
-18.37
-23.62
-28.54
-33.28
-38.07
-43.26
-49.24
-56.3
-64.35
-72.54
-79.3
-82.65
-80.84
-73.09
-59.88
-42.9
-24.49
-6.82
8.51
20.73
29.69
35.62
38.83
39.72
38.74
36.43
33.43
30.36
27.75
26.01
25.34
25.73
26.91
28.47
29.91
30.8
30.94
30.33
29.16
27.58
25.61
23.12
19.85
15.59
10.34
4.38
-1.84
-7.84
-13.31
-18.24
-22.89
-27.69
-33.09
-39.43
-46.81
-54.95
-63.09
-69.92
-73.82
-73.16
-66.92
-55.08
-38.83
-20.23
-1.63
15.05
28.67
38.89
45.89
49.96
51.33
50.3
47.38
43.47
39.62
36.83
35.68
36.11
37.63
39.48
41.0
41.82
41.89
41.33
40.28
38.75
36.53
33.29
28.71
22.57
14.96
6.29
-2.74
-11.39
-19.07
-25.57
-31.07
-36.09
-41.33
-47.48
-54.92
-63.55
-72.54
-80.33
-84.99
-84.68
-78.37
-66.24
-49.7
-31.03
-12.59
3.77
17.09
27.16
34.23
38.59
40.53
40.26
38.18
34.89
31.13
27.64
25.02
23.56
23.31
24.09
25.6
27.45
29.27
30.71
31.5
31.44
30.47
28.57
25.75
22.02
17.35
11.83
5.6
-1.03
-7.7
-14.04
-19.82
-24.98
-29.65
-34.07
-38.61
-43.68
-49.7
-56.9
-65.18
-73.74
-81.17
-85.6
-85.27
-79.11
-67.15
-50.62
-31.58
-12.33
5.14
19.54
30.34
37.61
41.76
43.34
42.94
41.2
38.75
36.24
34.23
33.13
33.06
33.82
35.0
36.09
36.7
36.69
36.08
35.0
33.57
31.8
29.62
26.87
23.4
19.12
14.03
8.21
1.89
-4.6
-10.91
-16.68
-21.75
-26.16
-30.2
-34.35
-39.18
-45.18
-52.58
-61.06
-69.61
-76.63
-80.24
-78.86
-71.79
-59.47
-43.39
-25.67
-8.33
7.04
19.54
28.8
34.77
37.54
37.38
34.85
30.74
26.09
21.91
19.0
17.8
18.34
20.32
23.21
26.45
29.47
31.91
33.58
34.47
34.58
33.87
32.16
29.23
24.95
19.43
13.06
6.43
0.07
-5.66
-10.74
-15.46
-20.29
-25.77
-32.34
-40.07
-48.53
-56.64
-62.81
-65.24
-62.54
-54.18
-40.76
-23.92
-5.8
11.56
26.69
38.83
47.79
53.59
56.31
56.03
53.09
48.2
42.56
37.46
33.92
32.33
32.39
33.31
34.18
34.4
33.76
32.43
30.67
28.68
26.42
23.67
20.08
15.37
9.44
2.5
-5.03
-12.57
-19.58
-25.72
-30.99
-35.67
-40.28
-45.45
-51.83
-59.75
-69.06
-78.82
-87.29
-92.29
-91.82
-84.74
-71.31
-53.19
-32.95
-13.18
4.1
17.83
27.84
34.44
38.1
39.27
38.37
35.95
32.73
29.53
27.04
25.74
25.73
26.77
28.39
30.08
31.4
32.13
32.28
31.98
31.33
30.33
28.76
26.28
22.6
17.62
11.55
4.83
-1.98
-8.46
-14.41
-19.84
-24.97
-30.08
-35.52
-41.64
-48.77
-57.02
-66.03
-74.72
-81.39
-83.99
-80.85
-71.34
-56.19
-37.38
-17.57
0.81
16.12
27.75
35.9
41.16
44.06
45.03
44.38
42.51
40.01
37.6
35.86
35.07
35.16
35.75
36.42
36.87
36.99
36.8
36.35
35.52
34.16
32.13
29.43
26.13
22.27
17.82
12.65
6.67
0.01
-6.95
-13.71
-19.79
-24.94
-29.23
-32.97
-36.67
-40.87
-46.1
-52.69
-60.55
-69.05
-76.8
-81.97
-82.72
-77.78
-66.98
-51.42
-33.1
-14.47
2.31
15.87
25.73
32.16
35.77
37.21
36.98
35.48
33.13
30.5
28.26
27.05
27.19
28.6
30.86
33.34
35.54
37.17
38.2
38.79
39.02
38.8
37.83
35.59
31.67
25.92
18.67
10.67
2.88
-3.93
-9.46
-13.95
-18.15
-22.97
-29.17
-37.08
-46.43
-56.27
-65.11
-71.06
-72.38
-67.94
-57.69
-42.77
-25.23
-7.41
8.7
21.88
31.81
38.72
43.08
45.28
45.61
44.35
41.9
38.86
35.86
33.49
32.11
31.76
32.24
33.2
34.22
34.98
35.21
34.75
33.54
31.56
28.86
25.52
21.58
17.0
11.72
5.75
-0.76
-7.48
-13.93
-19.72
-24.69
-29.02
-33.23
-37.91
-43.63
-50.75
-59.28
-68.8
-78.3
-86.2
-90.56
-89.57
-82.18
-68.62
-50.43
-30.07
-10.19
7.1
20.71
30.53
37.04
40.94
42.74
42.79
41.45
39.18
36.6
34.4
33.09
32.91
33.74
35.21
36.91
38.51
39.84
40.87
41.52
41.64
40.98
39.27
36.38
32.46
27.85
22.97
18.12
13.3
8.25
2.64
-3.68
-10.58
-17.63
-24.34
-30.31
-35.44
-39.96
-44.35
-49.25
-55.23
-62.58
-70.89
-79.0
-85.06
-87.06
-83.43
-73.65
-58.51
-39.87
-20.09
-1.4
14.52
26.84
35.38
40.41
42.48
42.17
40.09
36.85
33.12
29.62
27.06
25.98
26.57
28.59
31.42
34.21
36.2
36.95
36.48
35.11
33.29
31.22
28.88
25.94
22.04
16.99
10.95
4.38
-2.08
-7.91
-12.81
-16.81
-20.22
-23.44
-26.96
-31.2
-36.57
-43.18
-50.76
-58.41
-64.58
-67.48
-65.51
-57.87
-44.91
-28.1
-9.59
8.44
24.22
36.78
45.76
51.33
53.81
53.65
51.35
47.52
42.9
38.32
34.53
32.05
31.08
31.43
32.64
34.23
35.71
36.77
37.23
36.99
35.99
34.16
31.49
27.98
23.67
18.57
12.74
6.26
-0.71
-7.91
-15.0
-21.7
-27.8
-33.28
-38.32
-43.28
-48.69
-55.14
-62.99
-72.14
-81.78
-90.28
-95.55
-95.63
-89.37
-76.92
-59.72
-40.01
-20.17
-2.05
13.31
25.6
34.89
41.35
45.13
46.48
45.84
43.92
41.54
39.39
37.82
36.81
36.15
35.62
35.22
35.12
35.49
36.32
37.28
37.81
37.28
35.27
31.72
26.92
21.36
15.47
9.52
3.59
-2.44
-8.67
-15.04
-21.32
-27.2
-32.36
-36.69
-40.3
-43.57
-47.1
-51.54
-57.41
-64.76
-72.9
-80.35
-85.13
-85.23
-79.38
-67.48
-50.78
-31.47
-12.02
5.42
19.51
29.8
36.47
40.05
41.09
40.15
37.74
34.44
30.93
27.88
25.84
25.2
25.95
27.86
30.43
33.1
35.36
36.82
37.33
36.88
35.63
33.68
31.03
27.54
23.0
17.29
10.53
3.09
-4.44
-11.52
-17.77
-23.02
-27.35
-31.05
-34.52
-38.22
-42.76
-48.63
-55.94
-64.15
-71.9
-77.26
-78.29
-73.72
-63.44
-48.57
-31.1
-13.21
3.28
17.22
28.09
35.75
40.23
41.71
40.57
37.45
33.29
29.08
25.74
23.87
23.63
24.78
26.78
29.04
31.11
32.8
34.11
35.16
35.95
36.16
35.28
32.7
28.05
21.45
13.55
5.32
-2.37
-8.96
-14.47
-19.39
-24.43
-30.3
-37.53
-46.29
-56.24
-66.39
-75.09
-80.33
-80.29
-74.04
-61.9
-45.46
-26.99
-8.8
7.42
20.74
30.92
38.01
42.25
43.92
43.39
41.26
38.22
34.98
32.15
30.17
29.26
29.42
30.46
32.02
33.72
35.16
36.02
36.12
35.4
33.83
31.43
28.12
23.82
18.45
12.05
4.76
-3.06
-10.96
-18.46
-25.2
-31.01
-35.98
-40.42
-44.87
-50.0
-56.41
-64.37
-73.45
-82.31
-88.96
-91.19
-87.38
-77.14
-61.42
-42.3
-22.25
-3.5
12.46
24.91
33.82
39.45
42.24
42.74
41.5
39.17
36.41
33.84
32.05
31.44
32.16
33.99
36.45
38.93
40.91
42.13
42.53
42.14
40.97
38.9
35.83
31.73
26.8
21.31
15.55
9.74
3.91
-1.97
-7.91
-13.82
-19.53
-24.82
-29.63
-34.08
-38.57
-43.69
-50.06
-57.92
-66.88
-75.71
-82.47
-85.1
-81.97
-72.52
-57.52
-38.8
-18.8
0.1
16.16
28.47
36.9
41.87
44.0
43.89
42.06
39.02
35.37
31.78
28.95
27.47
27.56
29.13
31.71
34.64
37.28
39.16
40.02
39.84
38.7
36.69
33.88
30.26
25.81
20.53
14.54
8.08
1.51
-4.84
-10.69
-15.9
-20.48
-24.58
-28.39
-32.28
-36.69
-42.05
-48.57
-55.89
-62.88
-67.83
-68.86
-64.54
-54.48
-39.57
-21.67
-3.1
14.03
28.28
38.97
46.06
49.87
50.93
49.84
47.29
43.99
40.61
37.72
35.71
34.81
35.08
36.37
38.35
40.54
42.35
43.29
43.03
41.46
38.74
35.16
31.0
26.5
21.75
16.72
11.25
5.18
-1.63
-9.11
-16.96
-24.7
-31.74
-37.63
-42.25
-45.78
-48.84
-52.28
-57.01
-63.61
-72.03
-81.24
-89.34
-93.97
-93.07
-85.61
-71.9
-53.58
-32.99
-12.59
5.67
20.57
31.61
38.84
42.69
43.79
42.93
40.93
38.59
36.61
35.48
35.47
36.5
38.29
40.37
42.32
43.9
45.1
46.03
46.77
47.22
47.12
46.13
43.97
40.54
35.97
30.55
24.71
18.88
13.46
8.69
4.53
0.58
-3.69
-8.76
-14.79
-21.43
-27.97
-33.59
-37.85
-40.83
-43.19
-45.89
-49.88
-55.87
-64.1
-74.16
-84.9
-94.41
-100.37
-100.6
-93.77
-80.05
-61.08
-39.58
-18.38
0.31
15.39
26.71
34.73
40.0
42.98
44.0
43.49
42.02
40.31
39.07
38.8
39.65
41.43
43.72
46.05
48.1
49.72
50.94
51.8
52.22
51.95
50.63
47.92
43.78
38.38
32.17
25.66
19.33
13.53
8.41
3.96
-0.07
-4.04
-8.32
-13.17
-18.52
-24.01
-29.1
-33.37
-36.7
-39.35
-41.88
-45.0
-49.38
-55.47
-63.24
-71.97
-80.13
-85.62
-86.25
-80.56
-68.39
-51.05
-30.93
-10.79
7.17
21.62
32.23
39.22
43.03
44.15
43.08
40.46
37.08
33.78
31.2
29.63
28.99
28.98
29.32
29.84
30.56
31.63
33.19
35.16
37.21
38.75
39.14
37.88
34.94
30.74
26.1
21.82
18.38
15.69
13.23
10.32
6.49
1.65
-3.84
-9.41
-14.49
-18.77
-22.26
-25.27
-28.4
-32.34
-37.71
-44.76
-53.08
-61.38
-67.73
-69.95
-66.32
-56.27
-40.63
-21.46
-1.45
16.87
31.67
42.11
48.2
50.35
49.13
45.07
38.75
30.92
22.52
14.64
8.22
3.84
1.57
1.07
1.79
3.18
4.94
6.96
9.17
11.37
13.19
14.1
13.61
11.56
8.11
3.8
-0.72
-4.98
-8.9
-12.7
-16.71
-21.0
-25.32
-29.2
-32.18
-34.12
-35.31
-36.4
-38.06
-40.79
-44.94
-50.68
-58.04
-66.68
-75.65
-83.22
-87.14
-85.34
-76.7
-61.68
-42.27
-21.32
-1.59
14.99
27.65
36.56
42.27
45.36
46.26
45.31
43.02
40.12
37.4
35.55
34.91
35.38
36.56
37.95
39.16
40.09
40.82
41.55
42.35
43.04
43.19
42.28
39.91
36.06
31.07
25.59
20.24
15.41
11.03
6.74
2.01
-3.48
-9.67
-16.12
-22.19
-27.33
-31.33
-34.5
-37.54
-41.43
-47.04
-54.78
-64.27
-74.25
-82.81
-87.75
-87.38
-80.86
-68.56
-51.9
-32.91
-13.78
3.67
18.18
29.11
36.37
40.23
41.22
40.02
37.39
34.1
30.89
28.39
27.05
27.08
28.41
30.71
33.45
36.1
38.17
39.33
39.37
38.24
36.0
32.79
28.86
24.41
19.62
14.56
9.25
3.65
-2.22
-8.26
-14.27
-19.98
-25.17
-29.68
-33.53
-36.94
-40.33
-44.31
-49.5
-56.32
-64.61
-73.46
-81.18
-85.69
-85.15
-78.55
-66.23
-49.66
-31.07
-12.73
3.59
16.88
26.82
33.53
37.31
38.49
37.46
34.72
30.92
26.81
23.14
20.56
19.48
19.99
21.85
24.51
27.34
29.77
31.49
32.48
32.97
33.11
32.92
32.12
30.23
26.86
21.94
15.79
9.08
2.52
-3.41
-8.61
-13.29
-17.88
-22.85
-28.67
-35.73
-44.18
-53.72
-63.31
-71.12
-75.0
-73.08
-64.52
-49.93
-31.2
-10.87
8.59
25.44
38.81
48.57
55.01
58.52
59.53
58.51
56.02
52.8
49.62
47.09
45.55
44.96
45.02
45.34
45.68
46.01
46.45
47.0
47.38
47.0
45.26
41.83
36.91
31.12
25.19
19.68
14.71
10.01
5.09
-0.41
-6.58
-13.19
-19.77
-25.81
-30.96
-35.18
-38.75
-42.21
-46.3
-51.69
-58.83
-67.63
-77.28
-86.22
-92.32
-93.45
-88.13
-76.08
-58.49
-37.65
-16.3
3.18
19.25
31.38
39.74
44.84
47.26
47.56
46.36
44.35
42.21
40.49
39.53
39.35
39.83
40.73
41.89
43.07
44.15
45.03
45.67
46.05
46.12
45.73
44.63
42.51
39.2
34.8
29.63
24.25
19.09
14.41
10.13
5.93
1.45
-3.58
-9.16
-15.07
-20.93
-26.36
-31.11
-35.12
-38.56
-41.85
-45.54
-50.29
-56.58
-64.43
-73.12
-81.21
