0
36.62
44.01
48.23
49.82
49.39
47.6
45.15
42.69
40.68
39.37
38.77
38.77
39.15
39.74
40.41
41.12
41.85
42.57
43.16
43.42
43.1
41.93
39.78
36.62
32.62
28.05
23.26
18.53
14.07
9.99
6.27
2.82
-0.59
-4.22
-8.33
-13.01
-18.12
-23.27
-27.97
-31.86
-34.9
-37.43
-40.1
-43.62
-48.54
-55.12
-63.09
-71.61
-79.15
-83.78
-83.56
-77.19
-64.58
-47.01
-26.75
-6.39
11.92
26.9
38.16
45.87
50.41
52.17
51.58
49.22
45.88
42.36
39.36
37.31
36.33
36.3
36.96
38.01
39.16
40.21
41.06
41.72
42.21
42.44
42.17
41.05
38.79
35.32
30.85
25.81
20.7
15.87
11.44
7.36
3.47
-0.4
-4.41
-8.64
-13.09
-17.66
-22.15
-26.28
-29.87
-32.92
-35.6
-38.29
-41.42
-45.42
-50.67
-57.22
-64.68
-72.01
-77.54
-79.41
-76.08
-66.98
-52.76
-35.17
-16.44
1.32
16.54
28.39
36.59
41.25
42.66
41.27
37.71
32.78
27.39
22.42
18.62
16.44
15.92
16.81
18.62
20.85
23.15
25.29
27.16
28.56
29.18
28.67
26.77
23.53
19.28
14.59
9.98
5.77
1.92
-1.84
-5.9
-10.49
-15.6
-20.96
-26.14
-30.76
-34.65
-37.93
-41.02
-44.57
-49.19
-55.21
-62.37
-69.65
-75.45
-77.92
-75.53
-67.6
-54.54
-37.81
-19.43
-1.43
14.58
27.65
37.41
43.82
46.99
47.17
44.79
40.53
35.36
30.31
26.25
23.67
22.6
22.75
23.7
25.11
26.77
28.55
30.25
31.54
32.06
31.46
29.61
26.58
22.66
18.22
13.58
8.98
4.49
0.05
-4.49
-9.27
-14.33
-19.56
-24.66
-29.3
-33.24
-36.47
-39.26
-42.13
-45.82
-51.03
-58.19
-67.0
-76.33
-84.2
-88.27
-86.58
-78.23
-63.85
-45.31
-25.19
-5.87
10.96
24.57
34.9
42.22
46.83
49.02
49.12
47.61
45.16
42.47
40.16
38.62
37.94
38.01
38.57
39.37
40.25
41.17
42.13
43.06
43.73
43.77
42.77
40.46
36.82
32.18
27.01
21.85
17.11
12.94
9.25
5.73
1.99
-2.32
-7.36
-13.04
-19.01
-24.78
-29.9
-34.18
-37.7
-40.83
-44.11
-48.18
-53.62
-60.76
-69.43
-78.68
-86.77
-91.42
-90.47
-82.7
-68.29
-48.93
-27.27
-6.15
12.2
26.58
36.83
43.5
47.39
49.24
49.57
48.74
47.11
45.1
43.19
41.82
41.22
41.32
41.83
42.44
42.99
43.58
44.43
45.64
46.99
47.98
47.98
46.6
43.76
39.74
35.0
29.95
24.89
20.01
15.47
11.41
7.89
4.82
1.94
-1.1
-4.65
-8.89
-13.78
-19.03
-24.27
-29.1
-33.31
-36.92
-40.16
-43.48
-47.4
-52.49
-59.12
-67.28
-76.19
-84.29
-89.41
-89.31
-82.52
-68.95
-50.07
-28.43
-6.89
12.25
27.7
39.1
46.74
51.08
52.59
51.76
49.27
45.94
42.67
40.18
38.83
38.6
39.13
40.02
40.95
41.81
42.62
43.46
44.29
44.91
45.0
44.18
42.28
39.31
35.57
31.44
27.29
23.31
19.5
15.77
12.05
8.37
4.87
1.72
-1.03
-3.47
-5.86
-8.52
-11.69
-15.49
-19.77
-24.25
-28.53
-32.3
-35.44
-38.13
-40.85
-44.21
-48.89
-55.3
-63.37
-72.35
-80.73
-86.49
-87.6
-82.62
-71.33
-54.8
-35.19
-15.03
3.44
18.75
30.32
38.15
42.58
44.09
43.17
40.38
36.45
32.14
28.17
25.13
23.35
22.93
23.72
25.45
27.75
30.23
32.59
34.56
35.95
36.6
36.37
35.15
32.89
29.65
25.58
20.92
15.91
10.84
6.02
1.71
-1.92
-4.84
-7.3
-9.69
-12.48
-16.0
-20.26
-24.97
-29.63
-33.75
-37.07
-39.65
-41.89
-44.44
-48.06
-53.4
-60.66
-69.43
-78.4
-85.58
-88.72
-85.97
-76.53
-61.03
-41.43
-20.37
-0.45
16.46
29.49
38.62
44.34
47.24
47.79
46.37
43.38
39.46
35.37
31.9
29.63
28.76
29.14
30.41
32.21
34.27
36.44
38.55
40.37
41.57
41.83
40.96
38.98
36.1
32.63
28.86
24.93
20.89
16.71
12.35
7.89
3.45
-0.76
-4.55
-7.83
-10.65
-13.25
-16.01
-19.29
-23.28
-27.87
-32.67
-37.18
-40.98
-44.02
-46.6
-49.43
-53.37
-59.13
-66.99
-76.47
-86.16
-93.9
-97.28
-94.32
-84.2
-67.64
-46.68
-24.16
-2.82
15.3
29.21
38.86
44.74
47.6
48.14
47.0
44.79
42.11
39.54
37.55
36.39
36.07
36.4
37.15
38.11
39.23
40.58
42.19
43.97
45.61
46.65
46.63
45.26
42.55
38.83
34.64
30.53
26.81
23.46
20.18
16.53
12.22
7.3
2.18
-2.56
-6.43
-9.35
-11.67
-14.02
-17.04
-21.0
-25.79
-30.95
-35.96
-40.44
-44.33
-47.84
-51.41
-55.62
-61.03
-68.03
-76.51
-85.56
-93.44
-97.9
-96.79
-88.87
-74.29
-54.63
-32.41
-10.35
9.31
25.29
37.19
45.25
50.0
52.04
51.93
50.18
47.42
44.31
41.51
39.51
38.54
38.54
39.3
40.58
42.25
44.27
46.6
49.06
51.28
52.73
52.93
51.6
48.79
44.87
40.39
35.9
31.72
27.89
24.21
20.41
16.25
11.72
7.0
2.4
-1.8
-5.49
-8.73
-11.76
-14.93
-18.49
-22.54
-26.97
-31.48
-35.72
-39.48
-42.79
-46.01
-49.74
-54.67
-61.24
-69.37
-78.19
-86.11
-91.06
-91.08
-84.91
-72.45
-54.87
-34.34
-13.38
5.78
21.7
33.8
42.14
47.1
49.1
48.51
45.77
41.47
36.41
31.46
27.38
24.65
23.48
23.77
25.28
27.65
30.49
33.34
35.84
37.66
38.59
38.5
37.34
35.09
31.86
27.91
23.56
19.19
15.01
11.0
7.03
2.92
-1.34
-5.63
-9.73
-13.52
-17.04
-20.45
-23.95
-27.62
-31.38
-35.02
-38.36
-41.34
-44.12
-47.15
-51.05
-56.45
-63.57
-71.94
-80.17
-86.24
-87.93
-83.64
-72.94
-56.76
-37.06
-16.29
3.34
20.22
33.52
43.04
48.95
51.64
51.52
49.11
45.01
39.97
34.8
30.28
27.09
25.55
25.7
27.24
29.73
32.69
35.7
38.41
40.51
41.67
41.59
40.09
37.27
33.49
29.26
25.08
21.2
17.56
13.9
9.93
5.52
0.81
-3.9
-8.32
-12.37
-16.21
-20.12
-24.33
-28.86
-33.49
-37.87
-41.75
-45.08
-48.13
-51.41
-55.56
-61.16
-68.49
-77.23
-86.28
-93.84
-97.75
-96.08
-87.77
-73.04
-53.44
-31.29
-9.15
10.88
27.49
40.13
48.83
53.9
55.84
55.26
52.87
49.44
45.7
42.26
39.56
37.81
37.07
37.3
38.35
40.05
42.18
44.46
46.6
48.27
49.19
49.11
47.92
45.61
42.37
38.5
34.31
30.03
25.67
21.18
16.43
11.39
6.23
1.2
-3.42
-7.51
-11.14
-14.56
-18.05
-21.88
-26.14
-30.75
-35.45
-39.93
-43.95
-47.5
-50.9
-54.81
-60.1
-67.37
-76.55
-86.57
-95.38
-100.41
-99.37
-91.01
-75.58
-54.82
-31.36
-8.01
12.93
30.02
42.72
51.14
55.74
57.19
56.18
53.52
50.03
46.49
43.5
41.5
40.65
40.94
42.2
44.19
46.63
49.22
51.65
53.64
54.9
55.21
54.46
52.62
49.83
46.31
42.31
38.06
33.67
29.14
24.37
19.39
14.28
9.25
4.56
0.33
-3.52
-7.22
-11.04
-15.17
-19.61
-24.21
-28.73
-32.98
-36.86
-40.45
-44.02
-48.05
-53.17
-59.92
-68.38
-77.89
-86.87
-93.05
-94.19
-88.71
-76.34
-58.3
-36.86
-14.73
5.69
22.8
35.88
44.92
50.26
52.37
51.68
48.63
43.86
38.19
32.65
28.22
25.57
24.9
25.9
27.89
30.14
32.14
33.69
34.84
35.7
36.25
36.34
35.68
34.01
31.18
27.26
22.54
17.45
12.47
7.92
3.83
-0.04
-4.1
-8.7
-13.91
-19.43
-24.76
-29.37
-33.0
-35.69
-37.81
-39.95
-42.8
-47.01
-53.03
-60.82
-69.58
-77.64
-82.76
-82.78
-76.35
-63.51
-45.7
-25.28
-4.81
13.66
28.86
40.27
47.87
51.84
52.52
50.41
46.24
40.96
35.57
30.92
27.59
25.73
25.24
25.78
26.99
28.55
30.3
32.07
33.74
35.07
35.74
35.38
33.68
30.49
25.88
20.22
14.08
8.12
2.83
-1.63
-5.52
-9.4
-13.84
-19.2
-25.34
-31.75
-37.67
-42.51
-46.11
-48.83
-51.48
-55.07
-60.48
-68.05
-77.32
-86.84
-94.42
-97.64
-94.65
-84.71
-68.51
-47.99
-25.66
-3.95
15.28
30.94
42.6
50.25
54.16
54.84
53.03
49.66
45.72
42.06
39.29
37.65
37.1
37.35
38.09
39.04
40.1
41.27
42.6
43.98
45.1
45.43
44.46
41.87
37.72
32.43
26.66
21.02
15.84
11.15
6.62
1.82
-3.56
-9.6
-16.01
-22.29
-27.88
-32.44
-35.96
-38.84
-41.74
-45.43
-50.63
-57.81
-66.89
-77.05
-86.56
-93.05
-94.11
-88.1
-74.78
-55.6
-33.23
-10.73
9.37
25.59
37.57
45.69
50.61
52.9
53.04
51.5
48.9
45.98
43.46
41.81
41.17
41.37
42.05
42.89
43.68
44.39
45.04
45.67
46.21
46.48
46.17
44.93
42.51
38.8
33.95
28.37
22.59
17.15
12.41
8.37
4.78
1.16
-2.95
-7.81
-13.34
-19.16
-24.72
-29.55
-33.48
-36.72
-39.82
-43.5
-48.46
-55.16
-63.58
-72.97
-81.79
-87.88
-88.95
-83.34
-70.66
-52.14
-30.28
-8.07
11.91
28.13
40.17
48.37
53.35
55.6
55.47
53.35
49.84
45.75
41.93
39.04
37.39
36.91
37.3
38.19
39.29
40.43
41.49
42.42
43.08
43.28
42.79
41.32
38.64
34.65
29.54
23.72
17.79
12.32
7.64
3.75
0.34
-3.1
-7.03
-11.68
-16.99
-22.6
-28.04
-32.86
-36.83
-40.02
-42.84
-45.95
-50.07
-55.84
-63.38
-72.07
-80.36
-86.07
-86.94
-81.42
-69.33
-52.02
-31.88
-11.6
6.69
21.77
33.27
41.24
45.84
47.19
45.58
41.68
36.56
31.42
27.26
24.55
23.28
23.09
23.63
24.65
26.09
27.9
29.95
31.93
33.38
33.8
32.84
30.34
26.53
21.86
16.95
12.28
8.03
4.03
-0.18
-5.08
-10.88
-17.39
-24.02
-30.05
-34.9
-38.39
-40.84
-42.98
-45.78
-50.13
-56.55
-64.82
-73.83
-81.64
-85.92
-84.65
-76.77
-62.63
-43.92
-23.18
-3.01
14.52
28.28
38.02
44.06
46.96
47.33
45.73
42.7
38.93
35.15
32.05
30.13
29.55
30.09
31.33
32.82
34.26
35.56
36.78
37.94
38.92
39.37
38.83
36.89
33.42
28.6
22.95
17.13
11.73
7.08
3.12
-0.53
-4.43
-9.04
-14.48
-20.49
-26.52
-31.99
-36.52
-40.1
-43.06
-45.95
-49.41
-54.09
-60.42
-68.4
-77.33
-85.7
-91.35
-92.06
-86.27
-73.75
-55.75
-34.65
-13.17
6.35
22.48
34.71
43.18
48.32
50.61
50.59
48.84
46.04
42.98
40.33
38.56
37.86
38.14
39.14
40.53
42.01
43.33
44.28
44.7
44.48
43.61
42.12
40.08
37.5
34.31
30.44
25.88
20.82
15.59
10.61
6.19
2.37
-1.06
-4.51
-8.35
-12.76
-17.65
-22.68
-27.47
-31.73
-35.35
-38.49
-41.49
-44.79
-48.9
-54.33
-61.4
-70.06
-79.48
-88.07
-93.62
-93.89
-87.39
-74.0
-55.11
-33.3
-11.45
8.03
23.72
35.27
43.1
47.88
50.28
50.8
49.89
48.05
45.84
43.82
42.42
41.85
42.03
42.75
43.8
45.02
46.32
47.63
48.75
49.39
49.26
48.12
45.92
42.81
39.02
34.83
30.44
25.99
21.52
17.05
12.61
8.3
4.26
0.61
-2.65
-5.66
-8.73
-12.16
-16.13
-20.57
-25.21
-29.7
-33.79
-37.47
-40.93
-44.6
-48.98
-54.61
-61.78
-70.32
-79.26
-86.84
-90.81
-89.14
-80.73
-65.94
-46.56
-25.19
-4.49
13.52
27.77
38.03
44.57
47.84
48.32
46.5
43.02
38.66
34.3
30.71
28.41
27.54
27.86
28.96
30.41
31.89
33.31
34.63
35.86
36.86
37.4
37.16
35.8
33.12
29.05
23.77
17.7
11.45
5.67
0.8
-3.03
-6.09
-8.91
-12.02
-15.7
-19.89
-24.27
-28.41
-32.07
-35.22
-38.04
-40.87
-44.07
-48.0
-53.05
-59.39
-66.79
-74.34
-80.42
-83.08
-80.58
-72.06
-57.96
-39.89
-20.17
-1.1
15.57
28.91
38.67
45.0
48.15
48.4
46.11
41.92
36.73
31.62
27.57
25.2
24.63
25.55
27.4
29.65
31.88
33.81
35.21
35.92
35.83
34.93
33.31
31.1
28.43
25.32
21.75
17.74
13.41
8.93
4.52
0.31
-3.68
-7.57
-11.51
-15.67
-20.12
-24.79
-29.52
-34.09
-38.32
-42.14
-45.67
-49.13
-52.89
-57.39
-63.01
-69.92
-77.75
-85.35
-90.85
-92.11
-87.39
-76.14
-59.23
-38.81
-17.58
2.04
18.42
30.9
39.54
44.79
47.18
47.28
45.69
43.04
40.01
37.21
35.06
33.77
33.4
33.84
34.9
36.38
38.08
39.83
41.45
42.75
43.49
43.44
42.45
40.43
37.44
33.6
29.15
24.37
19.59
15.05
10.92
7.21
3.82
0.54
-2.79
-6.32
-10.1
-14.14
-18.39
-22.79
-27.17
-31.33
-35.07
-38.38
-41.56
-45.19
-50.01
-56.61
-64.99
-74.37
-83.09
-88.94
-89.72
-84.04
-71.77
-54.18
-33.57
-12.58
6.58
22.56
34.85
43.56
48.97
51.37
51.14
48.83
45.29
41.5
38.35
36.32
35.5
35.66
36.44
37.61
39.03
40.61
42.11
43.26
43.78
43.48
42.38
40.61
38.24
35.3
31.72
27.47
22.68
17.64
12.79
8.44
4.76
1.6
-1.47
-4.89
-9.05
-13.98
-19.42
-24.84
-29.69
-33.6
-36.49
-38.63
-40.53
-42.89
-46.39
-51.64
-58.84
-67.5
-76.28
-83.09
-85.65
-82.23
-72.28
-56.71
-37.56
-17.35
1.64
17.82
30.4
39.18
44.35
46.32
45.61
42.88
38.91
34.52
30.47
27.39
25.63
25.23
25.97
27.42
29.13
30.82
32.36
33.72
34.87
35.62
35.64
34.58
32.19
28.5
23.82
18.64
13.49
8.82
4.8
1.33
-1.93
-5.44
-9.55
-14.34
-19.59
-24.82
-29.5
-33.29
-36.17
-38.46
-40.73
-43.64
-47.75
-53.45
-60.74
-69.12
-77.42
-83.85
-86.38
-83.27
-73.72
-58.31
-38.9
-18.08
1.56
18.17
30.91
39.79
45.31
48.04
48.47
47.03
44.22
40.73
37.32
34.67
33.21
32.98
33.71
34.97
36.33
37.47
38.25
38.62
38.59
38.19
37.42
36.26
34.68
32.6
29.89
26.42
22.16
17.25
11.97
6.74
1.9
-2.37
-6.17
-9.75
-13.41
-17.39
-21.74
-26.36
-31.05
-35.57
-39.76
-43.59
-47.2
-50.99
-55.5
-61.25
-68.43
-76.64
-84.65
-90.62
-92.52
-88.72
-78.62
-62.91
-43.38
-22.47
-2.54
14.68
28.28
38.18
44.7
48.29
49.39
48.36
45.72
42.12
38.39
35.26
33.25
32.49
32.79
33.8
35.15
36.57
37.92
39.1
40.05
40.66
40.83
40.43
39.43
37.81
35.65
33.1
30.37
27.66
25.11
22.76
20.5
18.16
15.46
12.12
7.92
2.82
-3.05
-9.32
-15.54
-21.29
-26.33
-30.65
-34.48
-38.3
-42.68
-48.3
-55.58
-64.41
-73.84
-82.09
-86.9
-86.2
-78.91
-65.38
-47.23
-26.92
-6.93
10.84
25.25
35.97
43.14
47.22
48.74
48.28
46.42
43.75
40.86
38.33
36.6
35.92
36.2
37.08
38.12
38.94
39.46
39.79
40.05
40.25
40.2
39.57
38.14
35.88
32.92
29.45
25.67
21.69
17.61
13.48
9.36
5.23
1.1
-3.06
-7.25
-11.4
-15.45
-19.4
-23.3
-27.17
-30.98
-34.67
-38.19
-41.62
-45.2
-49.39
-54.66
-61.29
-69.11
-77.2
-83.98
-87.47
-85.88
-78.29
-65.01
-47.57
-28.24
-9.34
7.41
21.07
31.37
38.43
42.45
43.67
42.42
39.25
34.95
30.43
26.54
23.89
22.78
23.13
24.61
26.77
29.21
31.56
33.61
35.2
36.17
36.31
35.44
33.42
30.26
26.15
21.44
16.55
11.85
7.52
3.53
-0.36
-4.49
-9.13
-14.32
-19.86
-25.33
-30.26
-34.28
-37.34
-39.7
-41.94
-44.79
-48.99
-55.02
-62.91
-71.95
-80.74
-87.24
-89.33
-85.42
-75.03
-59.02
-39.41
-18.73
0.72
17.33
30.35
39.72
45.7
48.66
49.05
47.42
44.45
40.93
37.57
34.95
33.38
32.92
33.45
34.72
36.42
38.28
40.08
41.64
42.83
43.46
43.34
42.19
39.86
36.32
31.76
26.56
21.16
15.96
11.19
6.89
2.94
-0.87
-4.81
-9.07
-13.79
-18.96
-24.4
-29.77
-34.71
-38.93
-42.41
-45.48
-48.81
-53.21
-59.34
-67.35
-76.59
-85.46
-91.77
-93.23
-88.24
-76.47
-59.09
-38.36
-17.04
2.55
18.9
31.5
40.51
46.39
49.6
50.57
49.76
47.74
45.18
42.74
40.94
40.01
39.97
40.58
41.52
42.48
43.23
43.72
44.02
44.2
44.26
44.01
43.17
41.41
38.55
34.61
29.84
24.65
19.43
14.5
10.0
5.86
1.86
-2.26
-6.69
-11.44
-16.34
-21.13
-25.56
-29.48
-32.96
-36.22
-39.63
-43.66
-48.85
-55.6
-63.9
-73.05
-81.49
-87.11
-87.76
-82.09
-70.05
-53.03
-33.32
-13.37
4.89
20.34
32.59
41.65
47.62
50.62
50.92
49.0
45.65
41.77
38.24
35.65
34.26
33.98
34.44
35.23
36.0
36.61
37.1
37.55
37.98
38.24
38.02
36.95
34.81
31.56
27.42
22.76
17.97
13.36
9.05
4.94
0.8
-3.61
-8.42
-13.52
-18.6
-23.33
-27.45
-30.9
-33.88
-36.74
-39.86
-43.64
-48.48
-54.61
-61.96
-69.79
-76.71
-80.78
-80.15
-73.7
-61.52
-44.93
-26.13
-7.44
9.24
22.85
33.05
39.97
43.95
45.31
44.38
41.57
37.48
32.92
28.7
25.53
23.75
23.29
23.77
24.72
25.86
27.09
28.48
29.99
31.3
31.88
31.18
28.87
25.06
20.27
15.2
10.49
6.45
2.99
-0.33
-4.03
-8.49
-13.75
-19.52
-25.27
-30.51
-34.97
-38.72
-42.11
-45.66
-49.92
-55.34
-62.11
-69.85
-77.49
-83.28
-85.16
-81.47
-71.54
-56.14
-37.16
-17.13
1.67
17.71
30.34
39.6
45.79
49.2
50.07
48.7
45.62
41.61
37.59
34.41
32.59
32.2
32.91
34.16
35.42
36.38
37.02
37.47
37.87
38.13
37.97
37.0
34.86
31.4
26.82
21.55
16.15
11.1
6.65
2.74
-0.97
-4.91
-9.39
-14.48
-19.9
-25.22
-30.01
-34.04
-37.41
-40.52
-43.95
-48.34
-54.21
-61.73
-70.54
-79.5
-86.79
-90.25
-88.03
-79.27
-64.46
-45.4
-24.58
-4.48
13.1
27.22
37.71
44.83
49.0
50.67
50.32
48.52
45.92
43.14
40.7
38.94
37.98
37.76
38.09
38.73
39.48
40.2
40.85
41.42
41.82
41.85
41.2
39.55
36.73
32.77
27.95
22.7
17.54
12.83
8.76
5.22
1.91
-1.57
-5.56
-10.16
-15.21
-20.35
-25.12
-29.22
-32.56
-35.35
-37.99
-41.09
-45.29
-51.14
-58.8
-67.73
-76.56
-83.21
-85.45
-81.62
-71.27
-55.31
-35.8
-15.23
4.14
20.71
33.71
43.03
48.92
51.87
52.41
51.13
48.63
45.57
42.55
40.1
38.54
37.93
38.06
38.58
39.18
39.68
40.13
40.67
41.32
41.88
41.97
41.13
39.03
35.61
31.06
25.77
20.23
14.94
10.22
6.22
2.76
-0.5
-4.02
-8.08
-12.74
-17.77
-22.77
-27.41
-31.52
-35.13
-38.39
-41.51
-44.75
-48.53
-53.35
-59.55
-67.05
-74.97
-81.65
-84.97
-83.03
-74.87
-60.83
-42.51
-22.28
-2.61
14.57
28.11
37.64
43.33
45.6
44.99
42.13
37.78
32.88
28.42
25.21
23.64
23.55
24.42
25.63
26.71
27.59
28.43
29.45
30.64
31.72
32.2
31.57
29.5
26.01
21.46
16.44
11.58
7.28
3.59
0.19
-3.46
-7.75
-12.72
-18.05
-23.19
-27.67
-31.34
-34.38
-37.24
-40.46
-44.59
-50.06
-57.03
-65.14
-73.31
-79.78
-82.48
-79.72
-70.82
-56.36
-38.14
-18.51
0.27
16.59
29.56
39.05
45.28
48.66
49.59
48.48
45.77
42.02
37.88
34.07
31.22
29.71
29.52
30.29
31.51
32.73
33.76
34.6
35.31
35.85
35.94
35.16
33.12
29.64
24.92
19.46
13.95
8.97
4.78
1.22
-2.22
-6.15
-10.98
-16.77
-23.09
-29.3
-34.74
-39.06
-42.32
-45.01
-47.84
-51.63
-57.04
-64.32
-73.06
-82.0
-89.17
-92.35
-89.69
-80.41
-65.13
-45.69
-24.58
-4.19
13.73
28.27
39.14
46.42
50.36
51.31
49.8
46.6
42.66
38.92
36.07
34.44
34.0
34.4
35.22
36.1
36.87
37.53
38.19
38.93
39.68
40.15
39.89
38.44
35.49
31.07
25.54
19.51
13.7
8.62
4.43
0.94
-2.36
-6.03
-10.49
-15.8
-21.65
-27.49
-32.8
-37.31
-41.13
-44.7
-48.68
-53.69
-60.08
-67.79
-76.07
-83.53
-88.26
-88.3
-82.23
-69.79
-52.03
-31.11
-9.67
9.96
26.27
38.71
47.42
52.88
55.57
55.92
54.35
51.42
47.81
44.27
41.42
39.63
39.0
39.33
40.26
41.4
42.4
43.13
43.51
43.56
43.2
42.26
40.47
37.62
33.71
28.94
23.71
18.5
13.7
9.49
5.72
2.04
-2.04
-6.91
-12.59
-18.76
-24.71
-29.77
-33.55
-36.2
-38.37
-40.96
-44.83
-50.5
-58.0
-66.79
-75.75
-83.2
-87.2
-85.94
-78.39
-64.72
-46.35
-25.67
-5.25
12.78
27.18
37.56
44.17
47.52
48.16
46.59
43.33
38.98
34.22
29.79
26.29
24.13
23.37
23.83
25.1
26.83
28.74
30.65
32.34
33.53
33.84
32.91
30.61
27.05
22.59
17.68
12.67
7.74
2.86
-2.07
-7.16
-12.4
-17.64
-22.65
-27.18
-31.1
-34.51
-37.76
-41.48
-46.28
-52.52
-60.01
-67.78
-74.21
-77.31
-75.38
-67.57
-54.22
-36.82
-17.57
1.29
18.01
31.64
41.88
48.81
52.6
53.44
51.64
47.79
42.78
37.64
33.24
30.1
28.29
27.6
27.74
28.51
29.82
31.52
33.36
34.87
35.51
34.82
32.57
28.85
24.05
18.7
13.35
8.38
3.89
-0.31
-4.59
-9.33
-14.72
-20.67
-26.78
-32.56
-37.55
-41.58
-44.81
-47.76
-51.19
-55.88
-62.36
-70.53
-79.47
-87.29
-91.63
-90.3
-82.07
-67.23
-47.56
-25.74
-4.53
13.99
28.79
39.7
47.03
51.15
52.43
51.32
48.49
44.84
41.31
38.61
37.0
36.35
36.28
36.4
36.51
36.64
36.95
37.6
38.55
39.52
39.96
39.25
36.92
32.87
27.43
21.29
15.22
9.76
5.03
0.77
-3.5
-8.17
-13.39
-18.99
-24.6
-29.79
-34.28
-38.03
-41.31
-44.69
-48.91
-54.71
-62.42
-71.67
-81.19
-88.98
-92.77
-90.72
-82.02
-67.15
-47.83
-26.47
-5.52
13.07
28.18
39.46
47.11
51.6
53.41
53.05
51.03
47.96
44.57
41.55
39.46
38.52
38.67
39.63
41.01
42.46
43.7
44.55
44.89
44.65
43.79
42.26
40.0
36.91
32.97
28.35
23.38
18.53
14.19
10.44
7.0
3.34
-1.0
-6.26
-12.23
-18.4
-24.14
-28.95
-32.72
-35.69
-38.45
-41.72
-46.2
-52.38
-60.33
-69.53
-78.75
-86.15
-89.63
-87.36
-78.4
-63.12
-43.21
-21.24
0.09
18.61
33.12
43.4
49.85
53.12
53.85
52.64
50.11
46.94
43.84
41.4
39.91
39.3
39.24
39.31
39.25
39.04
38.87
39.0
39.57
40.42
41.14
41.09
39.69
36.6
31.89
26.06
19.87
14.09
9.23
5.37
2.21
-0.83
-4.3
-8.53
-13.51
-18.91
-24.26
-29.16
-33.37
-36.94
-40.09
-43.18
-46.71
-51.25
-57.22
-64.6
-72.65
-79.8
-83.91
-82.91
-75.58
-62.06
-43.89
-23.56
-3.69
13.68
27.4
37.24
43.46
46.51
46.82
44.83
41.08
36.32
31.41
27.19
24.26
22.85
22.82
23.79
25.33
27.12
28.94
30.63
31.96
32.59
32.19
30.51
27.55
23.51
18.78
13.81
8.91
4.21
-0.38
-5.05
-9.96
-15.12
-20.28
-25.11
-29.33
-32.86
-35.91
-38.95
-42.49
-47.07
-52.98
-60.17
-68.02
-75.26
-80.05
-80.46
-75.1
-63.69
-47.28
-28.04
-8.46
9.31
23.91
34.89
42.43
46.87
48.63
48.09
45.69
42.03
37.83
33.79
30.5
28.31
27.28
27.19
27.71
28.51
29.43
30.47
31.64
32.81
33.52
33.15
31.17
27.4
22.21
16.31
10.52
5.38
0.93
-3.16
-7.45
-12.32
-17.84
-23.7
-29.43
-34.55
-38.86
-42.47
-45.83
-49.58
-54.38
-60.69
-68.52
-77.23
-85.42
-91.12
-92.21
-87.11
-75.4
-58.06
-37.31
-15.87
3.87
20.35
33.06
42.15
48.05
51.09
51.56
49.79
46.43
42.42
38.76
36.24
35.16
35.35
36.22
37.15
37.75
37.94
37.93
38.04
38.33
38.58
38.24
36.73
33.72
29.35
24.12
18.71
13.64
9.05
4.72
0.28
-4.62
-10.12
-16.03
-22.01
-27.61
-32.47
-36.46
-39.73
-42.78
-46.38
-51.29
-58.05
-66.55
-75.86
-84.23
-89.45
-89.42
-82.81
-69.56
-50.95
-29.31
-7.35
12.55
28.81
40.83
48.77
53.18
54.74
54.11
51.96
48.96
45.78
43.02
41.06
40.02
39.74
39.92
40.24
40.44
40.45
40.35
40.27
40.27
40.22
39.78
38.45
35.79
31.68
26.39
20.58
15.03
10.36
6.69
3.68
0.69
-2.89
-7.37
-12.6
-18.11
-23.32
-27.88
-31.73
-35.21
-38.8
-43.07
-48.51
-55.38
-63.52
-72.17
-79.86
-84.63
-84.48
-78.09
-65.32
-47.43
-26.72
-5.86
12.82
27.86
38.71
45.55
48.86
49.29
47.48
44.12
39.94
35.71
32.05
29.38
27.83
27.23
27.33
27.85
28.65
29.68
30.93
32.27
33.39
33.87
33.26
31.25
27.88
23.44
18.52
13.69
9.32
5.45
1.76
-2.18
-6.71
-11.85
-17.29
-22.49
-26.95
-30.48
-33.3
-36.01
-39.35
-43.99
-50.23
-57.77
-65.6
-72.09
-75.3
-73.53
-65.86
-52.6
-35.24
-16.03
2.65
18.97
31.89
41.15
46.96
49.64
49.54
47.09
42.95
37.99
33.16
29.23
26.62
25.34
25.12
25.62
26.57
27.8
29.17
30.46
31.36
31.51
30.59
28.44
25.09
20.79
15.96
11.06
6.48
2.36
-1.45
-5.34
-9.7
-14.73
-20.27
-25.87
-30.98
-35.22
-38.58
-41.44
-44.5
-48.49
-53.97
-61.1
-69.44
-77.79
-84.34
-86.98
-83.97
-74.54
-59.28
-40.05
-19.4
0.16
16.81
29.68
38.75
44.49
47.47
48.19
47.1
44.66
41.51
38.34
35.82
34.34
33.96
34.31
34.85
35.14
35.03
34.77
34.74
35.2
35.96
36.44
35.89
33.72
29.88
24.77
19.17
13.82
9.17
5.21
1.55
-2.33
-6.86
-12.15
-18.0
-23.94
-29.41
-34.05
-37.81
-40.96
-44.06
-47.8
-52.8
-59.43
-67.51
-76.22
-83.95
-88.63
-88.27
-81.59
-68.59
-50.61
-30.0
-9.35
9.22
24.45
36.03
44.18
49.35
51.95
52.3
50.81
48.05
44.75
41.63
39.23
37.8
37.31
37.54
38.23
39.13
40.05
40.87
41.49
41.83
41.78
41.16
39.77
37.41
33.97
29.47
24.2
18.59
13.16
8.35
4.34
1.01
-2.05
-5.34
-9.27
-13.92
-19.05
-24.15
-28.75
-32.62
-35.89
-39.01
-42.53
-47.0
-52.81
-60.08
-68.52
-77.16
-84.36
-88.0
-86.13
-77.67
-62.94
-43.66
-22.43
-1.86
16.05
30.28
40.64
47.37
50.94
51.78
50.39
47.38
43.5
39.47
36.01
33.62
32.55
32.75
33.89
35.46
36.95
37.98
38.36
38.08
37.15
35.59
33.4
30.64
27.47
24.11
20.7
17.32
13.95
10.6
7.36
4.35
1.66
-0.8
-3.3
-6.13
-9.52
-13.43
-17.62
-21.77
-25.62
-29.1
-32.37
-35.8
-39.87
-45.06
-51.74
-59.83
-68.64
-76.75
-82.25
-83.22
-78.31
-67.27
-51.08
-31.72
-11.63
7.0
22.64
34.58
42.8
47.58
49.29
48.29
45.02
40.16
34.64
29.51
25.66
23.52
23.08
23.94
25.52
27.33
29.04
30.51
31.68
32.49
32.82
32.41
31.03
28.49
24.79
20.22
15.27
10.54
6.45
3.06
0.0
-3.32
-7.44
-12.57
-18.4
-24.32
-29.59
-33.76
-36.81
-39.19
-41.67
-45.1
-50.16
-57.13
-65.68
-74.79
-82.78
-87.61
-87.4
-81.0
-68.41
-50.91
-30.67
-10.12
8.6
24.09
35.77
43.68
48.21
49.88
49.23
46.83
43.29
39.27
35.44
32.41
30.56
30.04
30.62
31.9
33.39
34.72
35.77
36.6
37.3
37.8
37.83
36.92
34.68
30.9
25.78
19.82
13.75
8.18
3.48
-0.37
-3.78
-7.29
-11.39
-16.34
-21.99
-27.92
-33.58
-38.5
-42.47
-45.64
-48.44
-51.54
-55.67
-61.44
-69.07
-78.02
-86.86
-93.44
-95.39
-90.89
-79.34
-61.69
-40.17
-17.6
3.35
20.81
33.99
42.95
48.28
50.71
50.88
49.31
46.51
43.05
39.63
36.91
35.36
35.08
35.76
36.88
37.96
38.78
39.4
40.0
40.68
41.3
41.53
40.96
39.26
36.28
32.12
27.09
21.66
16.39
11.65
7.6
4.02
0.46
-3.57
-8.35
-13.84
-19.68
-25.39
-30.5
-34.77
-38.19
-41.03
-43.79
-47.18
-51.95
-58.63
-67.12
-76.56
-85.24
-91.01
-91.8
-86.27
-74.22
-56.7
-35.7
-13.68
7.03
24.75
38.57
48.31
54.3
57.08
57.21
55.35
52.16
48.43
44.92
42.25
40.75
40.37
40.82
41.68
42.64
43.51
44.25
44.8
45.12
45.09
44.59
43.49
41.67
39.04
35.53
31.15
26.09
20.69
15.38
10.52
6.27
2.53
-1.0
-4.73
-8.97
-13.89
-19.42
-25.22
-30.8
-35.67
-39.51
-42.37
-44.81
-47.64
-51.73
-57.71
-65.58
-74.59
-83.26
-89.56
-91.39
-87.16
-76.3
-59.55
-38.85
-16.82
3.98
21.66
35.24
44.63
50.15
52.32
51.65
48.7
44.18
38.98
34.01
30.0
27.37
26.16
26.15
26.91
28.02
29.21
30.32
31.41
32.51
33.57
34.27
34.11
32.56
29.33
24.63
19.11
13.63
8.87
5.02
1.78
-1.41
-5.08
-9.42
-14.26
-19.25
-23.99
-28.2
-31.74
-34.68
-37.26
-39.94
-43.37
-48.16
-54.66
-62.58
-70.85
-77.7
-81.08
-79.23
-71.26
-57.48
-39.4
-19.28
0.47
17.92
31.96
42.3
49.15
52.88
53.76
52.02
48.05
42.56
36.59
31.26
27.42
25.43
25.1
25.96
27.46
29.25
31.11
32.92
34.49
35.5
35.61
34.54
32.23
28.81
24.62
20.08
15.55
11.3
7.4
3.73
0.01
-4.15
-9.03
-14.73
-21.05
-27.48
-33.4
-38.29
-41.94
-44.56
-46.72
-49.23
-52.98
-58.66
-66.5
-75.96
-85.64
-93.37
-96.74
-93.77
-83.62
-66.99
-45.92
-23.23
-1.69
16.72
31.04
41.29
48.0
51.82
53.23
52.57
50.21
46.71
42.88
39.53
37.26
36.23
36.2
36.71
37.34
37.93
38.53
39.25
40.15
41.11
41.83
41.91
40.91
38.46
34.39
28.88
22.47
15.98
10.16
5.45
1.71
-1.64
-5.33
-9.9
-15.46
-21.62
-27.77
-33.3
-37.86
-41.49
-44.57
-47.74
-51.77
-57.32
-64.7
-73.61
-82.94
-90.85
-95.14
-93.78
-85.64
-70.89
-51.05
-28.63
-6.34
13.53
29.61
41.52
49.53
54.22
56.12
55.65
53.24
49.49
45.2
41.22
38.27
36.68
36.33
36.85
37.74
38.68
39.51
40.29
41.06
41.77
42.22
42.05
40.9
38.52
34.86
30.15
24.85
19.5
14.56
10.19
6.25
2.37
-1.87
-6.75
-12.25
-18.06
-23.75
-28.9
-33.27
-36.93
-40.18
-43.48
-47.42
-52.54
-59.18
-67.3
-76.21
-84.45
-89.97
-90.56
-84.61
-71.74
-53.07
-30.93
-8.22
12.52
29.68
42.7
51.83
57.61
60.53
60.89
58.99
55.38
50.87
46.45
42.94
40.77
39.89
39.9
40.36
40.94
41.55
42.24
43.06
43.89
44.46
44.39
43.32
41.04
37.51
32.95
27.74
22.33
17.11
12.3
7.87
3.6
-0.85
-5.74
-11.16
-16.92
-22.64
-27.86
-32.21
-35.6
-38.24
-40.64
-43.43
-47.3
-52.72
-59.87
-68.42
-77.34
-84.95
-89.18
-88.04
-80.39
-66.36
-47.46
-26.13
-5.02
13.73
28.89
40.09
47.53
51.55
52.49
50.7
46.72
41.36
35.63
30.45
26.48
23.97
22.83
22.78
23.56
25.02
27.05
29.5
32.04
34.14
35.13
34.44
31.82
27.55
22.31
17.0
12.28
8.36
4.9
1.28
-3.05
-8.26
-14.06
-19.94
-25.4
-30.14
-34.16
-37.65
-40.95
-44.5
-48.83
-54.3
-60.89
-67.87
-73.74
-76.59
-74.66
-67.02
-53.85
-36.47
-16.88
2.75
20.55
35.23
46.1
52.97
56.05
55.76
52.71
47.67
