0
64.89
71.75
75.81
76.32
72.66
64.72
53.27
39.85
26.34
14.35
4.55
-3.53
-11.13
-19.66
-29.92
-41.67
-53.81
-64.8
-73.47
-79.57
-84.01
-88.7
-95.93
-107.66
-124.58
-145.45
-166.77
-183.18
-188.77
-178.85
-151.73
-109.65
-58.36
-5.4
42.12
79.48
105.01
119.55
125.12
123.66
116.5
104.58
89.11
72.13
56.31
44.32
38.07
38.04
43.29
51.96
61.98
71.72
80.28
87.34
92.73
96.08
96.65
93.45
85.77
73.7
58.33
41.66
25.98
12.99
3.25
-4.0
-10.44
-17.8
-26.97
-37.61
-48.23
-57.02
-62.64
-65.0
-65.39
-66.07
-69.6
-78.1
-92.58
-112.47
-135.21
-156.27
-169.89
-170.4
-154.12
-120.82
-74.25
-21.23
30.47
74.36
106.72
126.78
135.86
135.95
128.9
116.08
98.83
78.95
58.86
41.24
28.43
21.79
21.3
25.81
33.44
42.31
51.04
58.9
65.55
70.66
73.55
73.18
68.57
59.46
46.66
31.97
17.62
5.44
-3.9
-11.03
-17.52
-25.01
-34.41
-45.47
-56.87
-66.9
-74.3
-78.78
-81.21
-83.34
-87.21
-94.62
-106.5
-122.5
-140.56
-156.8
-166.09
-163.3
-145.02
-111.07
-65.05
-13.43
36.39
78.33
109.01
127.89
136.22
135.76
127.9
113.61
94.08
71.28
48.1
27.86
13.46
6.61
7.47
14.79
26.46
40.05
53.35
64.57
72.48
76.26
75.5
70.21
60.89
48.59
34.79
20.98
8.22
-3.29
-14.14
-25.34
-37.63
-50.92
-64.21
-76.04
-85.26
-91.67
-96.31
-101.22
-108.76
-120.81
-137.9
-158.52
-178.94
-193.66
-196.73
-183.5
-152.46
-106.06
-50.39
6.56
57.22
96.34
121.84
134.37
136.1
129.51
116.67
99.29
79.19
58.57
40.07
26.24
18.83
18.29
23.63
32.91
43.89
54.73
64.28
71.96
77.35
79.84
78.65
73.15
63.38
50.36
35.88
21.9
9.75
-0.35
-9.28
-18.49
-29.14
-41.56
-54.96
-67.87
-78.7
-86.53
-91.55
-95.15
-99.59
-107.35
-120.26
-138.6
-160.48
-181.72
-196.49
-198.79
-184.28
-151.8
-104.12
-47.44
10.36
61.89
102.08
128.96
143.22
146.96
142.5
131.66
115.91
96.94
77.1
59.29
46.27
39.83
40.21
46.09
55.34
65.74
75.65
84.22
91.1
96.04
98.58
97.97
93.43
84.5
71.57
55.93
39.54
24.5
12.28
3.16
-3.85
-10.56
-18.73
-29.25
-41.67
-54.41
-65.5
-73.5
-78.26
-80.98
-83.89
-89.51
-99.87
-115.82
-136.55
-159.24
-179.29
-191.05
-189.22
-170.57
-135.3
-87.33
-33.37
18.97
63.31
95.82
115.56
123.71
122.32
113.43
98.72
79.74
58.41
37.2
19.04
6.64
1.81
4.87
14.61
28.69
44.3
58.9
70.66
78.6
82.4
82.16
78.25
71.2
61.67
50.45
38.22
25.53
12.67
-0.19
-12.9
-25.17
-36.59
-46.76
-55.42
-62.7
-69.14
-75.8
-84.01
-95.06
-109.49
-126.33
-142.61
-153.6
-153.99
-139.7
-109.64
-66.5
-16.21
33.97
77.56
110.5
131.57
141.68
142.63
136.14
123.51
105.89
84.9
62.83
42.59
27.0
18.13
16.73
22.0
31.97
44.11
55.98
65.78
72.42
75.47
74.85
70.78
63.62
53.96
42.5
29.9
16.59
2.77
-11.58
-26.43
-41.49
-56.25
-70.0
-82.22
-92.81
-102.35
-112.08
-123.63
-138.46
-157.03
-177.96
-197.8
-211.39
-213.18
-198.87
-167.04
-120.0
-63.39
-4.8
48.27
90.17
118.13
132.21
134.39
127.49
114.2
96.68
76.82
56.53
38.11
24.01
16.34
16.21
23.21
35.54
50.54
65.44
77.95
86.64
90.92
90.75
86.51
78.9
68.8
57.21
44.99
32.66
20.27
7.63
-5.43
-18.75
-31.76
-43.67
-53.86
-62.2
-69.25
-76.21
-84.65
-96.16
-111.71
-130.91
-151.4
-168.86
-177.6
-172.27
-149.79
-110.79
-59.88
-4.42
47.64
89.97
119.34
135.53
140.43
136.59
126.28
111.15
92.65
72.57
53.19
37.07
26.47
22.61
25.34
33.29
44.35
56.25
67.04
75.24
79.87
80.39
76.68
69.09
58.46
45.94
32.7
19.59
7.0
-5.17
-17.18
-29.13
-40.8
-51.68
-61.21
-69.06
-75.33
-80.69
-86.31
-93.63
-103.96
-117.91
-134.64
-151.39
-163.63
-166.07
-154.38
-126.92
-85.74
-36.27
14.27
59.0
93.18
115.01
125.13
125.49
118.19
104.95
87.17
66.54
45.45
26.9
13.84
8.31
10.75
19.91
33.24
47.78
60.89
70.81
76.64
78.19
75.69
69.59
60.53
49.25
36.55
23.09
9.34
-4.38
-17.78
-30.5
-42.0
-51.8
-59.68
-65.82
-70.95
-76.15
-82.78
-92.24
-105.52
-122.66
-142.02
-160.02
-171.39
-170.59
-153.66
-119.99
-72.99
-19.33
33.11
77.64
110.4
130.65
139.84
140.15
133.31
120.46
102.73
81.95
61.0
43.41
32.28
29.21
33.71
43.52
55.53
66.94
76.03
82.35
86.21
87.9
87.18
83.33
75.61
63.87
49.01
32.89
17.59
4.73
-5.26
-13.18
-20.66
-29.36
-40.11
-52.49
-65.01
-75.75
-83.31
-87.47
-89.43
-91.44
-96.07
-105.49
-120.74
-141.09
-163.82
-184.33
-196.86
-195.86
-177.66
-141.93
-92.16
-34.95
21.81
71.07
108.3
132.05
143.36
144.62
138.37
126.75
111.49
94.41
77.72
63.93
55.43
53.67
58.65
68.82
81.54
94.0
104.03
110.48
113.3
113.03
110.27
105.3
97.99
88.11
75.62
60.98
45.21
29.65
15.58
3.82
-5.49
-13.01
-19.89
-27.36
-36.29
-46.73
-57.91
-68.5
-77.24
-83.4
-87.28
-90.12
-93.77
-100.27
-111.27
-127.54
-148.45
-171.59
-192.63
-205.92
-205.8
-188.39
-153.15
-103.51
-46.13
11.0
60.8
98.71
123.14
134.85
135.8
128.17
114.04
95.51
74.98
55.25
39.15
28.93
25.66
28.94
37.03
47.6
58.38
67.86
75.35
80.8
84.17
85.05
82.63
76.21
65.73
52.17
37.41
23.51
11.92
2.98
-4.18
-11.02
-18.81
-28.02
-38.09
-47.66
-55.31
-60.26
-62.84
-64.56
-67.68
-74.56
-86.81
-104.56
-125.96
-147.13
-162.73
-167.16
-156.26
-128.8
-87.22
-37.13
14.2
60.0
95.66
119.39
131.65
134.03
128.22
115.58
97.57
76.18
54.25
35.03
21.46
15.21
16.31
23.3
33.86
45.65
56.84
66.31
73.43
77.72
78.57
75.35
67.7
55.95
41.33
25.79
11.37
-0.57
-9.87
-17.59
-25.42
-34.74
-45.9
-58.02
-69.49
-78.75
-85.1
-89.11
-92.46
-97.47
-106.45
-120.85
-140.64
-163.63
-185.45
-200.15
-201.7
-185.88
-151.98
-103.36
-46.69
10.02
59.67
97.74
122.77
135.71
138.7
134.0
123.44
108.61
91.31
73.86
58.99
49.14
45.74
48.67
56.3
66.12
75.69
83.4
88.77
92.15
93.97
94.18
91.99
86.29
76.35
62.42
45.99
29.32
14.58
2.98
-5.7
-12.91
-20.58
-30.13
-41.75
-54.37
-66.15
-75.4
-81.37
-84.65
-86.99
-90.68
-97.93
-110.24
-127.92
-149.73
-172.55
-191.49
-200.72
-194.97
-171.32
-130.68
-77.95
-20.74
32.81
76.47
107.12
124.8
131.47
129.55
121.03
107.34
89.88
70.66
52.35
37.81
29.23
27.52
32.02
40.92
51.98
63.17
72.99
80.58
85.34
86.75
84.31
77.79
67.49
54.42
40.21
26.54
14.63
4.68
-4.05
-12.84
-22.77
-34.03
-45.89
-56.98
-66.0
-72.38
-76.61
-80.11
-84.83
-92.74
-105.1
-121.82
-140.86
-158.18
-168.23
-165.55
-146.67
-111.62
-64.38
-11.74
38.69
80.8
111.29
129.7
137.38
136.22
127.79
113.28
94.05
72.17
50.47
32.2
20.01
15.34
17.93
26.09
37.36
49.26
59.83
67.84
72.6
73.76
71.12
64.76
55.21
43.4
30.52
17.63
5.25
-6.67
-18.64
-31.14
-44.19
-57.23
-69.25
-79.31
-87.04
-92.99
-98.66
-106.18
-117.58
-133.84
-154.1
-175.15
-191.88
-198.36
-189.6
-163.27
-120.78
-67.15
-9.75
43.77
87.41
118.08
135.64
141.85
139.27
130.18
116.3
99.19
80.74
63.44
49.95
42.41
41.59
46.67
55.58
65.81
75.34
83.07
88.76
92.61
94.65
94.46
91.23
84.25
73.37
59.43
44.12
29.49
17.1
7.44
-0.37
-8.05
-17.37
-29.11
-42.7
-56.4
-68.12
-76.46
-81.43
-84.47
-87.97
-94.56
-106.17
-123.42
-145.17
-168.17
-187.45
-197.11
-191.91
-168.98
-129.11
-76.92
-19.76
34.48
79.47
111.82
131.09
138.88
137.45
128.81
114.63
96.57
76.82
58.2
43.62
35.36
34.32
39.72
49.58
61.45
73.16
83.28
91.17
96.54
99.03
98.02
92.77
82.94
69.03
52.54
35.64
20.42
8.19
-1.08
-8.61
-16.18
-25.29
-36.49
-49.07
-61.44
-71.78
-78.89
-82.74
-84.59
-86.66
-91.49
-101.08
-116.08
-135.16
-154.83
-169.86
-174.46
-164.05
-136.9
-95.08
-44.11
8.62
56.05
93.25
118.18
131.3
134.29
128.97
116.78
99.06
77.7
55.41
35.52
21.17
14.3
15.13
22.25
33.28
45.75
57.79
68.31
76.77
82.68
85.38
84.13
78.43
68.52
55.52
41.19
27.32
15.05
4.44
-5.5
-16.17
-28.67
-43.13
-58.5
-73.0
-84.92
-93.41
-98.93
-103.08
-108.15
-116.39
-129.29
-146.8
-166.92
-185.58
-197.2
-196.01
-177.97
-142.37
-92.59
-35.36
21.16
69.74
105.95
128.52
138.71
138.86
131.28
117.77
99.91
79.63
59.41
42.1
30.25
25.34
27.32
34.71
45.19
56.35
66.35
74.33
80.16
84.0
85.81
85.03
80.78
72.4
60.11
45.25
30.03
16.65
6.44
-0.74
-6.35
-12.42
-20.54
-31.1
-43.09
-54.64
-63.86
-69.69
-72.47
-73.78
-76.07
-81.94
-93.28
-110.61
-132.55
-155.58
-174.48
-183.3
-176.92
-152.81
-112.09
-59.66
-2.98
49.99
92.95
122.5
138.37
142.4
137.25
125.33
108.44
88.21
66.59
46.09
29.5
19.06
15.81
19.21
27.45
38.27
49.61
60.11
69.05
75.95
80.29
81.33
78.35
71.06
59.98
46.43
32.29
19.4
8.83
0.46
-6.9
-14.99
-25.16
-37.63
-51.35
-64.36
-74.82
-81.81
-85.85
-88.68
-92.69
-100.1
-112.24
-129.02
-148.41
-166.5
-177.92
-177.14
-160.25
-126.53
-79.29
-25.09
28.14
73.52
106.88
127.21
135.76
134.67
125.84
110.7
90.61
67.52
44.29
24.2
10.2
3.93
5.38
13.01
24.47
37.41
49.93
60.74
68.96
73.78
74.52
70.68
62.43
50.75
37.31
23.93
11.89
1.49
-7.96
-17.74
-28.91
-41.77
-55.6
-69.06
-80.65
-89.52
-95.77
-100.62
-106.04
-114.26
-126.93
-144.25
-164.29
-182.91
-194.41
-193.05
-174.93
-139.44
-89.87
-32.62
24.58
74.65
112.84
137.26
148.47
148.5
139.77
124.53
104.87
82.97
61.45
43.19
30.84
26.05
28.88
37.75
50.06
63.01
74.52
83.47
89.63
93.01
93.38
90.17
82.8
71.19
56.17
39.47
23.22
9.09
-2.29
-11.5
-20.0
-29.3
-40.21
-52.37
-64.47
-74.8
-82.04
-85.94
-87.51
-88.89
-92.71
-101.42
-116.28
-136.69
-159.69
-180.26
-192.28
-190.17
-170.61
-133.77
-83.49
-26.39
29.97
78.94
116.22
140.13
151.21
151.19
142.25
126.61
106.61
84.87
64.33
47.83
37.52
34.28
37.54
45.49
55.86
66.54
76.13
83.91
89.68
93.19
93.97
91.29
84.52
73.61
59.4
43.58
28.22
15.02
4.62
-3.58
-11.14
-19.75
-30.38
-42.83
-55.68
-67.07
-75.49
-80.58
-83.36
-85.94
-90.89
-100.36
-115.29
-134.83
-156.06
-174.29
-183.9
-179.76
-158.87
-121.61
-71.99
-16.69
36.75
81.95
115.12
135.26
143.43
141.61
131.83
115.93
95.78
73.75
52.8
36.05
26.02
23.87
29.09
39.69
53.01
66.47
78.13
86.85
92.05
93.4
90.63
83.65
72.85
59.19
44.17
29.4
16.01
4.26
-6.47
-17.32
-29.32
-42.79
-57.08
-70.81
-82.45
-91.1
-96.96
-101.51
-107.12
-116.32
-130.74
-150.18
-172.11
-191.77
-203.17
-200.68
-180.68
-143.01
-91.26
-32.07
26.68
77.92
116.96
142.05
153.89
154.5
146.21
131.12
111.25
88.88
66.8
48.06
35.28
29.97
32.0
39.88
51.23
63.69
75.46
85.46
93.21
98.41
100.57
99.06
93.32
83.3
69.84
54.56
39.46
26.08
14.95
5.36
-4.27
-15.55
-29.22
-44.73
-60.36
-73.96
-83.9
-89.82
-92.9
-95.51
-100.46
-110.1
-125.48
-145.7
-167.7
-186.56
-196.45
-192.1
-170.46
-131.89
-80.47
-23.01
32.69
80.0
114.77
135.85
144.33
142.43
132.48
116.53
96.49
74.59
53.61
36.5
25.68
22.33
26.02
34.94
46.7
59.05
70.41
79.87
86.86
90.77
90.85
86.45
77.44
64.53
49.3
33.74
19.57
7.7
-2.08
-10.92
-20.19
-30.89
-43.05
-55.65
-67.14
-76.03
-81.69
-84.75
-87.0
-90.98
-99.05
-112.49
-130.67
-150.64
-167.47
-175.29
-168.93
-145.72
-106.64
-56.37
-2.09
48.65
89.94
118.67
134.52
138.98
134.1
121.78
103.6
81.41
57.69
35.54
18.21
8.11
6.18
11.67
22.48
36.0
49.83
62.27
72.26
79.15
82.37
81.34
75.67
65.55
51.97
36.61
21.29
7.29
-5.1
-16.64
-28.52
-41.65
-56.0
-70.57
-83.83
-94.44
-102.02
-107.39
-112.38
-119.32
-130.22
-145.89
-165.24
-184.94
-199.89
-204.33
-193.45
-165.07
-120.58
-64.81
-4.85
51.84
99.17
133.56
154.04
161.69
158.64
147.39
130.29
109.68
88.0
67.89
51.94
42.19
39.61
43.73
52.86
64.64
76.78
87.53
95.84
101.23
103.35
101.81
96.24
86.6
73.48
58.16
42.37
27.58
14.46
2.62
-9.09
-21.89
-36.37
-51.95
-67.18
-80.25
-89.84
-95.77
-99.21
-102.38
-108.03
-118.46
-134.64
-155.35
-176.96
-193.84
-199.74
-189.54
-161.08
-116.13
-60.16
-0.85
53.87
97.96
128.31
144.71
148.99
143.76
131.44
113.99
93.19
71.08
50.22
33.36
22.7
19.26
22.48
30.59
41.25
52.29
62.09
69.66
74.34
75.66
73.33
67.41
58.47
47.51
35.72
24.08
13.08
2.59
-7.92
-18.98
-30.75
-42.78
-54.11
-63.64
-70.75
-75.65
-79.54
-84.41
-92.39
-104.89
-121.82
-140.9
-157.81
-166.93
-162.94
-142.58
-106.13
-57.67
-4.07
47.05
89.43
119.68
137.32
143.83
141.31
131.52
115.81
95.55
72.79
50.4
31.57
18.97
13.94
16.22
24.22
35.68
48.4
60.55
70.76
78.02
81.43
80.35
74.53
64.38
50.99
36.03
21.18
7.69
-4.06
-14.64
-25.15
-36.69
-49.67
-63.5
-76.8
-87.97
-96.05
-101.17
-104.81
-109.32
-117.21
-130.05
-147.56
-167.04
-183.71
-191.63
-185.45
-162.07
-121.96
-69.21
-10.63
46.16
94.71
131.0
153.86
164.26
164.2
155.84
141.07
121.71
99.86
78.17
59.55
46.57
40.69
41.73
48.1
57.39
67.28
76.2
83.54
89.28
93.27
94.97
93.32
87.37
76.81
62.5
46.31
30.47
16.64
5.33
-4.21
-13.54
-24.11
-36.61
-50.59
-64.65
-77.05
-86.4
-92.26
-95.45
-97.83
-101.77
-109.54
-122.52
-140.57
-161.57
-181.41
-194.56
-195.34
-179.65
-146.51
-98.82
-42.85
13.49
62.92
100.64
124.93
136.71
138.07
131.22
117.84
99.44
77.92
55.93
36.59
22.79
16.33
17.45
24.92
36.53
49.87
62.81
73.79
81.78
86.11
86.41
82.62
75.05
64.46
52.0
38.91
26.15
14.05
2.33
-9.67
-22.45
-35.89
-49.2
-61.21
-70.91
-78.08
-83.5
-88.86
-96.29
-107.59
-123.42
-142.65
-161.98
-176.31
-179.93
-168.16
-139.12
-94.84
-40.91
15.03
65.53
105.25
131.9
145.86
148.96
143.27
130.52
112.17
90.1
66.9
45.9
30.33
22.39
22.6
29.64
40.95
53.63
65.37
74.9
81.94
86.63
89.01
88.62
84.61
76.32
63.76
48.01
30.95
14.75
1.03
-9.75
-18.39
-26.49
-35.72
-47.0
-60.13
-73.82
-86.25
-95.83
-101.82
-104.77
-106.34
-108.99
-115.25
-127.01
-144.62
-166.27
-187.86
-203.69
-207.7
-195.31
-164.84
-118.33
-61.13
-0.54
55.92
102.25
135.03
153.54
159.11
154.26
141.68
123.92
103.29
82.13
62.97
48.35
40.3
39.64
45.65
56.32
68.99
81.23
91.44
98.98
103.83
106.12
105.64
101.85
94.12
82.21
66.81
49.5
32.46
17.68
6.17
-2.4
-9.51
-17.09
-26.6
-38.36
-51.46
-64.16
-74.71
-82.1
-86.47
-89.07
-91.96
-97.39
-107.25
-122.48
-142.54
-164.98
-185.46
-198.38
-198.19
-181.01
-146.17
-96.89
-39.59
17.73
67.74
105.54
129.3
139.84
139.4
130.47
115.21
95.56
73.66
52.15
33.93
21.6
16.63
18.94
27.02
38.54
51.18
63.08
73.12
80.64
85.14
86.11
83.12
76.05
65.42
52.43
38.67
25.63
14.07
3.84
-5.93
-16.27
-27.71
-39.91
-51.77
-61.99
-69.65
-74.75
-78.31
-82.14
-88.26
-98.33
-113.02
-131.28
-150.11
-164.68
-169.4
-159.58
-133.16
-91.88
-41.04
11.95
59.82
97.34
122.24
134.88
137.07
130.89
118.08
100.09
78.61
56.01
35.21
19.16
9.98
8.38
13.59
23.69
36.28
49.14
60.57
69.37
74.74
76.13
73.28
66.4
56.16
43.69
30.32
17.09
4.52
-7.47
-19.39
-31.72
-44.6
-57.57
-69.77
-80.3
-88.78
-95.7
-102.48
-111.15
-123.61
-140.66
-161.2
-181.82
-197.28
-201.7
-190.33
-161.28
-116.5
-61.44
-3.63
49.48
92.31
122.2
139.17
144.88
141.52
131.09
115.31
96.07
75.77
57.26
43.37
36.1
35.98
42.0
52.01
63.62
74.87
84.6
92.37
97.98
101.04
100.83
96.5
87.59
74.51
58.71
42.29
27.35
15.17
5.64
-2.54
-11.25
-21.98
-35.1
-49.58
-63.49
-74.86
-82.54
-86.82
-89.36
-92.72
-99.6
-111.99
-130.36
-153.12
-176.4
-194.6
-201.58
-192.37
-164.88
-120.86
-65.81
-7.42
46.43
89.73
119.4
135.29
139.19
133.65
121.11
103.69
83.44
62.66
43.97
29.97
22.53
22.34
28.58
39.29
52.04
64.67
75.57
83.86
88.95
90.4
87.7
80.56
69.31
54.99
39.34
24.14
10.65
-0.9
-11.22
-21.47
-32.58
-44.6
-56.65
-67.31
-75.3
-80.15
-82.51
-84.07
-87.06
-93.59
-104.88
-120.59
-138.34
-153.8
-161.47
-156.19
-134.98
-98.35
-50.59
1.37
50.02
89.43
116.56
131.19
134.94
129.89
117.78
99.96
77.94
54.0
31.22
12.98
1.97
-0.52
5.07
16.84
32.09
47.98
62.1
72.65
78.55
79.47
75.72
68.06
57.55
45.23
31.94
18.19
4.23
-9.82
-23.88
-37.64
-50.71
-62.62
-73.07
-82.03
-89.99
-97.88
-107.01
-118.72
-133.78
-151.71
-170.21
-185.25
-191.7
-184.76
-161.58
-122.61
-71.89
-16.13
37.13
81.57
113.47
132.06
138.67
135.6
125.1
109.08
89.46
68.59
49.34
34.7
26.92
26.84
33.59
45.04
58.59
71.94
83.59
92.76
99.15
102.43
102.11
97.55
88.42
75.04
58.64
41.07
24.26
9.54
-2.93
-14.05
-25.24
-37.62
-51.28
-65.15
-77.47
-86.6
-91.88
-94.1
-95.33
-98.3
-105.62
-118.77
-137.45
-159.07
-179.01
-191.38
-190.54
-172.77
-137.68
-88.64
-32.05
24.39
73.76
111.54
136.1
148.29
150.24
144.29
132.39
116.18
97.45
78.53
62.23
51.18
47.09
50.0
58.3
69.36
80.41
89.48
95.74
99.27
100.52
99.7
96.53
90.39
80.77
67.72
52.09
35.44
19.6
6.02
-4.64
-12.74
-19.52
-26.47
-34.66
-44.27
-54.53
-64.01
-71.46
-76.26
-78.91
-80.8
-83.85
-90.03
-100.83
-116.89
-137.46
-160.07
-180.37
-192.81
-191.84
-173.84
-138.54
-89.62
-33.87
20.79
67.54
102.26
123.88
133.53
133.28
125.1
110.6
91.41
69.77
48.63
31.35
20.71
18.08
22.98
33.36
46.39
59.4
70.47
78.63
83.49
84.82
82.31
75.74
65.31
51.95
37.23
22.97
10.52
0.22
-8.6
-17.2
-26.69
-37.35
-48.5
-58.74
-66.73
-71.91
-74.87
-77.37
-81.73
-90.16
-103.86
-122.31
-142.76
-160.51
-169.76
-165.21
-143.9
-106.53
-57.6
-4.27
45.88
86.95
116.06
133.2
140.08
138.7
130.52
116.51
97.91
76.84
56.43
40.18
30.84
29.53
35.41
46.04
58.42
69.83
78.63
84.28
87.09
87.59
86.0
82.04
75.18
65.03
51.86
36.73
21.33
7.32
-4.24
-13.41
-21.19
-29.07
-38.35
-49.43
-61.64
-73.47
-83.18
-89.64
-92.79
-93.91
-95.19
-99.14
-107.89
-122.41
-141.96
-163.83
-183.5
-195.38
-194.05
-175.85
-140.33
-90.7
-33.36
23.88
73.83
111.7
135.8
147.07
147.9
140.91
128.31
111.91
93.54
75.41
60.02
49.71
45.96
48.89
57.22
68.69
80.82
91.5
99.42
104.08
105.58
104.23
100.32
94.08
85.64
75.26
63.37
50.6
37.65
25.22
13.84
3.81
-4.85
-12.37
-19.3
-26.29
-33.98
-42.63
-52.08
-61.61
-70.31
-77.37
-82.55
-86.35
-89.98
-95.12
-103.56
-116.68
-134.82
-156.59
-178.48
-195.12
-200.44
-189.43
-160.07
-114.44
-58.45
-0.15
52.52
93.85
121.32
135.29
137.85
131.48
118.32
100.14
78.79
56.64
36.62
21.69
13.97
14.14
21.13
32.64
45.9
58.63
69.46
78.01
84.36
88.47
89.79
87.41
80.57
69.26
54.6
38.62
23.61
11.21
1.77
-5.7
-13.0
-21.84
-32.92
-45.65
-58.35
-69.02
-76.26
-79.9
-81.11
-82.03
-85.1
-92.38
-104.93
-122.33
-142.36
-160.97
-172.73
-172.14
-155.31
-121.58
-74.19
-19.72
33.92
79.8
113.69
134.55
143.62
143.03
134.59
119.62
99.35
75.76
51.8
30.96
16.4
9.96
11.62
19.76
31.8
45.06
57.47
67.92
76.01
81.66
84.64
84.35
80.05
71.3
58.44
42.75
26.17
10.64
-2.61
-13.47
-22.91
-32.45
-43.39
-56.21
-70.34
-84.29
-96.28
-104.94
-109.95
-112.24
-113.87
-117.42
-125.19
-138.38
-156.37
-176.41
-193.99
-203.6
-200.06
-180.02
-143.04
-92.14
-33.27
26.05
78.6
119.13
145.26
157.33
157.5
148.56
133.14
113.49
91.78
70.4
52.08
39.43
34.16
36.51
45.16
57.66
71.31
83.89
94.12
101.58
106.3
108.21
106.87
101.59
91.78
77.53
59.92
40.86
22.58
6.82
-5.82
-15.99
-25.27
-35.29
-47.01
-60.23
-73.54
-85.14
-93.48
-98.06
-99.73
-100.55
-103.23
-110.29
-123.32
-142.23
-164.76
-186.54
-201.8
-204.67
-190.77
-158.78
-111.09
-53.48
6.29
60.53
103.47
132.26
146.89
149.24
141.95
127.55
108.16
85.84
62.83
41.72
25.09
14.95
12.16
16.2
25.44
37.65
50.67
62.66
72.29
78.62
80.96
78.89
72.38
62.02
49.01
35.05
21.76
10.2
0.49
-8.18
-17.0
-26.86
-37.89
-49.29
-59.82
-68.45
-74.97
-80.26
-86.1
-94.56
-107.23
-124.46
-144.73
-164.58
-178.98
-182.47
-170.68
-141.92
-98.05
-44.37
11.8
63.07
103.91
131.61
146.12
149.06
142.56
128.57
108.78
85.12
60.11
36.8
18.31
7.03
3.88
8.26
18.26
31.44
45.37
58.12
68.31
75.07
77.78
76.15
70.26
60.74
48.65
35.27
21.73
8.61
-4.15
-17.06
-30.61
-44.89
-59.4
-73.07
-84.77
-93.84
-100.56
-106.26
-113.12
-123.39
-138.35
-157.36
-177.39
-193.45
-199.74
-191.39
-166.01
-124.55
-71.31
-12.84
43.61
91.69
127.25
148.71
156.77
153.57
141.87
124.32
103.34
81.22
60.34
43.1
31.65
27.2
29.71
37.85
49.55
62.52
74.86
85.23
92.74
96.72
96.68
92.32
83.89
72.26
58.82
45.11
32.25
20.59
9.67
-1.53
-13.88
-27.61
-42.04
-55.8
-67.39
-75.97
-81.85
-86.61
-92.7
-102.61
-117.84
-138.05
-160.49
-180.35
-191.68
-188.98
-168.9
-131.56
-80.79
-23.29
33.14
81.64
117.77
140.0
149.17
147.42
137.2
120.84
100.46
78.4
57.26
39.77
28.17
23.67
26.09
33.93
44.98
56.98
68.13
77.31
83.87
87.33
87.12
82.74
74.04
61.63
46.95
31.89
18.16
6.61
-3.07
-11.99
-21.47
-32.21
-43.97
-55.67
-65.97
-73.94
-79.53
-83.65
-87.99
-94.51
-104.83
-119.55
-137.63
-156.04
-169.98
-174.0
-163.58
-136.86
-95.63
-45.08
7.64
55.5
93.41
119.07
132.67
135.79
130.38
118.14
100.61
79.65
57.73
37.85
22.96
15.11
14.95
21.58
32.92
46.43
59.76
71.14
79.43
83.9
84.18
80.09
71.96
60.64
47.42
33.69
20.46
8.01
-4.05
-16.5
-29.96
-44.42
-59.17
-72.94
-84.53
-93.33
-99.73
-105.15
-111.74
-121.61
-135.93
-154.06
-173.07
-188.09
-193.38
-183.99
-157.56
-115.32
-62.12
-5.07
48.39
92.47
124.08
142.88
150.32
148.56
139.58
125.09
106.85
87.04
68.4
53.84
45.61
44.57
49.84
59.2
69.86
79.48
86.75
91.42
93.89
94.48
93.0
88.76
80.93
69.26
54.43
38.06
22.14
8.36
-2.67
-11.6
-20.02
-29.61
-41.3
-54.68
-68.16
-79.61
-87.39
-91.14
-91.95
-92.12
-94.36
-101.09
-113.69
-131.86
-153.31
-173.72
-187.45
-188.76
-173.53
-140.71
-93.06
-36.61
20.94
72.28
112.31
138.85
152.4
155.1
149.52
137.93
122.14
103.89
85.18
68.46
56.24
50.34
51.25
57.87
67.91
78.69
88.0
94.67
98.53
99.97
99.36
96.66
91.47
83.32
72.04
58.14
42.69
27.17
12.99
1.06
-8.43
-16.1
-23.07
-30.51
-39.17
-48.98
-59.07
-68.21
-75.25
-79.68
-81.9
-83.19
-85.4
-90.59
-100.5
-116.07
-136.76
-160.1
-181.62
-195.5
-195.91
-178.88
-143.9
-94.46
-37.36
19.24
68.0
104.29
126.67
136.28
135.47
126.67
111.77
92.44
70.66
49.13
31.01
19.14
15.15
18.86
28.42
41.07
54.11
65.64
74.84
81.66
86.24
88.34
87.24
82.05
72.29
58.47
42.17
25.74
11.43
0.52
-7.14
-12.92
-18.74
-26.18
-35.67
-46.41
-56.81
-65.2
-70.63
-73.34
-74.73
-76.98
-82.36
-92.62
-108.34
-128.36
-149.6
-167.24
-175.63
-169.72
-146.82
-107.78
-57.19
-2.19
49.49
91.72
121.28
137.89
143.24
139.65
129.1
113.04
92.88
70.58
48.93
31.1
19.85
16.65
21.21
31.63
45.11
58.79
70.53
79.21
84.64
87.07
86.72
83.52
77.14
67.41
54.54
39.47
23.65
8.7
-4.2
-14.61
-23.01
-30.57
-38.58
-47.92
-58.69
-70.14
-80.96
-89.91
-96.31
-100.31
-102.94
-105.85
-111.0
-120.12
-134.22
-152.89
-173.86
-192.9
-204.5
-203.18
-185.1
-149.45
-99.1
-40.09
19.86
73.25
114.56
141.27
153.79
154.57
146.77
133.24
116.04
96.8
77.25
59.61
46.4
39.7
40.29
47.27
58.33
70.74
82.17
91.29
97.74
101.65
103.08
101.86
97.62
90.16
79.65
66.77
52.53
38.03
24.21
11.75
0.92
-8.5
-17.12
-25.77
-35.2
-45.75
-57.09
-68.34
-78.39
-86.24
-91.52
-94.66
-96.91
-100.1
-106.34
-117.39
-134.03
-155.2
-177.65
-196.22
-204.89
-198.41
-173.94
-132.29
-77.88
-17.8
40.02
88.73
124.08
144.8
152.14
148.72
137.36
120.46
100.0
77.93
56.61
38.77
26.96
22.81
26.31
35.88
48.86
62.43
74.43
83.73
90.14
93.96
95.36
94.16
89.8
81.77
70.06
55.44
39.48
24.04
10.68
0.1
-8.08
-15.12
-22.55
-31.52
-42.32
-54.26
-65.98
-76.01
-83.4
-88.01
-90.71
-93.13
-97.28
-105.13
-118.09
-136.29
-158.01
-179.52
-195.37
-199.62
-187.52
-157.16
-110.49
-53.03
7.46
63.09
107.84
138.64
155.22
159.28
153.16
139.13
119.13
95.21
69.93
46.42
27.94
16.96
14.45
19.65
30.35
43.8
57.51
69.66
79.33
86.18
90.1
90.97
88.56
82.62
73.16
60.62
45.97
30.61
15.97
3.05
-7.94
-17.6
-27.08
-37.5
-49.33
-62.21
-75.03
-86.37
-95.1
-100.79
-103.95
-105.94
-108.8
-114.71
-125.47
-141.66
-161.96
-182.97
-199.57
-206.13
-198.01
-172.91
-131.73
-78.48
-19.46
38.2
88.07
125.68
149.1
158.85
157.06
146.51
129.88
109.5
87.55
66.37
48.62
36.78
32.48
35.86
45.46
58.72
72.76
85.27
94.78
100.8
103.37
102.71
98.99
92.26
82.61
70.41
56.37
41.54
27.03
13.77
2.18
-7.9
-17.06
-26.1
-35.63
-45.84
-56.42
-66.63
-75.65
-82.79
-87.89
-91.37
-94.3
-98.22
-104.88
-115.86
-131.9
-152.2
-174.0
-192.67
-202.52
-198.23
-176.44
-137.06
-83.55
-22.26
39.1
93.31
135.22
162.45
175.21
175.51
166.06
149.54
128.31
104.63
80.9
59.78
43.82
34.88
33.51
38.76
48.59
60.52
72.3
82.35
89.91
94.71
96.65
95.6
91.41
84.0
73.57
60.74
46.54
32.11
18.52
6.48
-3.8
-12.63
-20.75
-29.05
-38.29
-48.76
-60.08
-71.23
-80.92
-88.05
-92.32
-94.45
-96.19
-99.84
-107.65
-121.13
-140.29
-163.17
-185.78
-202.55
-207.54
-196.03
-166.11
-119.74
-62.43
-1.91
53.93
98.98
130.0
146.58
150.25
143.4
128.44
107.68
83.53
58.74
36.39
19.49
10.23
9.4
16.13
28.37
43.44
58.86
72.83
84.34
92.84
97.84
98.66
94.58
85.26
71.22
54.02
35.93
19.21
5.22
-6.05
-15.75
-25.56
-36.69
-49.28
-62.32
-74.17
-83.28
-88.98
-91.77
-93.25
-95.78
-101.84
-113.22
-130.23
-151.05
-171.66
-186.36
-189.21
-175.8
-144.74
-98.45
-42.74
14.82
66.9
108.2
136.27
151.25
154.83
149.06
135.73
116.46
93.16
68.5
45.87
28.59
18.97
17.63
23.37
33.77
46.11
58.17
68.58
76.78
82.59
85.82
86.02
82.63
75.24
64.0
49.87
34.48
19.69
6.96
-3.28
-11.65
-19.59
-28.54
-39.33
-51.71
-64.54
-76.25
-85.59
-92.06
-96.21
-99.48
-103.94
-111.78
-124.75
-143.37
-166.18
-189.48
-207.8
-215.17
-206.78
-180.55
-137.89
-83.45
-24.05
33.1
81.85
118.25
140.84
150.32
148.77
138.92
123.47
104.92
85.62
67.93
54.16
46.23
45.14
50.49
60.58
72.93
85.12
95.43
103.09
108.11
110.66
110.7
107.76
101.23
90.81
76.92
60.73
43.96
28.28
14.8
3.74
-5.55
-14.24
-23.51
-34.01
-45.66
-57.58
-68.55
-77.48
-83.86
-88.09
-91.45
-95.8
-103.19
-115.26
-132.61
-154.05
-176.4
-194.71
-203.26
-197.16
-173.84
-134.15
-82.31
-24.95
30.57
77.95
113.18
134.89
143.86
142.11
131.99
115.74
95.48
73.61
53.01
36.76
27.41
26.13
32.24
43.43
56.7
69.39
79.89
87.75
93.1
96.08
96.34
93.14
85.82
74.35
59.67
43.52
27.98
14.71
4.32
-3.77
-11.0
-19.08
-28.97
-40.5
-52.36
-62.72
-70.14
-74.25
-76.06
-77.65
-81.48
-89.68
-103.33
-121.9
-142.9
-161.97
-173.53
-172.19
-154.43
-120.06
-72.67
-18.79
33.98
79.14
112.7
133.54
142.67
142.02
133.47
118.6
98.97
76.6
54.28
35.24
22.42
17.59
20.76
30.18
43.08
56.56
68.43
77.65
84.09
87.98
89.33
87.72
82.58
73.55
61.0
46.02
30.26
15.25
2.03
-9.19
-18.94
-28.23
-38.02
-48.8
-60.37
-71.91
-82.26
-90.47
-96.15
-99.75
-102.49
-106.22
-112.94
-124.3
-140.9
-161.63
-183.33
-201.02
-209.03
-202.5
-178.89
-138.94
-86.67
-28.47
28.55
78.11
115.99
140.42
151.92
152.5
144.78
131.39
114.69
96.79
79.82
65.96
57.16
54.65
58.47
67.27
78.77
90.39
100.06
106.67
109.97
110.32
108.07
103.35
96.03
86.0
73.44
59.03
43.76
28.8
15.14
3.38
-6.34
-14.36
-21.41
-28.34
-35.88
-44.25
-53.08
-61.52
-68.66
-73.97
-77.65
-80.7
-84.65
-91.3
-102.23
-118.29
-138.97
-161.91
-182.76
-195.85
-195.57
-178.1
-142.92
-93.33
-35.68
22.24
73.35
112.86
138.83
151.81
153.9
147.61
135.3
118.99
100.53
81.97
65.54
53.48
47.47
47.99
54.23
64.22
75.46
85.74
93.54
98.31
100.18
99.51
96.6
91.49
84.13
74.55
63.07
50.31
37.15
24.42
12.82
2.72
-5.96
-13.76
-21.54
-30.2
-40.2
-51.34
-62.72
-73.03
-81.14
-86.59
-89.89
-92.37
-95.9
-102.46
-113.66
-130.24
-151.36
-174.17
-193.87
-204.37
-200.03
-177.53
-137.35
-84.02
-24.92
31.81
79.51
114.3
135.3
143.77
141.89
131.92
115.87
95.71
73.78
52.87
35.96
25.42
22.32
26.08
34.72
45.67
56.66
66.3
74.15
80.28
84.62
86.57
85.14
79.41
69.2
55.41
39.86
24.74
11.75
1.51
-6.67
-14.37
-23.27
-34.38
-47.44
-61.07
-73.41
-82.92
-89.15
-92.96
-96.33
-101.77
-111.55
-126.92
