0
5.65
8.98
12.05
14.76
16.9
18.26
18.78
18.63
18.1
17.58
17.34
17.53
18.14
19.02
19.94
20.71
21.21
21.49
21.66
21.88
22.16
22.4
22.39
22.0
21.21
20.17
19.13
18.29
17.67
17.14
16.45
15.36
13.7
11.39
8.39
4.75
0.55
-4.03
-8.76
-13.38
-17.73
-21.79
-25.68
-29.63
-33.77
-38.07
-42.36
-46.38
-49.95
-53.02
-55.65
-57.8
-59.24
-59.43
-57.78
-53.86
-47.76
-40.1
-31.98
-24.44
-18.16
-13.21
-9.11
-5.26
-1.24
2.92
6.83
10.01
12.18
13.49
14.33
15.18
16.34
17.81
19.42
20.98
22.41
23.81
25.26
26.77
28.21
29.36
30.03
30.19
29.93
29.43
28.77
27.93
26.77
25.17
23.11
20.7
18.17
15.74
13.56
11.59
9.72
7.82
5.87
4.01
2.44
1.3
0.49
-0.28
-1.39
-3.02
-5.07
-7.15
-8.83
-9.94
-10.62
-11.3
-12.44
-14.28
-16.81
-19.81
-23.0
-26.07
-28.74
-30.61
-31.24
-30.21
-27.3
-22.62
-16.65
-10.16
-4.0
1.21
5.2
8.08
10.24
12.17
14.17
16.25
18.21
19.74
20.63
20.87
20.58
19.97
19.19
18.37
17.57
16.92
16.54
16.49
16.78
17.27
17.76
17.98
17.7
16.74
15.1
12.96
10.65
8.56
6.96
5.92
5.26
4.67
3.86
2.64
1.01
-0.94
-3.04
-5.07
-6.86
-8.27
-9.28
-10.05
-10.84
-11.93
-13.47
-15.41
-17.56
-19.76
-21.92
-24.05
-26.24
-28.44
-30.48
-32.04
-32.76
-32.27
-30.35
-26.98
-22.37
-17.01
-11.47
-6.31
-1.91
1.65
4.48
6.81
8.84
10.63
12.14
13.25
13.82
13.77
13.18
12.28
11.47
11.2
11.74
13.06
14.85
16.61
17.95
18.71
18.96
18.82
18.32
17.36
15.84
13.81
11.58
9.54
8.05
7.2
6.79
6.4
5.58
4.04
1.81
-0.82
-3.44
-5.63
-7.14
-7.99
-8.36
-8.59
-8.94
-9.56
-10.47
-11.62
-12.96
-14.44
-16.07
-17.78
-19.49
-21.12
-22.74
-24.48
-26.56
-29.04
-31.74
-34.17
-35.63
-35.44
-33.19
-28.98
-23.33
-17.09
-11.15
-6.09
-2.18
0.7
2.85
4.56
5.99
7.15
7.95
8.36
8.49
8.5
8.6
8.89
9.29
9.65
9.79
9.67
9.43
9.3
9.52
10.17
11.12
12.05
12.58
12.48
11.68
10.35
8.74
7.12
5.67
4.49
3.61
3.02
2.71
2.62
2.68
2.85
3.09
3.39
3.66
3.76
3.5
2.68
1.23
-0.74
-2.96
-5.13
-7.06
-8.8
-10.56
-12.62
-15.18
-18.19
-21.41
-24.53
-27.36
-29.81
-31.87
-33.44
-34.21
-33.71
-31.56
-27.61
-22.18
-15.92
-9.61
-3.82
1.19
5.46
9.19
12.48
15.37
17.8
19.74
21.26
22.49
23.54
24.45
25.21
25.81
26.28
26.72
27.25
27.97
28.88
29.89
30.8
31.35
31.29
30.47
28.91
26.77
24.31
21.78
19.27
16.76
14.15
11.34
8.36
5.3
2.34
-0.32
-2.52
-4.15
-5.23
-5.92
-6.51
-7.37
-8.76
-10.7
-13.01
-15.4
-17.59
-19.51
-21.23
-22.91
-24.65
-26.46
-28.31
-30.13
-31.86
-33.36
-34.31
-34.23
-32.69
-29.46
-24.71
-19.0
-13.07
-7.59
-2.94
0.88
4.08
6.95
9.65
12.11
14.15
15.54
16.18
16.14
15.61
14.87
14.17
13.67
13.45
13.47
13.65
13.84
13.94
13.88
13.64
13.25
12.73
12.13
11.49
10.85
10.27
9.82
9.48
9.2
8.81
8.1
6.95
5.34
3.44
1.56
0.03
-0.95
-1.45
-1.77
-2.33
-3.52
-5.47
-8.01
-10.79
-13.41
-15.63
-17.48
-19.17
-20.95
-22.98
-25.27
-27.77
-30.38
-32.98
-35.34
-37.11
-37.82
-37.03
-34.53
-30.44
-25.21
-19.47
-13.84
-8.74
-4.37
-0.74
2.29
4.91
7.28
9.5
11.49
13.09
14.04
14.25
13.85
13.16
12.63
12.57
13.07
13.97
15.02
15.97
16.73
17.29
17.66
17.8
17.62
17.06
16.12
14.93
13.66
12.49
11.52
10.76
10.2
9.72
9.22
8.57
7.73
6.71
5.64
4.71
4.07
3.74
3.58
3.29
2.56
1.19
-0.8
-3.21
-5.74
-8.16
-10.38
-12.5
-14.72
-17.18
-19.93
-22.85
-25.79
-28.58
-31.05
-32.98
-34.02
-33.77
-31.89
-28.25
-23.07
-16.9
-10.5
-4.53
0.58
4.71
8.01
10.72
13.03
15.03
16.71
18.01
18.89
19.38
19.6
19.71
19.87
20.17
20.66
21.33
22.13
23.0
23.88
24.69
25.34
25.79
25.97
25.87
25.54
25.02
24.3
23.34
22.07
20.46
18.54
16.4
14.19
12.06
10.1
8.38
6.86
5.47
4.09
2.57
0.77
-1.39
-3.92
-6.72
-9.57
-12.33
-14.86
-17.18
-19.44
-21.8
-24.33
-26.95
-29.34
-31.09
-31.75
-31.03
-28.81
-25.22
-20.64
-15.49
-10.28
-5.42
-1.16
2.41
5.38
7.87
9.95
11.59
12.72
13.22
13.13
12.62
12.01
11.65
11.78
12.47
13.57
14.77
15.72
16.18
16.08
15.53
14.76
13.96
13.19
12.32
11.17
9.63
7.77
5.84
4.1
2.72
1.62
0.6
-0.48
-1.56
-2.47
-3.04
-3.35
-3.71
-4.5
-6.01
-8.23
-10.88
-13.63
-16.22
-18.55
-20.67
-22.69
-24.71
-26.83
-29.12
-31.51
-33.75
-35.34
-35.7
-34.36
-31.19
-26.47
-20.75
-14.71
-8.92
-3.72
0.72
4.34
7.16
9.26
10.76
11.84
12.63
13.23
13.66
13.87
13.83
13.6
13.29
13.08
13.14
13.56
14.3
15.25
16.29
17.32
18.33
19.26
20.0
20.33
20.02
18.95
17.23
15.18
13.13
11.28
9.56
7.74
5.67
3.39
1.17
-0.65
-1.91
-2.77
-3.63
-4.89
-6.75
-9.09
-11.65
-14.16
-16.49
-18.7
-20.92
-23.2
-25.58
-28.03
-30.49
-32.9
-35.04
-36.54
-36.93
-35.78
-32.9
-28.5
-23.13
-17.48
-12.2
-7.66
-3.93
-0.88
1.66
3.81
5.61
7.0
7.96
8.52
8.78
8.89
8.98
9.21
9.63
10.26
11.07
12.0
13.01
14.07
15.19
16.38
17.62
18.87
20.02
20.93
21.46
21.47
20.89
19.74
18.17
16.41
14.67
13.12
11.79
10.58
9.41
8.23
7.0
5.69
4.24
2.54
0.59
-1.54
-3.66
-5.59
-7.23
-8.66
-10.04
-11.57
-13.36
-15.46
-17.85
-20.5
-23.28
-25.83
-27.56
-27.69
-25.59
-21.03
-14.4
-6.71
0.81
7.07
11.46
14.04
15.41
16.31
17.37
18.88
20.7
22.41
23.54
23.74
22.98
21.47
19.64
17.91
16.59
15.74
15.26
14.94
14.58
14.11
13.6
13.14
12.81
12.52
12.1
11.31
10.06
8.38
6.53
4.78
3.36
2.27
1.32
0.24
-1.17
-2.91
-4.83
-6.68
-8.26
-9.53
-10.57
-11.56
-12.7
-14.11
-15.83
-17.83
-19.99
-22.17
-24.24
-26.19
-28.12
-30.13
-32.24
-34.22
-35.56
-35.61
-33.87
-30.22
-25.08
-19.23
-13.53
-8.55
-4.45
-1.03
1.99
4.79
7.35
9.57
11.4
12.92
14.25
15.44
16.4
16.94
17.0
16.69
16.36
16.41
17.07
18.32
19.87
21.34
22.41
22.92
22.87
22.32
21.37
20.08
18.54
16.83
15.09
13.42
11.93
10.68
9.6
8.53
7.22
5.44
3.09
0.37
-2.29
-4.38
-5.6
-5.98
-5.98
-6.22
-7.18
-9.0
-11.45
-14.08
-16.54
-18.69
-20.65
-22.62
-24.8
-27.25
-29.92
-32.74
-35.53
-38.02
-39.78
-40.27
-39.03
-35.92
-31.17
-25.39
-19.33
-13.67
-8.78
-4.72
-1.35
1.52
3.96
5.92
7.3
8.04
8.22
8.08
7.89
7.92
8.31
9.07
10.11
11.3
12.48
13.55
14.42
15.13
15.78
16.51
17.44
18.53
19.63
20.43
20.68
20.23
19.1
17.53
15.79
14.17
12.8
11.71
10.78
9.87
8.84
7.66
6.41
5.21
4.15
3.2
2.21
0.96
-0.7
-2.75
-5.04
-7.29
-9.32
-11.04
-12.54
-14.01
-15.6
-17.42
-19.48
-21.72
-24.0
-26.07
-27.56
-28.01
-26.98
-24.21
-19.76
-14.09
-7.91
-1.99
3.11
7.14
10.23
12.72
15.02
17.34
19.68
21.78
23.26
23.83
23.39
22.11
20.38
18.65
17.29
16.48
16.22
16.34
16.67
17.01
17.21
17.1
16.56
15.5
13.92
12.0
10.03
8.31
7.09
6.43
6.23
6.23
6.16
5.74
4.84
3.45
1.73
-0.09
-1.77
-3.21
-4.46
-5.74
-7.29
-9.24
-11.49
-13.84
-16.04
-18.01
-19.8
-21.62
-23.62
-25.84
-28.17
-30.52
-32.76
-34.76
-36.26
-36.81
-35.93
-33.25
-28.8
-23.11
-17.01
-11.32
-6.53
-2.71
0.49
3.43
6.34
9.18
11.69
13.6
14.76
15.21
15.17
14.97
14.91
15.17
15.77
16.58
17.43
18.15
18.69
19.07
19.34
19.49
19.47
19.2
18.66
17.89
16.98
15.96
14.81
13.47
11.88
10.14
8.41
6.83
5.45
4.2
2.95
1.61
0.21
-1.14
-2.31
-3.31
-4.28
-5.48
-7.1
-9.17
-11.51
-13.84
-15.9
-17.61
-19.1
-20.63
-22.44
-24.68
-27.35
-30.35
-33.44
-36.3
-38.47
-39.42
-38.68
-36.0
-31.48
-25.63
-19.23
-13.07
-7.74
-3.43
-0.03
2.74
5.16
7.34
9.27
10.88
12.1
12.93
13.38
13.48
13.26
12.78
12.2
11.74
11.61
11.9
12.52
13.28
13.97
14.47
14.77
14.88
14.77
14.37
13.6
12.49
11.17
9.83
8.66
7.79
7.22
6.91
6.76
6.66
6.49
6.12
5.52
4.76
4.02
3.47
3.11
2.76
2.08
0.82
-1.05
-3.3
-5.6
-7.68
-9.58
-11.49
-13.66
-16.16
-18.88
-21.64
-24.33
-26.97
-29.58
-31.99
-33.74
-34.16
-32.64
-28.96
-23.46
-16.91
-10.27
-4.31
0.62
4.58
7.92
10.97
13.93
16.75
19.23
21.17
22.43
23.07
23.27
23.29
23.36
23.56
23.86
24.21
24.58
25.05
25.71
26.6
27.58
28.35
28.55
27.87
26.22
23.8
21.0
18.23
15.75
13.63
11.73
9.81
7.68
5.32
2.89
0.63
-1.21
-2.57
-3.52
-4.29
-5.1
-6.07
-7.21
-8.51
-9.95
-11.57
-13.41
-15.46
-17.63
-19.8
-21.92
-24.02
-26.27
-28.77
-31.46
-34.03
-35.92
-36.51
-35.35
-32.35
-27.8
-22.29
-16.49
-10.94
-5.95
-1.67
1.91
4.85
7.19
8.99
10.31
11.18
11.61
11.6
11.13
10.3
9.36
8.64
8.51
9.14
10.47
12.22
14.01
15.5
16.54
17.13
17.39
17.41
17.21
16.67
15.68
14.21
12.42
10.67
9.28
8.46
8.07
7.74
6.98
5.49
3.31
0.78
-1.57
-3.33
-4.37
-4.86
-5.23
-5.89
-7.13
-8.99
-11.28
-13.71
-16.0
-18.05
-19.9
-21.7
-23.59
-25.64
-27.86
-30.16
-32.38
-34.3
-35.53
-35.6
-34.09
-30.8
-25.93
-20.09
-14.0
-8.31
-3.34
0.89
4.51
7.62
10.19
12.15
13.46
14.17
14.4
14.25
13.81
13.16
12.42
11.83
11.62
11.92
12.68
13.63
14.45
14.88
14.85
14.45
13.86
13.18
12.46
11.67
10.8
9.88
8.97
8.1
7.26
6.44
5.56
4.61
3.61
2.6
1.66
0.86
0.32
0.07
0.09
0.22
0.16
-0.37
-1.54
-3.27
-5.33
-7.41
-9.3
-11.01
-12.7
-14.6
-16.83
-19.39
-22.16
-24.96
-27.64
-30.04
-31.93
-32.96
-32.71
-30.82
-27.13
-21.86
-15.58
-9.05
-2.97
2.21
6.4
9.84
12.83
15.62
18.26
20.57
22.35
23.46
23.92
23.93
23.77
23.67
23.75
24.03
24.48
25.06
25.77
26.6
27.47
28.2
28.56
28.32
27.33
25.57
23.2
20.48
17.75
15.28
13.25
11.61
10.15
8.61
6.77
4.63
2.35
0.23
-1.51
-2.77
-3.61
-4.23
-4.84
-5.63
-6.71
-8.1
-9.75
-11.6
-13.57
-15.65
-17.92
-20.43
-23.21
-26.22
-29.3
-32.31
-35.09
-37.49
-39.22
-39.87
-39.02
-36.4
-32.08
-26.6
-20.74
-15.26
-10.62
-6.85
-3.68
-0.77
2.04
4.68
6.91
8.54
9.54
10.04
10.28
10.5
10.86
11.45
12.29
13.34
14.56
15.87
17.19
18.48
19.67
20.67
21.38
21.65
21.37
20.5
19.17
17.51
15.75
13.99
12.24
10.51
8.81
7.26
6.03
5.19
4.66
4.24
3.72
2.95
1.99
0.97
0.02
-0.89
-1.88
-3.17
-4.88
-6.98
-9.25
-11.43
-13.36
-15.04
-16.68
-18.58
-20.97
-23.9
-27.27
-30.8
-34.2
-37.25
-39.74
-41.48
-42.19
-41.48
-39.04
-34.79
-29.04
-22.47
-15.93
-10.17
-5.48
-1.8
1.22
3.92
6.46
8.77
10.67
11.97
12.63
12.71
12.39
11.89
11.44
11.31
11.71
12.77
14.45
16.5
18.63
20.54
22.09
23.27
24.16
24.82
25.23
25.31
24.98
24.24
23.2
22.03
20.84
19.65
18.35
16.79
14.89
12.76
10.68
8.99
7.88
7.34
7.07
6.65
5.73
4.22
2.27
0.22
-1.59
-3.0
-4.07
-5.01
-6.1
-7.49
-9.26
-11.32
-13.53
-15.83
-18.24
-20.86
-23.73
-26.69
-29.23
-30.63
-30.17
-27.48
-22.76
-16.71
-10.35
-4.53
0.36
4.39
7.88
11.11
14.09
16.62
18.49
19.64
20.25
20.52
20.61
20.5
20.13
19.49
18.77
18.26
18.2
18.61
19.29
19.91
20.24
20.17
19.75
19.02
18.0
16.63
14.89
12.91
10.91
9.11
7.64
6.38
5.14
3.7
1.95
0.0
-1.94
-3.64
-5.0
-6.07
-7.06
-8.22
-9.79
-11.8
-14.14
-16.55
-18.79
-20.74
-22.41
-23.98
-25.57
-27.31
-29.24
-31.4
-33.79
-36.29
-38.61
-40.17
-40.28
-38.35
-34.2
-28.2
-21.21
-14.27
-8.14
-3.15
0.84
4.19
7.22
10.04
12.55
14.62
16.11
17.04
17.49
17.58
17.39
17.04
16.67
16.43
16.44
16.72
17.18
17.67
18.06
18.3
18.41
18.43
18.35
18.08
17.55
16.74
15.7
14.52
13.32
12.16
11.03
9.89
8.64
7.23
5.64
3.93
2.18
0.51
-1.02
-2.38
-3.61
-4.79
-6.03
-7.44
-9.12
-11.11
-13.39
-15.92
-18.59
-21.29
-23.96
-26.62
-29.38
-32.32
-35.41
-38.47
-41.12
-42.8
-42.98
-41.24
-37.52
-32.07
-25.55
-18.77
-12.47
-7.13
-2.81
0.69
3.66
6.3
8.58
10.35
11.46
11.95
11.99
11.84
11.7
11.65
11.72
11.93
12.38
13.16
14.34
15.87
17.55
19.13
20.36
21.05
21.16
20.73
19.93
18.91
17.83
16.78
15.84
15.03
14.41
13.97
13.63
13.17
12.32
10.87
8.81
6.37
3.93
1.84
0.25
-0.94
-1.95
-3.05
-4.32
-5.7
-7.06
-8.34
-9.6
-10.99
-12.74
-14.96
-17.67
-20.78
-24.09
-27.35
-30.23
-32.35
-33.31
-32.76
-30.51
-26.62
-21.37
-15.26
-8.85
-2.65
2.98
7.82
11.84
15.16
17.93
20.32
22.39
24.04
25.08
25.35
24.81
23.74
22.55
21.71
21.51
21.97
22.86
23.79
24.42
24.57
24.28
23.69
22.94
22.06
20.95
19.48
17.6
15.42
13.19
11.15
9.4
7.83
6.2
4.3
2.09
-0.25
-2.42
-4.25
-5.7
-6.97
-8.23
-9.58
-11.04
-12.54
-14.07
-15.67
-17.42
-19.35
-21.45
-23.66
-25.96
-28.38
-30.92
-33.46
-35.73
-37.3
-37.68
-36.48
-33.58
-29.12
-23.53
-17.42
-11.41
-6.02
-1.56
1.91
4.54
6.6
8.31
9.79
11.07
12.11
12.87
13.38
13.72
13.97
14.21
14.52
14.94
15.52
16.23
17.02
17.79
18.47
19.02
19.45
19.78
19.93
19.77
19.2
18.19
16.86
15.44
14.13
13.0
11.95
10.79
9.38
7.71
5.94
4.25
2.81
1.62
0.56
-0.61
-2.05
-3.81
-5.81
-7.86
-9.78
-11.5
-13.06
-14.57
-16.18
-17.98
-20.06
-22.44
-25.16
-28.15
-31.18
-33.84
-35.55
-35.74
-34.12
-30.74
-26.07
-20.78
-15.53
-10.73
-6.54
-2.88
0.39
3.36
6.02
8.28
10.06
11.29
11.93
12.04
11.72
11.17
10.67
10.46
10.73
11.51
12.71
14.14
15.55
16.74
17.56
17.95
17.91
17.49
16.78
15.85
14.76
13.52
12.21
10.9
9.7
8.7
7.85
7.05
6.14
5.06
3.81
2.46
1.09
-0.26
-1.63
-3.06
-4.58
-6.17
-7.83
-9.57
-11.45
-13.51
-15.73
-18.01
-20.28
-22.49
-24.69
-27.0
-29.52
-32.28
-35.24
-38.21
-40.9
-42.91
-43.76
-43.09
-40.66
-36.56
-31.11
-24.83
-18.27
-11.89
-5.96
-0.63
4.02
7.96
11.18
13.72
15.68
17.18
18.34
19.21
19.86
20.3
20.6
20.85
21.16
21.63
22.29
23.11
23.95
24.61
24.95
24.88
24.44
23.74
22.96
22.17
21.4
20.58
19.66
18.65
17.64
16.71
15.84
14.91
13.71
12.13
10.25
8.39
6.95
6.23
6.19
6.42
6.39
5.62
4.08
2.0
-0.2
-2.24
-4.14
-6.19
-8.7
-11.81
-15.47
-19.43
-23.45
-27.35
-30.9
-33.79
-35.55
-35.7
-33.92
-30.29
-25.22
-19.38
-13.45
-7.93
-3.11
0.96
4.35
7.2
9.64
11.73
13.47
14.78
15.61
15.98
16.04
16.01
16.06
16.27
16.61
16.98
17.3
17.59
17.9
18.24
18.56
18.74
18.59
17.96
16.82
15.25
13.45
11.69
10.25
9.24
8.59
8.04
7.26
6.03
4.31
2.28
0.25
-1.5
-2.83
-3.77
-4.48
-5.17
-6.07
-7.32
-8.94
-10.86
-12.93
-15.03
-17.11
-19.22
-21.41
-23.74
-26.17
-28.66
-31.24
-33.96
-36.77
-39.41
-41.29
-41.63
-39.81
-35.63
-29.54
-22.48
-15.5
-9.37
-4.35
-0.24
3.34
6.7
9.93
12.88
15.35
17.2
18.45
19.2
19.63
19.91
20.14
20.4
20.74
21.2
21.75
22.33
22.78
22.95
22.71
21.99
20.85
19.45
17.95
16.47
15.04
13.61
12.16
10.66
9.16
7.67
6.2
4.72
3.27
1.89
0.68
-0.32
-1.16
-1.93
-2.72
-3.57
-4.5
-5.55
-6.8
-8.34
-10.26
-12.49
-14.88
-17.23
-19.39
-21.41
-23.41
-25.56
-27.97
-30.65
-33.55
-36.53
-39.4
-41.81
-43.32
-43.43
-41.75
-38.18
-32.97
-26.67
-19.95
-13.4
-7.34
-1.88
3.04
7.49
11.44
14.82
17.52
19.5
20.84
21.67
22.16
22.45
22.63
22.74
22.85
23.06
23.46
24.15
25.14
26.28
27.31
27.91
27.82
26.97
25.54
23.9
22.44
21.36
20.66
20.12
19.51
18.69
17.68
16.52
15.26
13.9
12.42
10.87
9.4
8.21
7.41
6.98
6.75
6.49
6.03
5.25
4.14
2.69
0.94
-1.15
-3.52
-6.12
-8.83
-11.58
-14.35
-17.22
-20.32
-23.77
-27.58
-31.52
-35.1
-37.66
-38.54
-37.35
-34.11
-29.29
-23.58
-17.7
-12.15
-7.2
-2.94
0.66
3.61
5.97
7.8
9.23
10.37
11.3
12.04
12.6
13.0
13.28
13.52
13.81
14.19
14.7
15.39
16.29
17.4
18.58
19.56
20.05
19.84
18.88
17.31
15.39
13.37
11.43
9.66
8.12
6.82
5.77
4.87
4.01
3.01
1.77
0.3
-1.24
-2.7
-3.98
-5.12
-6.28
-7.63
-9.21
-10.94
-12.67
-14.33
-16.03
-17.98
-20.39
-23.21
-26.18
-28.86
-30.91
-32.3
-33.32
-34.4
-35.76
-37.19
-38.08
-37.59
-35.06
-30.35
-23.9
-16.6
-9.48
-3.31
1.53
5.08
7.66
9.62
11.24
12.67
13.92
14.92
15.57
15.84
15.77
15.51
15.29
15.31
15.66
16.27
16.91
17.38
17.6
17.64
17.69
17.87
18.16
18.42
18.41
18.05
17.38
16.53
15.62
14.63
13.47
12.05
10.34
8.48
6.62
4.91
3.4
2.08
0.91
-0.15
-1.18
-2.32
-3.78
-5.69
-8.08
-10.72
-13.29
-15.5
-17.27
-18.79
-20.38
-22.36
-24.87
-27.91
-31.34
-34.96
-38.5
-41.55
-43.59
-44.07
-42.57
-39.02
-33.74
-27.4
-20.79
-14.57
-9.11
-4.46
-0.42
3.27
6.75
10.04
12.99
15.43
17.28
18.54
19.31
19.72
19.84
19.74
19.55
19.43
19.56
20.09
20.96
22.03
23.09
23.96
24.54
24.77
24.57
23.89
22.75
21.26
19.7
18.31
17.24
16.4
15.56
14.43
12.85
10.86
8.7
6.62
4.8
3.29
2.02
0.9
-0.17
-1.27
-2.4
-3.57
-4.85
-6.29
-7.94
-9.84
-11.95
-14.16
-16.41
-18.68
-21.1
-23.78
-26.73
-29.69
-32.09
-33.23
-32.55
-29.86
-25.45
-19.99
-14.28
-8.91
-4.21
-0.2
3.2
6.08
8.5
10.45
11.94
12.99
13.66
14.0
14.1
14.07
14.05
14.15
14.5
15.11
15.94
16.9
17.86
18.75
19.46
19.93
20.09
19.93
19.47
18.77
17.91
16.91
15.78
14.46
12.91
11.11
9.13
7.14
5.36
4.02
3.21
2.83
2.48
1.55
-0.57
-4.29
-9.6
-15.99
-22.65
-28.71
-33.55
-36.95
-39.04
-40.19
-40.79
-41.16
-41.55
-42.04
-42.56
-42.85
-42.44
-40.79
-37.53
-32.61
-26.4
-19.54
-12.79
-6.69
-1.49
2.86
6.57
9.81
12.66
15.08
16.95
18.18
18.81
18.95
18.77
18.45
18.08
17.72
17.39
17.16
17.19
17.67
18.72
20.33
22.23
23.97
25.06
25.12
24.07
22.22
20.13
18.4
17.46
17.38
17.78
18.05
17.59
16.08
13.68
10.92
8.53
7.02
6.48
6.5
6.35
5.34
3.06
-0.38
-4.45
-8.32
-11.08
-11.96
-10.71
-8.07
-6.05
-7.76
-16.45
-34.08
-60.09
-90.92
-120.8
-143.47
-154.16
-150.87
-134.52
-108.23
-76.04
-41.94
-9.39
18.84
40.79
55.35
62.53
63.47
60.09
54.69
49.29
45.23
42.95
42.05
41.69
40.99
39.46
37.17
34.65
32.62
31.57
31.55
32.13
32.68
32.67
31.87
30.42
28.63
26.8
25.08
23.48
21.9
20.25
18.47
16.57
14.56
12.53
10.6
8.85
7.37
6.13
5.03
3.97
2.85
1.64
0.39
-0.9
-2.27
-3.8
-5.55
-7.46
-9.4
-11.19
-12.7
-13.95
-15.1
-16.36
-17.9
-19.81
-22.08
-24.63
-27.32
-29.9
-32.03
-33.23
-32.99
-30.97
-27.13
-21.82
-15.67
-9.41
-3.64
1.3
5.4
8.87
11.97
14.88
17.57
19.81
21.33
21.94
21.67
20.8
19.7
18.71
18.0
17.55
17.34
17.39
17.8
18.67
19.92
21.29
22.36
22.79
22.36
21.14
19.33
17.21
15.06
13.13
11.63
10.65
10.11
9.73
9.1
7.89
5.99
3.59
1.1
-1.11
-2.81
-4.01
-4.97
-5.98
-7.22
-8.76
-10.57
-12.54
-14.64
-16.86
-19.23
-21.77
-24.45
-27.14
-29.7
-31.97
-33.8
-35.08
-35.63
-35.24
-33.69
-30.86
-26.81
-21.84
-16.41
-11.04
-6.11
-1.84
1.77
4.77
7.27
9.27
10.77
11.78
12.4
12.8
13.16
13.63
14.26
14.97
15.69
16.36
16.96
17.52
18.0
18.35
18.5
18.4
18.11
17.7
17.2
16.62
15.9
14.98
13.83
12.52
11.14
9.75
8.36
6.89
5.29
3.56
1.77
0.07
-1.39
-2.52
-3.33
-3.98
-4.71
-5.76
-7.23
-9.08
-11.13
-13.22
-15.27
-17.32
-19.45
-21.74
-24.15
-26.64
-29.16
-31.73
-34.27
-36.58
-38.21
-38.62
-37.34
-34.29
-29.79
-24.47
-19.0
-13.89
-9.35
-5.43
-2.08
0.72
2.99
4.8
6.28
7.64
8.96
10.22
11.3
12.03
12.39
12.51
12.67
13.11
14.0
15.34
16.97
18.68
20.18
21.25
21.76
21.68
21.1
20.22
19.24
18.29
17.45
16.69
15.9
14.94
13.71
12.16
10.33
8.4
6.6
5.13
4.07
3.32
2.64
1.76
0.51
-1.09
-2.85
-4.56
-6.17
-7.76
-9.5
-11.51
-13.76
-16.1
-18.38
-20.58
-22.83
-25.32
-28.07
-30.79
-32.93
-33.83
-33.01
-30.31
-25.97
-20.53
-14.62
-8.77
-3.35
1.46
5.67
9.31
12.46
15.15
17.32
18.86
19.68
19.77
19.27
18.46
17.63
17.02
16.72
16.65
16.67
16.64
16.52
16.34
16.2
16.16
16.22
16.28
16.19
15.8
15.05
13.96
12.66
11.3
9.98
8.69
7.35
5.88
4.3
2.74
1.36
0.31
-0.48
-1.21
-2.18
-3.6
-5.55
-7.86
-10.27
-12.51
-14.44
-16.09
-17.61
-19.23
-21.16
-23.54
-26.36
-29.49
-32.56
-35.05
-36.38
-36.04
-33.81
-29.83
-24.65
-19.01
-13.62
-8.92
-5.02
-1.77
1.1
3.79
6.34
8.68
10.65
12.1
12.97
13.29
13.24
13.06
12.97
13.15
13.65
14.38
15.16
15.82
16.23
16.4
16.44
16.44
16.42
16.28
15.84
14.91
13.4
11.46
9.35
7.4
5.82
4.57
3.43
2.13
0.53
-1.25
-2.89
-4.13
-4.86
-5.26
-5.71
-6.56
-7.94
-9.73
-11.62
-13.36
-14.9
-16.38
-18.05
-20.13
-22.68
-25.62
-28.8
-32.03
-35.06
-37.51
-38.91
-38.77
-36.76
-32.93
-27.72
-21.89
-16.26
-11.41
-7.5
-4.32
-1.47
1.33
4.14
6.71
8.75
10.04
10.64
10.86
11.02
11.37
11.91
12.51
13.02
13.43
13.83
14.36
15.09
15.98
16.86
17.59
18.08
18.28
18.21
17.92
17.45
16.9
16.34
15.84
15.38
14.84
14.06
12.94
11.48
9.82
8.17
6.65
5.3
4.02
2.68
1.19
-0.4
-2.03
-3.62
-5.19
-6.84
-8.67
-10.73
-13.05
-15.55
-18.19
-20.92
-23.69
-26.37
-28.71
-30.31
-30.74
-29.7
-27.09
-23.1
-18.19
-12.85
-7.54
-2.54
2.02
6.14
9.81
13.0
15.63
17.66
19.16
20.27
21.17
22.01
22.8
23.45
23.88
24.07
24.08
24.04
24.0
23.95
23.85
23.64
23.29
22.83
22.24
21.45
20.32
18.78
16.85
14.69
12.49
10.34
8.21
5.95
3.47
0.87
-1.57
-3.55
-4.89
-5.73
-6.38
-7.25
-8.57
-10.31
-12.25
-14.12
-15.76
-17.2
-18.65
-20.37
-22.54
-25.23
-28.25
-31.21
-33.54
-34.66
-34.13
-31.81
-27.9
-22.83
-17.19
-11.5
-6.17
-1.5
2.4
5.48
7.82
9.56
10.86
11.84
12.53
12.96
13.19
13.32
13.47
13.69
13.95
14.16
14.26
14.28
14.32
14.54
14.99
15.61
16.27
16.78
16.98
16.8
16.22
15.3
14.15
12.87
11.54
10.11
8.48
6.54
4.32
2.03
-0.05
-1.68
-2.85
-3.79
-4.83
-6.26
-8.12
-10.29
-12.54
-14.72
-16.8
-18.86
-21.05
-23.45
-26.13
-29.11
-32.27
-35.34
-37.85
-39.22
-38.92
-36.71
-32.73
-27.51
-21.75
-16.12
-11.0
-6.51
-2.55
1.05
4.34
7.26
9.65
11.41
12.52
13.08
13.27
13.27
13.2
13.15
13.22
13.49
13.99
14.7
15.5
16.22
16.71
16.92
16.87
16.65
16.32
15.91
15.39
14.74
13.98
13.15
12.27
11.36
10.4
9.35
8.2
6.95
5.61
4.23
2.76
1.14
-0.72
-2.86
-5.23
-7.68
-9.99
-12.0
-13.69
-15.2
-16.77
-18.6
-20.81
-23.35
-26.02
-28.53
-30.46
-31.33
-30.66
-28.2
-23.96
-18.39
-12.14
-5.96
-0.38
4.35
8.27
11.57
14.39
16.79
18.69
19.95
20.47
20.32
19.72
19.04
18.63
18.73
19.32
20.22
21.19
22.08
22.88
23.64
24.36
24.9
25.04
24.55
23.37
21.6
19.49
17.26
15.08
12.95
10.81
8.57
6.19
3.72
1.25
-1.08
-3.17
-5.02
-6.68
-8.26
-9.91
-11.68
-13.57
-15.5
-17.41
-19.27
-21.12
-23.04
-25.09
-27.27
-29.44
-31.25
-32.25
-31.92
-29.87
-26.05
-20.83
-14.89
-9.04
-3.92
0.12
3.17
5.53
7.57
9.52
11.44
13.18
14.51
15.24
15.28
14.75
13.93
13.23
12.97
13.31
14.15
15.15
15.97
16.37
16.29
15.83
15.15
14.37
13.56
12.71
11.76
10.69
9.43
8.0
6.43
4.84
3.35
2.04
0.91
-0.14
-1.23
-2.5
-4.0
-5.69
-7.53
-9.48
-11.51
-13.61
-15.75
-17.92
-20.12
-22.46
-24.98
-27.66
-30.3
-32.54
-34.0
-34.3
-33.22
-30.71
-26.94
-22.25
-17.13
-12.04
-7.34
-3.15
0.59
4.01
7.18
10.01
12.33
13.96
14.92
15.35
15.49
15.51
15.46
15.37
15.32
15.47
16.02
17.0
18.23
19.33
19.9
19.72
18.83
17.5
16.04
14.66
13.42
12.2
10.88
9.39
7.73
5.94
4.02
1.96
-0.17
-2.27
-4.18
-5.79
-7.1
-8.26
-9.46
-10.86
-12.47
-14.18
-15.87
-17.5
-19.15
-20.9
-22.83
-24.93
-27.14
-29.4
-31.62
-33.6
-34.96
-35.21
-33.86
-30.7
-25.91
-20.02
-13.77
-7.76
-2.32
2.48
6.74
10.5
13.75
16.39
18.39
19.79
20.71
21.29
21.6
21.66
21.44
20.96
20.32
19.71
19.34
19.35
19.74
20.34
20.94
21.32
21.36
21.05
20.51
19.85
19.09
18.21
17.18
16.03
14.85
13.72
12.67
11.63
10.44
9.04
7.46
5.83
4.32
3.05
2.0
1.13
0.3
-0.6
-1.66
-3.01
-4.69
-6.72
-9.01
-11.44
-13.85
-16.22
-18.6
-21.1
-23.74
-26.35
-28.45
-29.47
-28.85
-26.36
-22.2
-16.95
-11.38
-6.15
-1.6
2.29
5.7
8.84
11.79
14.41
16.49
17.86
18.46
18.4
17.94
17.4
17.09
17.23
17.86
18.83
19.91
20.79
21.31
21.47
21.43
21.38
21.45
21.62
21.76
21.68
21.13
19.83
17.57
14.24
9.97
5.09
0.16
-4.26
-7.74
-10.09
-11.41
-12.04
-12.38
-12.82
-13.58
-14.71
-16.15
-17.74
-19.36
-20.97
-22.62
-24.38
-26.29
-28.34
-30.45
-32.57
-34.61
-36.39
-37.54
-37.58
-36.03
-32.71
-27.83
-22.08
-16.33
-11.31
-7.4
-4.47
-2.12
0.16
2.66
5.41
8.15
10.5
12.13
12.89
12.93
12.6
12.33
12.46
13.1
14.1
15.17
16.02
16.51
16.71
16.8
16.93
17.08
17.1
16.76
15.97
14.78
13.4
12.07
10.92
9.93
8.93
7.78
6.37
4.75
3.08
1.58
0.43
-0.32
-0.79
-1.24
-2.0
-3.28
-5.08
-7.2
-9.33
-11.25
-12.89
-14.42
-16.05
-17.93
-20.06
-22.35
-24.72
-27.09
-29.36
-31.24
-32.25
-31.81
-29.44
-25.06
-19.05
-12.17
-5.38
0.47
4.79
7.39
8.48
8.55
8.21
8.02
8.24
8.85
9.54
10.03
10.16
10.02
9.8
9.71
9.8
10.01
10.23
10.41
10.61
10.86
11.18
11.46
11.46
10.98
9.89
8.26
6.33
4.4
2.75
1.54
0.73
0.14
-0.45
-1.24
-2.26
-3.4
-4.41
-5.02
-5.11
-4.76
-4.22
-3.89
-4.06
-4.9
-6.32
-8.11
-10.05
-12.0
-13.93
-15.87
-17.89
-19.98
-22.13
-24.33
-26.59
-28.92
-31.22
-33.18
-34.34
-34.14
-32.2
-28.46
-23.25
-17.25
-11.21
-5.76
-1.25
2.29
4.99
7.04
8.58
9.69
10.48
11.13
11.83
12.7
13.71
14.69
15.42
15.77
15.79
15.69
15.78
16.32
17.44
19.01
20.73
22.15
22.85
22.54
21.24
19.24
16.97
14.86
13.14
11.75
10.48
9.11
7.61
6.11
4.88
4.06
3.61
3.3
2.83
1.98
0.72
-0.85
-2.58
-4.4
-6.28
-8.26
-10.34
-12.48
-14.63
-16.81
-19.09
-21.52
-23.98
-26.14
-27.48
-27.49
-25.85
-22.59
-18.14
-13.1
-8.14
-3.7
-0.02
2.98
5.46
7.66
9.67
11.47
12.87
13.68
13.76
13.2
12.28
11.34
10.72
10.53
10.75
11.22
11.78
12.36
12.98
13.66
14.39
15.03
15.39
15.27
14.59
13.42
11.94
10.41
9.02
7.85
6.83
5.85
4.81
3.7
2.56
1.46
0.31
-1.02
-2.7
-4.79
-7.21
-9.77
-12.24
-14.48
-16.49
-18.34
-20.19
-22.2
-24.5
-27.12
-29.91
-32.49
-34.24
-34.53
-32.89
-29.27
-24.12
-18.16
-12.21
-6.86
-2.35
1.33
4.35
6.92
9.18
11.2
12.97
14.39
15.37
15.84
15.83
15.48
15.02
14.69
14.61
14.85
15.38
16.14
17.01
17.83
18.45
18.76
18.77
18.58
18.29
17.9
17.32
16.41
15.08
13.39
11.48
9.48
7.45
5.42
3.44
1.66
0.24
-0.75
-1.47
-2.31
-3.69
-5.86
-8.73
-11.95
-15.08
-17.81
-20.06
-21.97
-23.79
-25.74
-27.95
-30.47
-33.19
-35.86
-38.04
-39.15
-38.61
-36.07
-31.59
-25.7
-19.25
-13.08
-7.78
-3.52
-0.15
2.68
5.24
7.62
9.75
11.51
12.86
13.81
14.47
14.92
15.19
15.31
15.32
15.29
15.39
15.73
16.38
17.29
18.24
19.0
19.29
19.01
18.14
16.89
15.5
