0
-22.18
-23.93
-25.35
-27.24
-30.16
-34.08
-38.18
-41.11
-41.36
-37.87
-30.48
-20.01
-8.1
3.39
12.91
19.62
23.44
24.84
24.47
22.83
20.24
16.93
13.22
9.58
6.57
4.66
4.05
4.58
5.92
7.64
9.41
10.99
12.22
12.99
13.18
12.76
11.8
10.47
8.92
7.2
5.27
2.99
0.31
-2.69
-5.84
-8.95
-11.9
-14.65
-17.25
-19.71
-22.0
-24.1
-26.08
-28.15
-30.5
-33.22
-36.07
-38.41
-39.34
-37.98
-33.83
-27.0
-18.26
-8.8
0.06
7.27
12.24
14.9
15.57
14.8
13.12
10.92
8.48
5.95
3.51
1.44
0.08
-0.26
0.53
2.3
4.7
7.24
9.49
11.24
12.41
13.08
13.37
13.4
13.26
12.99
12.63
12.15
11.45
10.47
9.14
7.54
5.81
4.12
2.6
1.35
0.33
-0.54
-1.48
-2.77
-4.67
-7.26
-10.23
-12.85
-14.15
-13.19
-9.55
-3.5
4.02
11.69
18.23
22.75
24.91
24.85
23.01
19.97
16.19
12.07
7.86
3.75
-0.09
-3.47
-6.14
-7.89
-8.66
-8.58
-7.98
-7.28
-6.8
-6.69
-6.92
-7.36
-7.95
-8.76
-9.95
-11.69
-14.05
-16.94
-20.1
-23.18
-25.87
-27.99
-29.57
-30.8
-32.0
-33.47
-35.46
-38.08
-41.31
-45.06
-49.0
-52.59
-55.03
-55.4
-52.9
-47.16
-38.49
-27.81
-16.47
-5.81
3.13
9.8
14.11
16.25
16.52
15.24
12.78
9.51
5.89
2.39
-0.52
-2.52
-3.48
-3.54
-3.08
-2.55
-2.36
-2.64
-3.24
-3.81
-4.0
-3.74
-3.24
-2.97
-3.38
-4.67
-6.75
-9.22
-11.69
-13.84
-15.67
-17.33
-19.06
-21.09
-23.54
-26.43
-29.68
-33.06
-36.1
-38.09
-38.23
-35.83
-30.65
-23.05
-13.91
-4.46
4.19
11.23
16.3
19.38
20.59
20.12
18.21
15.17
11.44
7.6
4.17
1.57
-0.02
-0.64
-0.58
-0.16
0.33
0.79
1.28
1.98
2.97
4.21
5.44
6.3
6.44
5.69
4.09
1.86
-0.7
-3.26
-5.58
-7.52
-9.14
-10.67
-12.52
-15.1
-18.6
-22.88
-27.32
-30.91
-32.47
-31.06
-26.19
-18.1
-7.71
3.64
14.56
23.93
31.11
35.88
38.28
38.52
36.87
33.67
29.43
24.81
20.49
17.02
14.7
13.47
13.03
12.99
13.03
12.99
12.9
12.87
13.02
13.25
13.28
12.72
11.21
8.61
5.09
1.02
-3.16
-7.1
-10.64
-13.85
-16.93
-20.16
-23.81
-28.14
-33.22
-38.83
-44.3
-48.57
-50.36
-48.6
-42.81
-33.38
-21.46
-8.68
3.38
13.61
21.48
26.93
30.09
31.12
30.17
27.54
23.78
19.73
16.28
14.1
13.42
14.03
15.43
17.09
18.66
19.97
21.03
21.9
22.55
22.9
22.74
21.85
20.07
17.38
13.96
10.18
6.47
3.18
0.43
-2.0
-4.51
-7.56
-11.46
-16.33
-21.93
-27.76
-32.97
-36.48
-37.14
-34.12
-27.2
-16.98
-4.71
8.01
19.72
29.44
36.66
41.3
43.46
43.32
41.19
37.54
33.07
28.56
24.77
22.19
21.01
21.02
21.81
22.79
23.5
23.64
23.22
22.42
21.48
20.5
19.35
17.75
15.4
12.17
8.21
3.84
-0.5
-4.5
-7.99
-11.0
-13.74
-16.46
-19.5
-23.19
-27.71
-33.01
-38.57
-43.44
-46.36
-46.15
-42.07
-34.1
-23.01
-10.23
2.61
14.08
23.24
29.73
33.64
35.29
35.04
33.22
30.21
26.5
22.72
19.5
17.34
16.4
16.53
17.36
18.51
19.68
20.69
21.44
21.83
21.71
21.0
19.68
17.85
15.65
13.18
10.49
7.53
4.28
0.73
-3.0
-6.72
-10.27
-13.51
-16.37
-18.96
-21.47
-24.18
-27.4
-31.32
-35.79
-40.26
-43.72
-44.95
-42.9
-37.07
-27.77
-16.08
-3.56
8.23
18.07
25.34
29.91
31.99
31.98
30.26
27.33
23.75
20.2
17.33
15.6
15.2
15.92
17.35
18.95
20.34
21.37
22.12
22.74
23.3
23.69
23.61
22.77
21.02
18.52
15.61
12.75
10.22
8.07
6.13
4.09
1.73
-1.04
-4.05
-7.05
-9.75
-11.98
-13.82
-15.58
-17.8
-21.0
-25.43
-30.82
-36.36
-40.77
-42.69
-41.19
-36.01
-27.72
-17.51
-6.87
2.86
10.72
16.22
19.32
20.27
19.41
17.18
14.0
10.3
6.56
3.23
0.74
-0.68
-1.03
-0.59
0.24
0.99
1.25
0.72
-0.79
-3.4
-7.08
-11.61
-16.59
-21.6
-26.32
-30.8
-35.35
-40.44
-46.38
-53.11
-60.19
-66.88
-72.47
-76.57
-79.28
-81.11
-82.74
-84.67
-86.97
-89.3
-91.09
-91.96
-91.92
-91.36
-90.78
-90.5
-90.42
-90.08
-88.72
-85.27
-78.35
-66.43
-48.3
-23.81
5.61
37.01
66.75
91.79
110.78
124.23
133.86
141.35
147.47
151.97
154.31
154.59
154.0
154.6
158.27
165.74
176.01
186.46
193.74
194.87
188.3
174.46
155.86
136.57
121.37
114.29
117.12
128.32
142.92
153.82
154.25
140.43
113.18
77.59
40.88
9.31
-14.08
-30.15
-42.14
-53.35
-65.03
-75.79
-82.54
-82.58
-74.62
-59.08
-37.55
-11.81
16.63
46.99
78.8
111.17
142.16
169.49
191.36
206.95
216.47
220.5
219.9
215.61
208.63
199.11
187.49
174.51
160.76
146.54
131.09
114.01
95.82
77.59
58.06
36.42
12.95
-11.11
-33.53
-54.03
-72.04
-86.58
-97.34
-109.88
-128.52
-154.01
-183.85
-213.07
-241.3
-268.46
-294.1
-318.33
-349.45
-392.7
-447.29
-508.25
-568.19
-628.17
-689.25
-749.48
-804.29
-856.98
-906.55
-946.28
-967.79
-963.6
-940.31
-906.71
-869.08
-768.23
-585.13
-349.64
-118.75
40.33
142.65
208.39
252.77
290.27
326.05
352.06
363.06
361.51
355.75
357.65
367.68
384.35
406.79
434.13
458.42
475.0
484.79
491.87
501.37
508.88
509.17
499.83
481.24
451.85
413.31
370.52
329.45
295.86
268.76
245.86
225.34
205.53
182.89
155.25
123.01
88.81
56.88
28.92
5.83
-12.25
-25.97
-37.12
-46.98
-55.68
-62.5
-66.23
-66.67
-63.99
-58.47
-50.6
-40.99
-30.46
-20.01
-10.61
-3.03
2.36
5.63
7.13
7.44
7.08
6.46
5.83
5.24
4.55
3.5
1.72
-1.16
-5.32
-10.61
-16.52
-22.19
-26.67
-29.27
-29.74
-28.39
-25.9
-23.06
-20.51
-18.57
-17.32
-16.72
-16.73
-17.35
-18.53
-20.06
-21.59
-22.64
-22.75
-21.65
-19.34
-16.13
-12.52
-9.13
-6.47
-4.85
-4.25
-4.42
-4.93
-5.43
-5.76
-6.06
-6.64
-7.81
-9.78
-12.47
-15.56
-18.63
-21.33
-23.49
-25.19
-26.67
-28.28
-30.36
-33.08
-36.45
-40.11
-43.4
-45.45
-45.33
-42.36
-36.32
-27.63
-17.25
-6.5
3.32
11.21
16.67
19.69
20.61
19.89
17.93
15.12
11.92
8.83
6.46
5.27
5.42
6.73
8.75
10.99
13.04
14.77
16.13
17.18
17.9
18.18
17.95
17.13
15.69
13.64
11.01
7.9
4.48
0.94
-2.51
-5.71
-8.55
-11.0
-13.09
-14.94
-16.77
-18.86
-21.45
-24.53
-27.7
-30.16
-30.92
-29.09
-24.27
-16.68
-7.18
3.02
12.67
20.74
26.64
30.17
31.49
30.92
28.91
25.97
22.63
19.39
16.72
14.9
14.03
14.01
14.57
15.38
16.16
16.66
16.77
16.49
15.88
15.06
14.14
13.17
12.18
11.15
10.06
8.89
7.62
6.2
4.58
2.71
0.61
-1.63
-3.88
-6.03
-8.05
-10.02
-12.1
-14.47
-17.27
-20.56
-24.27
-28.08
-31.4
-33.37
-33.08
-29.88
-23.69
-15.16
-5.51
3.86
11.74
17.45
20.91
22.38
22.3
21.11
19.14
16.73
14.22
12.0
10.35
9.46
9.35
9.85
10.73
11.76
12.75
13.55
14.07
14.23
13.96
13.27
12.2
10.84
9.31
7.64
5.84
3.87
1.76
-0.42
-2.5
-4.32
-5.79
-6.94
-7.82
-8.57
-9.34
-10.33
-11.8
-13.98
-16.99
-20.67
-24.56
-27.95
-30.0
-29.96
-27.42
-22.37
-15.25
-6.94
1.49
9.0
14.8
18.57
20.37
20.56
19.55
17.68
15.23
12.49
9.83
7.65
6.24
5.67
5.78
6.25
6.82
7.35
7.85
8.39
8.93
9.27
9.17
8.42
6.94
4.88
2.5
0.1
-2.1
-4.02
-5.63
-6.99
-8.16
-9.18
-10.05
-10.82
-11.59
-12.49
-13.66
-15.24
-17.29
-19.8
-22.58
-25.26
-27.3
-28.03
-26.87
-23.56
-18.25
-11.55
-4.34
2.48
8.22
12.54
15.41
16.96
17.36
16.78
15.36
13.28
10.84
8.39
6.29
4.84
4.16
4.21
4.71
5.31
5.67
5.55
4.89
3.8
2.52
1.3
0.34
-0.31
-0.73
-1.15
-1.77
-2.78
-4.21
-5.9
-7.64
-9.18
-10.44
-11.45
-12.42
-13.61
-15.27
-17.54
-20.47
-23.96
-27.72
-31.25
-33.83
-34.66
-33.04
-28.68
-21.89
-13.54
-4.85
2.96
9.01
12.95
14.91
15.36
14.76
13.45
11.6
9.32
6.83
4.49
2.74
1.96
2.28
3.5
5.2
6.89
8.22
9.04
9.35
9.22
8.71
7.84
6.64
5.2
3.64
2.03
0.41
-1.27
-3.08
-5.08
-7.26
-9.55
-11.81
-13.97
-15.99
-17.95
-20.07
-22.63
-25.84
-29.63
-33.52
-36.66
-38.06
-36.9
-32.86
-26.26
-17.97
-9.09
-0.67
6.53
12.11
15.97
18.21
18.96
18.45
16.97
14.89
12.7
10.83
9.65
9.33
9.81
10.88
12.23
13.55
14.61
15.26
15.43
15.07
14.18
12.8
11.07
9.16
7.27
5.46
3.66
1.72
-0.55
-3.21
-6.15
-9.15
-11.93
-14.35
-16.41
-18.23
-19.99
-21.89
-24.11
-26.84
-30.15
-33.94
-37.73
-40.67
-41.64
-39.65
-34.24
-25.69
-15.04
-3.77
6.68
15.25
21.46
25.32
27.13
27.27
26.13
24.03
21.36
18.51
15.9
13.89
12.68
12.29
12.58
13.28
14.13
15.02
15.86
16.67
17.39
17.87
17.9
17.31
16.07
14.31
12.27
10.2
8.17
6.1
3.76
0.96
-2.39
-6.11
-9.87
-13.28
-16.09
-18.26
-20.01
-21.66
-23.56
-25.97
-28.93
-32.33
-35.73
-38.45
-39.6
-38.29
-33.98
-26.7
-17.22
-6.81
3.15
11.55
17.82
21.95
24.24
25.07
24.68
23.23
20.96
18.26
15.65
13.68
12.69
12.73
13.58
14.86
16.23
17.51
18.63
19.59
20.37
20.87
20.96
20.5
19.41
17.69
15.46
12.93
10.43
8.21
6.43
4.99
3.64
2.06
0.03
-2.45
-5.21
-7.96
-10.46
-12.64
-14.51
-16.26
-18.15
-20.48
-23.52
-27.35
-31.75
-36.1
-39.44
-40.71
-39.08
-34.2
-26.37
-16.5
-5.81
4.43
13.23
19.96
24.42
26.74
27.26
26.42
24.69
22.5
20.24
18.27
16.85
16.13
16.11
16.6
17.32
18.0
18.49
18.77
18.9
18.93
18.83
18.42
17.58
16.18
14.29
12.08
9.81
7.7
5.89
4.41
3.13
1.88
0.45
-1.28
-3.34
-5.63
-7.87
-9.85
-11.41
-12.7
-14.02
-15.8
-18.41
-21.98
-26.37
-31.12
-35.51
-38.66
-39.7
-37.95
-33.22
-25.88
-16.84
-7.27
1.67
9.18
14.86
18.67
20.76
21.34
20.67
19.09
16.99
14.82
12.98
11.72
11.18
11.34
12.07
13.17
14.44
15.69
16.79
17.67
18.26
18.5
18.33
17.66
16.51
14.94
13.06
11.0
8.86
6.7
4.56
2.46
0.34
-1.85
-4.2
-6.71
-9.27
-11.64
-13.6
-15.07
-16.2
-17.32
-18.85
-21.1
-24.16
-27.85
-31.74
-35.18
-37.45
-37.81
-35.68
-30.92
-23.84
-15.27
-6.24
2.22
9.34
14.74
18.31
20.12
20.32
19.15
16.94
14.25
11.67
9.74
8.76
8.76
9.52
10.7
12.0
13.18
14.06
14.58
14.69
14.42
13.8
12.89
11.65
10.08
8.21
6.14
4.09
2.25
0.71
-0.6
-1.89
-3.37
-5.19
-7.36
-9.73
-12.12
-14.39
-16.45
-18.37
-20.29
-22.44
-25.05
-28.28
-32.07
-36.03
-39.41
-41.22
-40.53
-36.77
-30.0
-20.88
-10.54
-0.2
9.08
16.62
22.09
25.46
26.84
26.45
24.6
21.79
18.54
15.48
13.11
11.73
11.39
11.89
12.9
14.05
15.07
15.84
16.35
16.58
16.46
15.84
14.61
12.79
10.62
8.42
6.44
4.72
3.11
1.29
-1.03
-3.94
-7.3
-10.81
-14.1
-16.86
-18.92
-20.38
-21.53
-22.82
-24.73
-27.59
-31.44
-35.93
-40.29
-43.52
-44.53
-42.55
-37.28
-29.12
-19.02
-8.27
1.91
10.61
17.39
22.15
24.93
25.83
25.0
22.73
19.59
16.29
13.59
11.94
11.47
11.9
12.8
13.73
14.5
15.1
15.63
16.2
16.8
17.31
17.5
17.15
16.11
14.37
12.1
9.57
7.12
4.92
2.96
1.03
-1.15
-3.75
-6.73
-9.78
-12.49
-14.54
-15.82
-16.59
-17.36
-18.75
-21.34
-25.41
-30.77
-36.67
-41.88
-44.98
-44.76
-40.73
-33.2
-23.26
-12.37
-1.92
7.1
14.28
19.54
23.05
24.97
25.44
24.67
22.93
20.68
18.41
16.6
15.58
15.5
16.29
17.72
19.49
21.33
23.06
24.57
25.76
26.48
26.47
25.5
23.47
20.55
17.17
13.9
11.19
9.23
7.84
6.66
5.24
3.31
0.77
-2.27
-5.51
-8.68
-11.51
-13.87
-15.83
-17.67
-19.84
-22.78
-26.75
-31.66
-36.98
-41.82
-45.06
-45.66
-42.91
-36.64
-27.34
-16.09
-4.26
6.79
16.08
23.08
27.7
30.08
30.46
29.12
26.5
23.22
20.09
17.91
17.19
17.97
19.84
22.13
24.15
25.47
25.97
25.83
25.36
24.85
24.44
24.07
23.53
22.54
20.91
18.64
15.95
13.15
10.54
8.29
6.38
4.62
2.8
0.76
-1.57
-4.13
-6.77
-9.27
-11.45
-13.23
-14.73
-16.18
-17.95
-20.34
-23.5
-27.37
-31.63
-35.74
-38.95
-40.43
-39.4
-35.41
-28.52
-19.33
-8.97
1.29
10.31
17.35
22.11
24.66
25.2
24.06
21.64
18.41
14.97
11.95
9.89
9.07
9.5
10.89
12.81
14.87
16.76
18.34
19.59
20.49
21.02
21.14
20.77
19.84
18.31
16.23
13.75
11.18
8.82
6.91
5.45
4.24
2.94
1.26
-0.9
-3.4
-5.94
-8.26
-10.21
-11.87
-13.43
-15.14
-17.27
-20.04
-23.56
-27.79
-32.39
-36.61
-39.48
-40.0
-37.52
-32.02
-24.13
-14.93
-5.67
2.63
9.35
14.25
17.32
18.74
18.66
17.37
15.24
12.76
10.5
8.93
8.32
8.68
9.81
11.35
12.96
14.41
15.61
16.55
17.26
17.64
17.51
16.68
15.03
12.7
9.99
7.33
5.06
3.32
2.0
0.8
-0.63
-2.49
-4.8
-7.35
-9.83
-12.01
-13.82
-15.41
-17.02
-18.92
-21.27
-24.12
-27.38
-30.85
-34.1
-36.51
-37.25
-35.56
-31.0
-23.77
-14.7
-5.02
3.99
11.46
16.97
20.59
22.57
23.17
22.57
20.94
18.53
15.71
12.95
10.72
9.36
9.02
9.56
10.69
11.98
13.06
13.68
13.83
13.6
13.08
12.24
10.9
8.93
6.36
3.49
0.75
-1.46
-3.0
-4.04
-4.94
-6.08
-7.66
-9.68
-11.94
-14.19
-16.23
-17.92
-19.37
-20.83
-22.76
-25.58
-29.6
-34.73
-40.38
-45.55
-48.95
-49.44
-46.33
-39.68
-30.26
-19.33
-8.31
1.64
9.78
15.85
19.95
22.31
23.17
22.77
21.38
19.36
17.18
15.27
14.0
13.51
13.71
14.37
15.18
15.91
16.49
17.0
17.53
18.17
18.85
19.34
19.35
18.63
17.05
14.68
11.79
8.75
5.94
3.63
1.83
0.34
-1.21
-3.16
-5.66
-8.59
-11.64
-14.52
-17.08
-19.44
-21.79
-24.42
-27.54
-31.3
-35.67
-40.42
-44.97
-48.42
-49.72
-47.97
-42.8
-34.61
-24.4
-13.48
-3.1
5.91
13.1
18.34
21.67
23.21
23.16
21.84
19.74
17.42
15.44
14.24
14.04
14.83
16.36
18.23
20.02
21.39
22.22
22.59
22.72
22.76
22.72
22.44
21.65
20.14
17.93
15.2
12.32
9.65
7.44
5.72
4.32
2.96
1.3
-0.83
-3.5
-6.55
-9.71
-12.7
-15.37
-17.72
-19.88
-22.12
-24.69
-27.82
-31.57
-35.76
-39.89
-43.12
-44.44
-42.94
-38.13
-30.23
-20.15
-9.28
0.96
9.5
15.78
19.77
21.72
21.99
20.94
18.96
16.51
14.06
12.1
10.92
10.56
10.9
11.77
13.06
14.74
16.75
18.94
21.04
22.76
23.82
24.1
23.55
22.19
20.14
17.57
14.79
12.11
9.8
7.92
6.3
4.61
2.57
0.05
-2.82
-5.78
-8.57
-10.99
-13.01
-14.73
-16.39
-18.28
-20.73
-23.92
-27.76
-31.78
-35.14
-36.82
-35.91
-31.9
-24.93
-15.79
-5.68
4.08
12.37
18.5
22.23
23.67
23.18
21.23
18.36
15.16
12.23
10.08
8.97
8.9
9.6
10.71
11.9
13.05
14.16
15.31
16.52
17.66
18.45
18.58
17.85
16.25
13.98
11.39
8.81
6.43
4.26
2.12
-0.18
-2.7
-5.33
-7.82
-9.93
-11.58
-12.88
-14.12
-15.63
-17.69
-20.43
-23.84
-27.65
-31.34
-34.12
-35.07
-33.45
-28.89
-21.71
-12.81
-3.46
5.09
11.95
16.69
19.38
20.32
19.9
18.46
16.3
13.71
11.05
8.7
6.98
6.11
6.1
6.8
7.97
9.43
11.04
12.71
14.28
15.49
16.04
15.72
14.5
12.58
10.26
7.83
5.44
3.11
0.78
-1.59
-3.97
-6.27
-8.44
-10.47
-12.41
-14.34
-16.4
-18.76
-21.59
-25.0
-28.85
-32.77
-36.03
-37.73
-37.06
-33.53
-27.22
-18.76
-9.26
0.05
8.13
14.33
18.5
20.79
21.54
21.01
19.41
16.9
13.78
10.48
7.6
5.66
5.03
5.73
7.49
9.82
12.22
14.24
15.61
16.25
16.16
15.42
14.13
12.4
10.35
8.13
5.82
3.43
0.9
-1.85
-4.83
-7.95
-10.99
-13.73
-16.03
-17.95
-19.72
-21.67
-24.09
-27.16
-30.9
-35.04
-39.03
-42.06
-43.18
-41.54
-36.7
-28.82
-18.68
-7.55
3.25
12.56
19.7
24.48
27.03
27.7
26.85
24.88
22.19
19.24
16.52
14.47
13.34
13.16
13.7
14.61
15.6
16.46
17.19
17.83
18.39
18.79
18.81
18.24
16.9
14.84
12.28
9.56
7.02
4.88
3.09
1.44
-0.42
-2.74
-5.56
-8.66
-11.69
-14.33
-16.44
-18.21
-20.01
-22.25
-25.26
-29.14
-33.72
-38.48
-42.66
-45.24
-45.23
-41.92
-35.2
-25.68
-14.58
-3.4
6.51
14.36
19.93
23.39
25.07
25.26
24.19
22.12
19.48
16.86
14.87
13.98
14.36
15.81
17.89
20.07
21.91
23.14
23.75
23.84
23.59
23.06
22.18
20.74
18.6
15.77
12.57
9.47
6.94
5.18
4.06
3.11
1.86
-0.01
-2.52
-5.43
-8.43
-11.27
-13.88
-16.27
-18.52
-20.66
-22.8
-25.11
-27.82
-31.11
-34.86
-38.5
-41.06
-41.45
-38.84
-33.02
-24.53
-14.48
-4.18
5.17
12.82
18.45
22.1
24.01
24.43
23.6
21.8
19.37
16.78
14.66
13.59
13.92
15.6
18.18
20.94
23.18
24.52
24.99
24.94
24.79
24.73
24.63
24.1
22.71
20.29
16.98
13.28
9.77
6.92
4.85
3.38
2.08
0.5
-1.62
-4.3
-7.28
-10.21
-12.78
-14.89
-16.65
-18.34
-20.3
-22.75
-25.84
-29.5
-33.5
-37.41
-40.59
-42.18
-41.36
-37.6
-30.88
-21.88
-11.78
-1.97
6.42
12.76
16.95
19.25
20.0
19.48
17.84
15.29
12.17
9.05
6.57
5.31
5.56
7.22
9.9
13.01
16.02
18.52
20.34
21.46
21.88
21.54
20.33
18.18
15.19
11.64
8.0
4.76
2.21
0.36
-1.04
-2.42
-4.13
-6.36
-9.03
-11.89
-14.57
-16.68
-18.02
-18.6
-18.71
-18.92
-19.87
-22.08
-25.63
-30.08
-34.48
-37.62
-38.38
-36.05
-30.52
-22.31
-12.46
-2.26
7.02
14.42
19.44
22.02
22.48
21.3
18.94
15.84
12.4
9.09
6.36
4.6
3.92
4.19
5.1
6.27
7.47
8.61
9.66
10.62
11.39
11.9
12.06
11.87
11.32
10.35
8.89
6.83
4.17
1.05
-2.26
-5.45
-8.24
-10.4
-11.77
-12.3
-12.05
-11.25
-10.36
-9.89
-10.37
-12.11
-15.08
-18.86
-22.67
-25.5
-26.36
-24.5
-19.64
-12.17
-3.12
6.19
14.42
20.68
24.68
26.59
26.85
25.86
23.92
21.3
18.33
15.45
13.13
11.64
10.96
10.84
10.9
10.92
10.85
10.84
10.96
11.16
11.23
10.87
9.93
8.4
6.46
4.35
2.26
0.31
-1.5
-3.23
-5.0
-6.91
-9.07
-11.48
-14.03
-16.56
-18.85
-20.82
-22.55
-24.29
-26.37
-29.08
-32.53
-36.58
-40.76
-44.3
-46.16
-45.38
-41.31
-33.91
-23.89
-12.51
-1.19
8.86
16.93
22.75
26.38
27.99
27.76
26.0
23.23
20.12
17.37
15.49
14.7
14.81
15.5
16.4
17.26
17.97
18.53
18.96
19.23
19.29
19.06
18.4
17.19
15.36
12.98
10.27
7.52
4.98
2.74
0.69
-1.38
-3.68
-6.28
-9.09
-11.89
-14.46
-16.69
-18.57
-20.22
-21.87
-23.83
-26.43
-29.91
-34.3
-39.24
-43.97
-47.43
-48.52
-46.43
-40.94
-32.5
-22.12
-11.07
-0.61
8.34
15.26
20.07
22.92
24.11
23.95
22.75
20.84
18.63
16.59
15.23
14.87
15.58
17.11
18.99
20.73
21.98
22.7
23.06
23.29
23.51
23.64
23.44
22.64
21.05
18.66
15.64
12.3
8.97
5.88
3.16
0.75
-1.52
-3.85
-6.31
-8.8
-11.12
-13.11
-14.79
-16.36
-18.14
-20.39
-23.28
-26.84
-31.08
-35.88
-40.91
-45.5
-48.65
-49.27
-46.53
-40.26
-31.01
-19.93
-8.39
2.43
11.7
18.99
24.09
26.95
27.7
26.61
24.23
21.23
18.35
16.14
14.89
14.62
15.19
16.37
17.91
19.61
21.26
22.68
23.7
24.2
24.12
23.4
22.02
20.04
17.53
14.71
11.83
9.17
6.87
4.91
3.15
1.3
-0.89
-3.59
-6.82
-10.37
-13.97
-17.26
-20.04
-22.32
-24.35
-26.57
-29.42
-33.13
-37.61
-42.33
-46.44
-48.88
-48.64
-45.07
-38.03
-28.11
-16.43
-4.41
6.62
15.67
22.2
26.15
27.68
27.18
25.12
22.11
18.83
15.98
14.11
13.46
13.92
15.15
16.7
18.19
19.49
20.58
21.57
22.46
23.12
23.33
22.85
21.55
19.46
16.8
13.82
10.74
7.69
4.6
1.39
-2.01
-5.56
-9.07
-12.28
-15.03
-17.25
-19.06
-20.73
-22.51
-24.64
-27.34
-30.72
-34.74
-39.09
-43.06
-45.55
-45.42
-41.87
-34.77
-24.84
-13.42
-2.04
8.03
16.04
21.76
25.31
26.92
26.85
25.42
23.06
20.29
17.7
15.75
14.68
14.45
14.85
15.59
16.41
17.21
17.97
18.75
19.53
20.19
20.47
20.09
18.88
16.89
14.37
11.71
9.15
6.75
4.33
1.6
-1.62
-5.31
-9.28
-13.25
-17.04
-20.57
-23.9
-27.13
-30.38
-33.78
-37.52
-41.74
-46.3
-50.68
-53.94
-54.88
-52.45
-46.19
-36.41
-24.13
-10.8
2.15
13.58
22.82
29.55
33.79
35.68
35.46
33.54
30.43
26.77
23.22
20.37
18.57
17.93
18.29
19.32
20.67
21.96
22.99
23.61
23.8
23.54
22.81
21.56
19.7
17.26
14.33
11.12
7.89
4.83
1.96
-0.8
-3.67
-6.76
-10.06
-13.39
-16.48
-19.12
-21.29
-23.25
-25.43
-28.34
-32.36
-37.46
-43.11
-48.3
-51.79
-52.34
-49.18
-42.15
-31.84
-19.44
-6.45
5.65
15.73
23.18
27.92
30.26
30.72
29.84
28.11
25.93
23.72
21.91
20.87
20.81
21.65
23.09
24.63
25.94
26.85
27.45
27.88
28.19
28.26
27.83
26.69
24.8
22.33
19.53
16.62
13.71
10.8
7.89
5.0
2.2
-0.49
-3.12
-5.82
-8.66
-11.63
-14.64
-17.55
-20.34
-23.1
-26.08
-29.61
-33.89
-38.81
-43.83
-47.96
-50.03
-49.0
-44.37
-36.37
-25.87
-14.15
-2.45
8.22
17.22
24.18
28.93
31.43
31.8
30.39
27.76
24.59
21.54
19.18
17.82
17.52
18.11
19.21
20.43
21.45
22.1
22.36
22.37
22.18
21.78
21.06
19.89
18.25
16.21
13.95
11.61
9.28
6.86
4.23
1.24
-2.09
-5.6
-9.06
-12.2
-14.87
-17.09
-19.04
-21.0
-23.31
-26.29
-30.1
-34.63
-39.45
-43.76
-46.61
-47.06
-44.45
-38.65
-30.06
-19.55
-8.26
2.54
11.81
18.87
23.51
25.93
26.55
25.85
24.26
22.11
19.75
17.59
16.02
15.28
15.39
16.09
17.05
18.06
19.06
20.15
21.32
22.39
23.03
22.86
21.69
19.54
16.6
13.14
9.43
5.71
2.15
-1.13
-4.11
-6.89
-9.6
-12.32
-15.01
-17.52
-19.79
-21.85
-23.95
-26.49
-29.78
-33.86
-38.42
-42.74
-45.83
-46.71
-44.63
-39.33
-31.16
-20.98
-10.03
0.48
9.56
16.66
21.59
24.43
25.37
24.7
22.81
20.18
17.37
14.85
12.96
11.82
11.37
11.51
12.1
13.03
14.16
15.27
16.12
16.49
16.28
15.55
14.43
13.04
11.49
9.76
7.8
5.56
2.96
-0.02
-3.38
-7.04
-10.82
-14.47
-17.78
-20.72
-23.54
-26.66
-30.52
-35.26
-40.53
-45.47
-48.93
-49.77
-47.25
-41.21
-32.14
-21.08
-9.26
2.06
11.81
19.32
24.24
26.63
26.82
25.26
22.53
19.22
15.94
13.26
11.61
11.23
12.04
13.73
15.84
17.93
19.67
20.86
21.36
21.11
20.12
18.47
16.37
14.11
11.89
9.74
7.6
5.26
2.6
-0.5
-4.05
-7.96
-12.08
-16.22
-20.1
-23.52
-26.48
-29.24
-32.26
-36.0
-40.61
-45.76
-50.55
-53.74
-54.08
-50.71
-43.46
-32.91
-20.31
-7.23
4.85
14.82
22.22
27.07
29.69
30.51
29.95
28.46
26.55
24.74
23.42
22.72
22.5
22.42
22.26
21.95
21.66
21.61
21.87
22.25
22.35
21.8
20.35
18.09
15.27
12.25
9.31
6.6
4.13
1.76
-0.65
-3.25
-6.07
-9.11
-12.21
-15.15
-17.71
-19.79
-21.42
-22.93
-24.78
-27.46
-31.29
-36.28
-41.97
-47.48
-51.67
-53.36
-51.57
-45.85
-36.44
-24.28
-10.82
2.31
13.8
22.83
29.18
33.06
34.86
34.96
33.73
31.55
28.95
26.54
24.9
24.39
25.02
26.46
28.2
29.72
30.7
31.08
31.0
30.69
30.3
29.77
28.89
27.38
25.05
21.93
18.31
14.63
11.31
8.54
6.29
4.28
2.21
-0.17
-2.93
-5.94
-8.99
-11.83
-14.27
-16.34
-18.18
-20.14
-22.67
-26.19
-30.89
-36.62
-42.77
-48.3
-51.93
-52.45
-49.05
-41.64
-30.92
-18.21
-5.17
6.74
16.49
23.65
28.22
30.48
30.74
29.34
26.71
23.43
20.23
17.8
16.57
16.65
17.75
19.39
21.09
22.56
23.68
24.45
24.89
24.97
24.61
23.76
22.4
20.51
18.12
15.21
11.87
8.31
4.84
1.8
-0.63
-2.53
-4.23
-6.13
-8.44
-11.14
-13.89
-16.31
-18.14
-19.39
-20.35
-21.44
-23.06
-25.54
-28.98
-33.19
-37.6
-41.24
-42.93
-41.58
-36.6
-28.16
-17.19
-5.13
6.53
16.56
24.27
29.42
32.13
32.71
31.55
29.13
25.99
22.77
20.03
18.21
17.55
17.97
19.12
20.56
21.88
22.85
23.46
23.83
24.07
24.17
23.96
23.23
21.84
19.79
17.23
14.4
11.53
8.75
6.13
3.68
1.32
-1.07
-3.63
-6.46
-9.53
-12.65
-15.51
-17.85
-19.57
-20.86
-22.11
-23.83
-26.4
-30.01
-34.53
-39.5
-44.15
-47.4
-48.16
-45.59
-39.46
-30.25
-19.14
-7.61
3.01
11.86
18.63
23.4
26.37
27.7
27.54
26.11
23.84
21.33
19.23
18.0
17.79
18.42
19.51
20.7
21.72
22.49
23.04
23.35
23.31
22.79
21.62
19.78
17.36
14.6
11.74
9.0
6.48
4.24
2.23
0.41
-1.34
-3.15
-5.15
-7.43
-9.98
-12.66
-15.29
-17.69
-19.76
-21.55
-23.26
-25.19
-27.66
-30.87
-34.84
-39.25
-43.46
-46.54
-47.48
-45.45
-40.08
-31.64
-21.03
-9.56
1.41
10.84
18.12
23.11
25.94
26.87
26.21
24.34
21.76
19.1
16.95
15.7
15.43
15.87
16.64
17.38
17.88
18.14
18.22
18.22
18.18
18.08
17.86
17.42
16.63
15.34
13.48
11.08
8.35
5.57
3.0
0.76
-1.16
-2.9
-4.66
-6.6
-8.83
-11.39
-14.21
-17.13
-19.92
-22.36
-24.41
-26.23
-28.21
-30.78
-34.21
-38.37
-42.73
-46.34
-48.18
-47.37
-43.45
-36.48
-27.1
-16.28
-5.2
5.05
13.6
19.94
23.85
25.36
24.76
22.46
19.1
15.42
12.16
9.84
8.67
8.58
9.28
10.47
11.93
13.53
15.14
16.6
17.7
18.25
18.16
17.41
16.08
14.23
11.92
9.31
6.63
4.16
2.07
0.33
-1.35
-3.36
-5.97
-9.15
-12.56
-15.71
-18.22
-20.02
-21.34
-22.61
-24.26
-26.6
-29.69
-33.44
-37.5
-41.32
-44.09
-44.87
-42.87
-37.64
-29.36
-18.85
-7.35
3.8
13.41
20.74
25.5
27.74
27.84
26.32
23.74
20.68
17.65
15.07
13.19
12.13
11.84
12.15
12.84
13.72
14.69
15.7
16.67
17.43
17.7
17.16
15.66
13.24
10.25
7.14
4.24
1.69
-0.66
-3.07
-5.79
-8.88
-12.21
-15.54
-18.65
-21.41
-23.82
-25.98
-28.09
-30.41
-33.28
-36.94
-41.3
-45.85
-49.55
-51.09
-49.37
-43.85
-34.81
-23.31
-10.8
1.21
11.6
19.69
25.27
28.44
29.46
28.69
26.5
23.33
19.69
16.12
13.18
11.25
10.5
10.77
11.73
12.98
14.19
15.17
15.85
16.16
15.95
15.12
13.61
11.52
9.08
6.52
3.98
1.49
-1.05
-3.76
-6.71
-9.9
-13.24
-16.61
-19.91
-23.04
-25.97
-28.85
-31.95
-35.57
-39.89
-44.73
-49.39
-52.72
-53.4
-50.41
-43.38
-32.82
-19.98
-6.46
6.15
16.73
24.67
29.87
32.53
32.99
31.61
28.85
25.23
21.4
18.12
15.99
15.33
16.05
17.71
19.66
21.37
22.56
23.22
23.48
23.4
22.9
21.82
20.04
17.66
14.94
12.24
9.75
7.44
5.08
2.42
-0.7
-4.22
-7.96
-11.63
-14.98
-17.86
-20.29
-22.42
-24.53
-27.06
-30.4
-34.8
-40.14
-45.77
-50.49
-52.88
-51.63
-46.07
-36.41
-23.8
-10.0
3.19
14.39
22.92
28.73
32.19
33.73
33.68
32.29
29.85
26.83
23.88
21.66
20.64
20.86
21.99
23.46
24.74
25.54
25.86
25.92
25.91
25.89
25.72
25.12
23.8
21.65
18.74
15.37
11.98
8.97
6.59
4.82
3.35
1.72
-0.46
-3.37
-6.86
-10.52
-13.89
-16.59
-18.55
-19.93
-21.15
-22.74
-25.18
-28.79
-33.51
-38.82
-43.7
-46.87
-47.12
-43.67
-36.44
-26.15
-14.0
-1.44
10.22
19.97
27.18
31.6
33.34
32.75
30.41
27.0
23.24
19.78
17.14
15.72
15.65
16.83
18.88
21.19
23.21
24.53
25.08
25.05
24.72
24.31
23.82
23.07
21.87
20.11
17.89
15.42
12.99
10.82
8.96
7.28
5.51
3.37
0.68
-2.53
-5.99
-9.36
-12.33
-14.77
-16.76
-18.55
-20.44
-22.68
-25.44
-28.88
-33.06
-37.91
-43.02
-47.53
-50.26
-49.99
-45.88
-37.89
-26.87
-14.34
-2.01
8.71
17.08
22.94
26.54
28.17
28.08
26.41
23.44
19.68
15.88
12.87
11.3
11.42
13.07
15.71
18.69
21.44
23.61
25.05
25.83
26.07
25.84
25.15
23.95
22.17
19.83
17.04
14.03
11.08
8.45
6.27
4.45
2.7
0.65
-1.99
-5.26
-8.93
-12.58
-15.86
-18.58
-20.9
-23.11
-25.61
-28.64
-32.34
-36.72
-41.6
-46.52
-50.62
-52.7
-51.52
-46.25
-36.95
-24.65
-11.09
1.86
12.81
21.03
26.49
29.51
30.5
29.83
27.84
25.0
21.84
18.95
16.77
15.53
15.17
15.49
16.21
17.09
17.98
18.78
19.47
20.03
20.42
20.54
20.27
19.5
18.18
16.37
14.18
11.79
9.33
6.97
4.78
2.74
0.73
-1.46
-4.05
-7.17
-10.72
-14.41
-17.91
-20.94
-23.47
-25.7
-27.98
-30.68
-34.06
-38.23
-43.03
-48.02
-52.46
-55.3
-55.45
-52.09
-45.01
-34.76
-22.55
-9.95
1.63
11.23
18.45
23.31
26.01
26.8
25.92
23.69
20.58
17.26
14.44
12.69
12.26
13.05
14.7
16.71
18.66
20.28
21.47
22.28
22.76
22.9
22.63
21.79
20.27
18.08
15.36
12.35
9.33
6.49
3.91
1.55
-0.64
-2.73
-4.74
-6.76
-8.87
-11.14
-13.59
-16.16
-18.72
-21.13
-23.33
-25.39
-27.51
-29.94
-32.92
-36.55
-40.69
-44.83
-48.12
-49.51
-47.99
-42.99
-34.62
-23.7
-11.55
0.43
11.11
19.78
26.09
