0
3.63
2.05
-0.05
-2.81
-6.23
-10.24
-14.61
-18.93
-22.66
-25.17
-25.91
-24.58
-21.2
-16.15
-9.98
-3.29
3.38
9.62
15.01
19.15
21.7
22.51
21.67
19.56
16.74
13.81
11.22
9.18
7.7
6.64
5.81
5.05
4.21
3.15
1.73
-0.14
-2.5
-5.29
-8.46
-11.95
-15.67
-19.46
-22.94
-25.52
-26.54
-25.48
-22.18
-16.96
-10.53
-3.69
2.85
8.65
13.54
17.38
20.03
21.31
21.13
19.63
17.25
14.59
12.2
10.42
9.25
8.51
7.87
7.09
6.06
4.78
3.27
1.52
-0.56
-3.14
-6.31
-10.1
-14.43
-19.08
-23.72
-27.9
-31.1
-32.77
-32.48
-30.0
-25.49
-19.46
-12.59
-5.53
1.21
7.3
12.47
16.39
18.78
19.41
18.39
16.16
13.36
10.66
8.49
7.02
6.13
5.64
5.31
4.93
4.33
3.36
1.98
0.2
-1.88
-4.22
-6.78
-9.59
-12.66
-16.01
-19.6
-23.42
-27.35
-31.1
-34.17
-35.86
-35.57
-33.0
-28.32
-22.06
-14.9
-7.44
-0.15
6.6
12.4
16.79
19.37
19.99
18.87
16.55
13.72
11.02
8.94
7.71
7.35
7.66
8.28
8.78
8.81
8.17
6.87
5.01
2.75
0.23
-2.48
-5.29
-8.2
-11.33
-14.88
-18.99
-23.6
-28.25
-32.16
-34.43
-34.45
-32.04
-27.53
-21.54
-14.72
-7.61
-0.64
5.82
11.31
15.39
17.71
18.16
16.94
14.54
11.61
8.82
6.68
5.45
5.05
5.12
5.26
5.1
4.53
3.61
2.44
1.11
-0.46
-2.38
-4.75
-7.56
-10.78
-14.41
-18.6
-23.42
-28.72
-33.98
-38.25
-40.46
-39.77
-35.9
-29.23
-20.62
-11.14
-1.74
6.9
14.36
20.38
24.75
27.29
27.98
26.96
24.69
21.83
19.02
16.75
15.21
14.31
13.79
13.37
12.84
12.04
10.85
9.17
6.92
4.1
0.83
-2.74
-6.42
-10.15
-13.95
-17.95
-22.25
-26.94
-31.91
-36.88
-41.31
-44.44
-45.47
-43.77
-39.09
-31.72
-22.37
-11.99
-1.49
8.42
17.23
24.57
30.11
33.64
35.16
34.99
33.68
31.9
30.18
28.77
27.65
26.66
25.67
24.61
23.52
22.43
21.32
20.12
18.66
16.75
14.24
11.05
7.27
3.15
-0.96
-4.77
-8.2
-11.37
-14.62
-18.26
-22.53
-27.44
-32.74
-37.93
-42.26
-44.85
-44.89
-41.8
-35.55
-26.65
-16.05
-4.91
5.77
15.24
23.04
28.84
32.5
33.98
33.51
31.63
29.1
26.72
25.05
24.29
24.28
24.65
24.99
25.06
24.74
24.03
22.95
21.44
19.45
16.94
13.95
10.61
7.13
3.68
0.36
-2.85
-6.04
-9.37
-12.95
-16.88
-21.17
-25.75
-30.43
-34.9
-38.65
-41.03
-41.43
-39.37
-34.81
-28.05
-19.73
-10.57
-1.26
7.6
15.48
21.85
26.3
28.58
28.82
27.48
25.24
22.81
20.65
18.99
17.86
17.2
16.93
16.95
17.09
17.13
16.85
16.03
14.55
12.42
9.69
6.53
3.13
-0.29
-3.55
-6.54
-9.32
-12.04
-14.94
-18.27
-22.16
-26.52
-30.98
-34.83
-37.19
-37.22
-34.41
-28.78
-20.9
-11.71
-2.23
6.66
14.34
20.44
24.67
26.9
27.13
25.62
22.91
19.69
16.66
14.22
12.53
11.44
10.72
10.13
9.54
8.88
8.12
7.16
5.92
4.29
2.16
-0.48
-3.62
-7.16
-10.96
-14.92
-19.01
-23.32
-28.02
-33.14
-38.41
-43.2
-46.61
-47.66
-45.71
-40.7
-33.11
-23.8
-13.78
-3.9
5.2
13.08
19.4
23.88
26.38
26.95
25.9
23.77
21.23
18.87
17.06
15.96
15.5
15.5
15.77
16.11
16.33
16.2
15.53
14.15
12.06
9.39
6.32
3.04
-0.37
-3.93
-7.66
-11.58
-15.68
-19.89
-24.11
-28.11
-31.49
-33.66
-34.01
-32.14
-27.99
-21.97
-14.75
-7.06
0.56
7.77
14.32
19.89
24.01
26.2
26.21
24.22
20.82
16.88
13.2
10.33
8.44
7.43
7.09
7.22
7.68
8.36
9.07
9.52
9.35
8.23
5.98
2.6
-1.65
-6.41
-11.26
-15.93
-20.34
-24.61
-29.01
-33.8
-39.06
-44.63
-50.07
-54.66
-57.54
-57.91
-55.17
-49.2
-40.35
-29.38
-17.28
-5.05
6.44
16.56
24.74
30.56
33.75
34.31
32.69
29.74
26.47
23.73
22.04
21.41
21.58
22.19
22.97
23.75
24.45
24.9
24.88
24.1
22.34
19.56
15.91
11.71
7.37
3.19
-0.7
-4.38
-8.18
-12.48
-17.63
-23.73
-30.62
-37.74
-44.25
-49.16
-51.43
-50.31
-45.5
-37.31
-26.59
-14.53
-2.33
8.97
18.62
26.15
31.25
33.79
33.9
31.98
28.73
24.99
21.54
18.88
17.21
16.47
16.48
17.01
17.76
18.4
18.54
17.88
16.25
13.72
10.53
6.99
3.34
-0.29
-3.89
-7.59
-11.59
-16.2
-21.64
-27.9
-34.53
-40.55
-44.65
-45.56
-42.51
-35.53
-25.42
-13.47
-1.07
10.66
20.95
29.32
35.45
39.13
40.27
39.0
35.73
31.14
26.06
21.28
17.43
14.84
13.52
13.12
13.14
13.02
12.32
10.84
8.61
5.81
2.64
-0.77
-4.39
-8.28
-12.53
-17.28
-22.71
-28.94
-35.89
-43.03
-49.39
-53.65
-54.55
-51.28
-43.81
-32.88
-19.77
-5.92
7.42
19.33
29.2
36.62
41.31
43.17
42.35
39.28
34.73
29.68
25.04
21.53
19.45
18.65
18.67
18.89
18.81
18.13
16.75
14.75
12.2
9.15
5.64
1.69
-2.64
-7.32
-12.38
-18.0
-24.33
-31.34
-38.57
-45.08
-49.59
-50.85
-48.06
-41.19
-30.96
-18.65
-5.63
6.92
18.11
27.33
34.12
38.1
39.07
37.19
33.1
27.76
22.29
17.6
14.2
12.16
11.15
10.7
10.37
9.8
8.82
7.4
5.61
3.54
1.24
-1.36
-4.4
-8.09
-12.61
-18.0
-24.04
-30.26
-35.89
-39.96
-41.47
-39.68
-34.33
-25.75
-14.85
-2.85
9.01
19.72
28.57
35.06
38.89
39.92
38.32
34.64
29.83
25.0
21.08
18.55
17.3
16.79
16.33
15.44
14.02
12.23
10.39
8.62
6.85
4.73
1.87
-2.01
-7.02
-13.08
-19.88
-26.88
-33.27
-38.03
-40.07
-38.55
-33.2
-24.46
-13.33
-1.14
10.85
21.61
30.4
36.71
40.22
40.89
38.96
35.09
30.2
25.26
21.06
18.01
16.15
15.19
14.73
14.37
13.81
12.85
11.47
9.71
7.63
5.28
2.56
-0.68
-4.7
-9.65
-15.56
-22.0
-28.15
-32.89
-35.03
-33.78
-28.98
-21.19
-11.42
-0.91
9.26
18.24
25.38
30.2
32.37
31.81
28.89
24.43
19.45
14.95
11.55
9.36
8.08
7.25
6.44
5.44
4.29
3.11
2.04
1.03
-0.11
-1.77
-4.33
-8.04
-12.96
-18.89
-25.37
-31.72
-37.08
-40.52
-41.22
-38.68
-32.88
-24.41
-14.26
-3.59
6.52
15.25
22.03
26.47
28.34
27.66
24.76
20.38
15.51
11.1
7.76
5.63
4.48
3.88
3.45
2.99
2.44
1.74
0.75
-0.73
-2.89
-5.84
-9.59
-14.11
-19.36
-25.27
-31.58
-37.71
-42.74
-45.56
-45.19
-41.09
-33.39
-22.92
-10.92
1.21
12.26
21.38
28.0
31.83
32.85
31.34
27.89
23.4
18.85
15.02
12.28
10.57
9.52
8.7
7.82
6.82
5.75
4.62
3.3
1.52
-1.05
-4.67
-9.47
-15.37
-22.06
-28.95
-35.16
-39.68
-41.53
-40.06
-35.14
-27.2
-17.13
-5.99
5.15
15.39
23.98
30.31
33.92
34.61
32.56
28.46
23.28
18.12
13.81
10.73
8.76
7.46
6.33
5.0
3.34
1.36
-0.86
-3.3
-6.0
-9.06
-12.64
-16.91
-22.06
-28.11
-34.84
-41.53
-47.07
-50.06
-49.34
-44.33
-35.3
-23.33
-9.96
3.28
15.18
25.01
32.38
37.12
39.19
38.69
36.04
31.96
27.41
23.32
20.34
18.66
18.05
18.0
17.92
17.3
15.89
13.66
10.76
7.48
4.02
0.45
-3.34
-7.55
-12.39
-18.0
-24.32
-31.11
-37.91
-43.97
-48.3
-49.81
-47.57
-41.17
-30.99
-18.14
-4.19
9.3
21.13
30.61
37.47
41.72
43.45
42.92
40.58
37.1
33.29
29.9
27.42
26.0
25.45
25.34
25.25
24.8
23.79
22.1
19.69
16.54
12.68
8.18
3.22
-1.95
-7.06
-11.96
-16.69
-21.51
-26.74
-32.59
-38.88
-44.98
-49.86
-52.36
-51.57
-47.08
-39.11
-28.44
-16.25
-3.8
7.78
17.63
25.19
30.22
32.76
33.07
31.59
28.92
25.72
22.63
20.15
18.55
17.86
17.86
18.17
18.4
18.19
17.33
15.75
13.51
10.76
7.69
4.46
1.12
-2.28
-5.8
-9.49
-13.41
-17.66
-22.33
-27.48
-32.93
-38.18
-42.36
-44.46
-43.64
-39.55
-32.48
-23.21
-12.74
-2.01
8.29
17.63
25.55
31.57
35.21
36.19
34.61
31.02
26.35
21.67
17.9
15.6
14.84
15.25
16.19
17.03
17.28
16.7
15.29
13.18
10.54
7.5
4.18
0.67
-3.01
-6.89
-11.09
-15.78
-21.02
-26.65
-32.15
-36.69
-39.26
-38.98
-35.38
-28.63
-19.47
-9.0
1.6
11.33
19.5
25.7
29.71
31.44
31.03
28.81
25.4
21.54
17.92
15.03
13.07
11.96
11.45
11.23
11.01
10.58
9.75
8.4
6.43
3.77
0.46
-3.38
-7.56
-11.87
-16.22
-20.61
-25.14
-29.94
-34.99
-39.98
-44.29
-47.03
-47.34
-44.59
-38.61
-29.81
-19.01
-7.3
4.25
14.7
23.3
29.5
33.01
33.86
32.51
29.76
26.61
23.94
22.23
21.53
21.49
21.64
21.56
21.0
19.89
18.24
16.2
13.91
11.55
9.21
6.88
4.41
1.66
-1.49
-5.02
-8.84
-12.89
-17.2
-21.86
-26.94
-32.35
-37.69
-42.31
-45.38
-46.11
-44.01
-38.96
-31.36
-21.94
-11.66
-1.42
8.07
16.33
23.05
28.04
31.16
32.35
31.77
29.84
27.19
24.48
22.28
20.87
20.25
20.21
20.5
20.86
21.07
20.97
20.41
19.28
17.55
15.26
12.51
9.41
6.06
2.58
-0.97
-4.5
-7.96
-11.32
-14.63
-18.0
-21.61
-25.63
-30.1
-34.82
-39.3
-42.8
-44.49
-43.77
-40.46
-34.87
-27.67
-19.67
-11.58
-3.89
3.08
9.07
13.83
17.12
18.85
19.18
18.47
17.2
15.79
14.46
13.26
12.17
11.2
10.44
10.03
10.02
10.34
10.74
10.9
10.51
9.39
7.53
5.0
1.98
-1.32
-4.68
-7.94
-11.0
-13.96
-17.0
-20.35
-24.11
-28.13
-31.99
-35.05
-36.62
-36.17
-33.47
-28.68
-22.28
-14.94
-7.42
-0.34
5.83
10.86
14.64
17.11
18.26
18.14
16.91
14.89
12.44
9.95
7.74
5.99
4.83
4.2
3.98
3.87
3.54
2.69
1.21
-0.81
-3.21
-5.79
-8.45
-11.14
-13.85
-16.59
-19.38
-22.37
-25.74
-29.53
-33.52
-37.08
-39.32
-39.39
-36.87
-31.86
-24.96
-17.01
-8.77
-0.83
6.41
12.66
17.64
21.08
22.87
23.07
22.02
20.19
18.12
16.22
14.66
13.44
12.36
11.31
10.26
9.28
8.48
7.84
7.16
6.1
4.33
1.7
-1.68
-5.48
-9.29
-12.83
-16.03
-19.13
-22.47
-26.35
-30.8
-35.5
-39.78
-42.73
-43.53
-41.65
-37.06
-30.24
-21.96
-13.05
-4.18
4.19
11.76
18.19
23.1
26.14
27.17
26.45
24.55
22.23
20.14
18.63
17.69
17.1
16.63
16.16
15.68
15.24
14.79
14.22
13.27
11.7
9.41
6.38
2.82
-0.98
-4.72
-8.16
-11.26
-14.12
-16.97
-20.1
-23.7
-27.87
-32.49
-37.23
-41.52
-44.67
-45.96
-44.85
-41.16
-35.13
-27.37
-18.69
-9.89
-1.58
5.82
12.0
16.79
20.04
21.73
22.05
21.37
20.16
18.88
17.78
16.9
16.2
15.63
15.26
15.18
15.42
15.84
16.17
16.03
15.2
13.59
11.26
8.37
5.07
1.51
-2.15
-5.76
-9.2
-12.45
-15.61
-18.87
-22.38
-26.07
-29.63
-32.49
-33.93
-33.33
-30.35
-25.01
-17.77
-9.35
-0.59
7.76
15.1
20.97
25.05
27.12
27.19
25.53
22.74
19.56
16.68
14.54
13.2
12.52
12.23
12.11
12.02
11.8
11.27
10.21
8.5
6.18
3.43
0.48
-2.56
-5.69
-8.98
-12.53
-16.39
-20.58
-25.14
-30.03
-35.03
-39.62
-43.03
-44.42
-43.19
-39.19
-32.81
-24.71
-15.65
-6.3
2.79
11.13
18.22
23.65
27.14
28.73
28.67
27.38
25.3
22.87
20.5
18.57
17.33
16.86
17.0
17.41
17.73
17.68
17.15
16.1
14.5
12.31
9.49
6.11
2.3
-1.68
-5.63
-9.45
-13.2
-17.01
-21.05
-25.43
-30.07
-34.64
-38.52
-40.95
-41.13
-38.55
-33.18
-25.43
-16.08
-5.96
4.13
13.54
21.69
28.02
32.1
33.72
33.08
30.84
27.9
25.15
23.21
22.25
22.12
22.48
23.0
23.45
23.64
23.43
22.71
21.4
19.51
17.13
14.41
11.46
8.41
5.3
2.15
-1.03
-4.37
-8.05
-12.27
-17.11
-22.53
-28.21
-33.69
-38.41
-41.83
-43.46
-42.9
-39.99
-34.8
-27.74
-19.45
-10.67
-2.07
5.81
12.58
17.94
21.67
23.64
23.93
22.91
21.1
19.13
17.43
16.25
15.59
15.33
15.33
15.44
15.56
15.57
15.33
14.73
13.65
12.04
9.88
7.25
4.31
1.27
-1.69
-4.5
-7.28
-10.24
-13.66
-17.69
-22.27
-27.07
-31.5
-34.91
-36.63
-36.19
-33.47
-28.68
-22.35
-15.13
-7.64
-0.39
6.27
12.04
16.67
19.95
21.79
22.26
21.65
20.31
18.68
17.09
15.77
14.85
14.34
14.17
14.21
14.27
14.19
13.78
12.9
11.44
9.33
6.62
3.43
-0.05
-3.62
-7.25
-11.04
-15.19
-19.82
-24.74
-29.4
-33.02
-34.78
-34.12
-30.91
-25.42
-18.22
-10.04
-1.61
6.34
13.19
18.45
21.88
23.46
23.38
22.0
19.7
16.9
13.98
11.31
9.15
7.67
6.86
6.55
6.5
6.45
6.21
5.64
4.63
3.11
1.08
-1.39
-4.12
-6.96
-9.77
-12.59
-15.55
-18.81
-22.42
-26.17
-29.59
-31.97
-32.54
-30.77
-26.49
-20.0
-11.97
-3.28
5.23
12.92
19.37
24.34
27.69
29.34
29.33
27.9
25.49
22.71
20.21
18.43
17.54
17.39
17.65
17.9
17.79
17.09
15.75
13.85
11.57
9.05
6.37
3.52
0.43
-2.93
-6.5
-10.18
-13.92
-17.8
-21.93
-26.25
-30.38
-33.56
-34.85
-33.48
-29.22
-22.45
-14.03
-4.97
3.89
11.96
18.88
24.35
28.06
29.85
29.73
28.06
25.44
22.54
19.93
17.93
16.64
15.97
15.75
15.76
15.78
15.59
15.02
14.03
12.62
10.85
8.76
6.33
3.54
0.44
-2.88
-6.32
-9.81
-13.44
-17.34
-21.62
-26.14
-30.49
-33.95
-35.79
-35.41
-32.63
-27.73
-21.28
-14.0
-6.52
0.7
7.36
13.17
17.85
21.08
22.7
22.75
21.56
19.64
17.52
15.63
14.2
13.32
12.97
13.09
13.56
14.18
14.66
14.7
14.06
12.62
10.44
7.69
4.6
1.4
-1.76
-4.79
-7.78
-10.88
-14.31
-18.15
-22.25
-26.15
-29.16
-30.59
-29.93
-27.04
-22.15
-15.79
-8.56
-1.09
6.1
12.52
17.74
21.41
23.32
23.47
22.13
19.79
17.08
14.6
12.74
11.63
11.16
11.05
11.02
10.91
10.64
10.19
9.51
8.51
7.06
5.05
2.47
-0.64
-4.26
-8.38
-13.03
-18.25
-23.98
-29.98
-35.83
-40.89
-44.4
-45.59
-43.98
-39.44
-32.38
-23.61
-14.14
-4.94
3.21
9.88
14.9
18.29
20.23
21.04
21.08
20.71
20.17
19.54
18.72
17.6
16.08
14.29
12.42
10.77
9.46
8.5
7.69
6.75
5.43
3.59
1.24
-1.47
-4.38
-7.36
-10.4
-13.58
-17.01
-20.81
-25.02
-29.5
-33.96
-37.92
-40.79
-41.92
-40.78
-37.1
-30.95
-22.85
-13.58
-4.05
4.88
12.61
18.77
23.16
25.73
26.54
25.81
24.03
21.89
20.08
19.11
19.09
19.75
20.62
21.3
21.61
21.56
21.21
20.56
19.48
17.8
15.42
12.42
8.97
5.34
1.71
-1.75
-4.96
-7.89
-10.63
-13.37
-16.39
-19.91
-24.0
-28.45
-32.75
-36.24
-38.24
-38.21
-35.91
-31.39
-25.04
-17.43
-9.2
-0.94
6.89
13.92
19.8
24.2
26.82
27.6
26.8
24.97
22.82
20.97
19.77
19.25
19.23
19.47
19.78
20.05
20.21
20.17
19.81
19.04
17.75
15.85
13.31
10.19
6.61
2.82
-0.95
-4.57
-8.06
-11.53
-15.1
-18.81
-22.65
-26.61
-30.67
-34.72
-38.4
-41.09
-41.97
-40.32
-35.9
-29.07
-20.69
-11.8
-3.27
4.43
11.14
16.84
21.44
24.74
26.54
26.84
25.87
24.16
22.34
20.95
20.33
20.48
21.17
22.0
22.63
22.83
22.54
21.82
20.76
19.41
17.75
15.72
13.29
10.47
7.26
3.69
-0.21
-4.37
-8.6
-12.64
-16.25
-19.33
-21.95
-24.39
-27.01
-30.11
-33.82
-38.06
-42.47
-46.48
-49.32
-50.24
-48.66
-44.35
-37.54
-28.85
-19.1
-9.14
0.31
8.73
15.78
21.27
25.14
27.47
28.49
28.53
27.97
27.13
26.26
25.46
24.79
24.21
23.76
23.44
23.31
23.32
23.36
23.24
22.73
21.63
19.81
17.23
13.99
10.23
6.22
2.21
-1.57
-5.02
-8.11
-10.92
-13.63
-16.41
-19.44
-22.91
-26.9
-31.38
-36.11
-40.6
-44.23
-46.32
-46.32
-43.93
-39.15
-32.28
-23.91
-14.76
-5.62
2.81
10.02
15.74
19.88
22.53
23.83
24.07
23.59
22.78
21.98
21.38
21.02
20.83
20.75
20.73
20.8
20.9
20.91
20.63
19.84
18.47
16.54
14.18
11.48
8.54
5.42
2.23
-0.89
-3.84
-6.65
-9.4
-12.24
-15.2
-18.25
-21.32
-24.4
-27.6
-31.08
-34.85
-38.66
-42.0
-44.2
-44.64
-42.95
-39.09
-33.37
-26.33
-18.58
-10.66
-2.97
4.21
10.64
16.03
19.99
22.22
22.61
21.4
19.21
16.84
14.98
14.03
14.01
14.71
15.8
17.0
18.08
18.87
19.2
18.91
17.89
16.14
13.73
10.84
7.67
4.42
1.26
-1.72
-4.51
-7.2
-9.95
-12.94
-16.29
-20.05
-24.21
-28.63
-33.1
-37.16
-40.2
-41.55
-40.64
-37.24
-31.53
-24.06
-15.57
-6.74
1.89
9.9
16.92
22.56
26.45
28.37
28.34
26.7
24.03
21.05
18.38
16.45
15.39
15.07
15.22
15.56
15.9
16.16
16.31
16.23
15.73
14.56
12.5
9.51
5.77
1.59
-2.71
-6.85
-10.67
-14.14
-17.31
-20.35
-23.52
-27.13
-31.43
-36.49
-42.01
-47.29
-51.36
-53.16
-51.89
-47.25
-39.49
-29.41
-18.06
-6.51
4.4
14.08
22.21
28.56
32.93
35.22
35.48
34.08
31.71
29.17
27.17
26.09
25.88
26.22
26.68
26.95
26.9
26.61
26.19
25.71
25.11
24.21
22.77
20.54
17.38
13.31
8.55
3.49
-1.42
-5.83
-9.61
-12.87
-15.97
-19.27
-23.09
-27.52
-32.42
-37.37
-41.69
-44.49
-44.88
-42.22
-36.32
-27.6
-16.98
-5.62
5.38
15.18
23.22
29.24
33.11
34.89
34.83
33.43
31.34
29.2
27.48
26.36
25.77
25.55
25.5
25.48
25.44
25.36
25.23
25.02
24.68
24.02
22.82
20.86
17.99
14.23
9.79
4.98
0.15
-4.53
-8.97
-13.19
-17.3
-21.45
-25.81
-30.5
-35.47
-40.35
-44.43
-46.8
-46.69
-43.7
-37.97
-30.06
-20.78
-10.89
-1.06
8.09
16.04
22.29
26.46
28.4
28.3
26.59
23.92
20.99
18.39
16.54
15.56
15.39
15.76
16.39
17.08
17.69
18.13
18.26
17.87
16.78
14.94
12.48
9.62
6.57
3.39
0.06
-3.51
-7.34
-11.38
-15.58
-19.96
-24.56
-29.27
-33.74
-37.3
-39.14
-38.62
-35.51
-30.08
-22.95
-14.88
-6.53
1.56
9.02
15.5
20.65
24.17
25.89
25.86
24.36
21.86
18.88
15.89
13.24
11.14
9.65
8.77
8.46
8.59
8.97
9.29
9.19
8.35
6.59
3.94
0.63
-3.04
-6.73
-10.25
-13.54
-16.75
-20.11
-23.86
-28.03
-32.38
-36.35
-39.09
-39.76
-37.74
-32.87
-25.54
-16.5
-6.73
2.87
11.55
18.8
24.23
27.61
28.94
28.39
26.45
23.76
20.99
18.64
16.98
16.05
15.72
15.82
16.17
16.54
16.69
16.36
15.36
13.65
11.35
8.67
5.82
2.91
-0.05
-3.14
-6.43
-9.99
-13.87
-18.12
-22.8
-27.81
-32.89
-37.45
-40.73
-41.91
-40.44
-36.2
-29.62
-21.48
-12.64
-3.87
4.31
11.59
17.69
22.34
25.27
26.36
25.79
24.02
21.7
19.44
17.66
16.49
15.84
15.61
15.69
16.03
16.5
16.92
17.0
16.44
15.02
12.73
9.7
6.21
2.59
-0.87
-3.97
-6.64
-9.01
-11.31
-13.88
-16.99
-20.74
-24.99
-29.33
-33.12
-35.61
-36.09
-34.1
-29.55
-22.82
-14.66
-5.97
2.4
9.87
16.1
20.94
24.25
25.94
26.04
24.8
22.72
20.43
18.47
17.13
16.41
16.1
15.9
15.62
15.18
14.62
14.07
13.6
13.21
12.71
11.84
10.28
7.84
4.55
0.68
-3.43
-7.48
-11.37
-15.2
-19.14
-23.35
-27.81
-32.26
-36.26
-39.24
-40.62
-39.96
-37.07
-32.09
-25.45
-17.73
-9.52
-1.37
6.24
12.87
18.03
21.32
22.56
21.89
19.82
17.07
14.38
12.34
11.23
11.02
11.44
12.11
12.66
12.88
12.73
12.28
11.61
10.68
9.3
7.31
4.64
1.52
-1.69
-4.65
-7.23
-9.62
-12.18
-15.27
-19.01
-23.27
-27.72
-31.92
-35.38
-37.58
-38.04
-36.38
-32.52
-26.69
-19.4
-11.33
-3.09
4.8
11.96
17.99
22.54
25.3
26.2
25.43
23.47
20.93
18.41
16.36
14.98
14.33
14.24
14.49
14.81
15.03
15.02
14.73
14.14
13.15
11.65
9.54
6.78
3.5
-0.1
-3.8
-7.42
-10.97
-14.55
-18.31
-22.41
-26.95
-31.87
-36.9
-41.49
-44.93
-46.49
-45.71
-42.51
-37.19
-30.32
-22.43
-13.99
-5.36
3.07
10.74
16.95
21.07
22.81
22.37
20.44
17.9
15.57
13.9
12.95
12.6
12.65
12.99
13.58
14.4
15.35
16.19
16.64
16.43
15.4
13.54
10.96
7.86
4.46
0.98
-2.45
-5.75
-8.93
-11.97
-14.91
-17.82
-20.81
-24.02
-27.55
-31.37
-35.13
-38.22
-39.88
-39.35
-36.17
-30.33
-22.27
-12.83
-2.98
6.33
14.43
20.87
25.46
28.23
29.38
29.2
28.08
26.48
24.82
23.39
22.32
21.58
21.05
20.62
20.24
19.9
19.56
19.15
18.5
17.43
15.8
13.56
10.79
7.62
4.17
0.61
-2.92
-6.31
-9.49
-12.52
-15.62
-19.05
-23.03
-27.52
-32.19
-36.43
-39.46
-40.51
-39.07
-34.96
-28.46
-20.19
-10.99
-1.74
6.8
14.1
19.88
23.96
26.33
27.06
26.41
24.76
22.63
20.47
18.62
17.25
16.34
15.89
15.85
16.2
16.85
17.63
18.23
18.33
17.71
16.28
14.11
11.38
8.3
5.05
1.72
-1.68
-5.15
-8.65
-12.05
-15.2
-17.94
-20.24
-22.2
-24.06
-26.1
-28.56
-31.53
-34.86
-38.14
-40.73
-41.9
-40.97
-37.54
-31.6
-23.59
-14.26
-4.47
4.96
13.46
20.64
26.26
30.19
32.37
32.93
32.17
30.56
28.63
26.86
25.56
24.86
24.72
24.96
25.32
25.55
25.44
24.89
23.9
22.53
20.8
18.69
16.07
12.88
9.15
5.01
0.74
-3.41
-7.24
-10.67
-13.73
-16.54
-19.28
-22.19
-25.5
-29.32
-33.49
-37.51
-40.61
-41.93
-40.84
-37.1
-30.97
-23.08
-14.24
-5.26
3.18
10.65
16.86
21.7
25.12
27.14
27.83
27.32
25.87
23.85
21.73
19.99
18.98
18.78
19.22
19.95
20.59
20.88
20.71
20.03
18.85
17.17
15.01
12.44
9.57
6.52
3.38
0.2
-3.01
-6.27
-9.54
-12.8
-16.0
-19.16
-22.34
-25.65
-29.21
-33.07
-37.13
-41.05
-44.26
-46.06
-45.84
-43.26
-38.34
-31.46
-23.17
-14.15
-5.03
3.6
11.09
16.97
20.85
22.67
22.66
21.29
19.16
16.87
14.9
13.6
13.12
13.44
14.35
15.54
16.66
17.46
17.77
17.51
16.68
15.33
13.54
11.42
9.07
6.56
3.88
0.99
-2.14
-5.44
-8.81
-12.13
-15.34
-18.42
-21.45
-24.45
-27.41
-30.23
-32.77
-34.82
-36.09
-36.25
-34.92
-31.83
-26.94
-20.44
-12.83
-4.72
3.3
10.69
17.03
21.96
25.2
26.64
26.34
24.66
22.2
19.67
17.72
16.69
16.58
17.11
17.88
18.56
19.03
19.29
19.38
19.18
18.46
16.97
14.55
11.36
7.74
4.13
0.81
-2.16
-4.93
-7.7
-10.61
-13.76
-17.13
-20.73
-24.52
-28.35
-31.87
-34.5
-35.61
-34.69
-31.52
-26.25
-19.37
-11.51
-3.35
4.55
11.77
18.02
23.03
26.55
28.36
28.4
26.85
24.18
21.09
18.28
16.25
15.17
14.87
15.07
15.45
15.82
16.04
15.94
15.35
14.1
12.11
9.44
6.27
2.82
-0.71
-4.17
-7.47
-10.56
-13.48
-16.35
-19.35
-22.71
-26.56
-30.9
-35.52
-39.99
-43.71
-46.0
-46.18
-43.84
-38.93
-31.85
-23.35
-14.3
-5.42
2.76
9.96
16.03
20.75
23.94
25.46
25.4
24.07
21.99
19.76
17.87
16.65
16.18
16.36
16.94
17.67
18.3
18.69
18.73
18.36
17.48
16.0
13.82
10.97
7.55
3.77
-0.08
-3.77
-7.15
-10.18
-12.94
-15.61
-18.45
-21.72
-25.6
-30.08
-34.83
-39.27
-42.63
-44.17
-43.31
-39.9
-34.14
-26.55
-17.84
-8.75
0.03
7.92
14.46
19.37
22.47
23.8
23.56
22.12
20.0
17.75
15.85
14.63
14.14
14.27
14.74
15.31
15.82
16.19
16.41
16.4
15.99
14.95
13.13
10.47
7.14
3.43
-0.31
-3.79
-6.88
-9.59
-12.08
-14.55
-17.17
-20.11
-23.38
-26.94
-30.59
-33.98
-36.6
-37.85
-37.18
-34.25
-29.03
-21.88
-13.41
-4.37
4.47
12.49
19.13
24.03
26.99
28.05
27.48
25.78
23.55
21.33
19.54
18.36
17.76
17.61
17.68
17.8
17.87
17.82
17.57
16.99
15.93
14.23
11.83
8.75
5.18
1.37
-2.41
-6.04
-9.54
-13.07
-16.87
-21.1
-25.71
-30.44
-34.79
-38.11
-39.75
-39.22
-36.26
-30.98
-23.77
-15.28
-6.25
2.58
10.58
17.27
22.28
25.38
26.51
25.83
23.8
21.05
18.25
15.92
14.25
13.21
12.64
12.37
12.34
12.5
12.7
12.68
12.13
10.78
8.61
5.77
2.51
-0.92
-4.39
-7.87
-11.35
-14.86
-18.48
-22.29
-26.43
-30.98
-35.82
-40.56
-44.62
-47.29
-47.97
-46.32
-42.26
-36.01
-28.03
-18.9
-9.24
0.28
9.08
16.64
22.56
26.57
28.52
28.58
27.14
24.91
22.69
21.16
20.71
21.27
22.48
23.82
24.89
25.45
25.47
25.01
24.1
22.7
20.75
18.18
14.95
11.17
6.98
2.61
-1.68
-5.68
-9.27
-12.48
-15.5
-18.63
-22.18
-26.34
-31.02
-35.82
-39.98
-42.65
-43.07
-40.84
-36.08
-29.32
-21.32
-12.77
-4.21
4.03
11.61
18.12
23.08
26.11
27.1
26.35
24.45
22.15
20.1
18.72
18.17
18.39
19.16
20.21
21.26
22.06
22.48
22.46
21.92
20.76
18.87
16.21
12.85
9.04
5.13
1.4
-1.97
-4.95
-7.62
-10.07
-12.45
-14.89
-17.59
-20.69
-24.32
-28.35
-32.43
-35.94
-38.13
-38.26
-35.85
-30.8
-23.51
-14.75
-5.44
3.63
11.91
19.1
25.01
29.4
32.05
32.82
31.87
29.77
27.22
24.93
23.29
22.35
21.95
21.85
21.94
22.15
22.45
22.74
22.78
22.27
20.9
18.49
15.03
10.76
6.1
1.55
-2.47
-5.78
-8.55
-11.11
-13.84
-17.02
-20.78
-25.11
-29.83
-34.57
-38.69
-41.36
-41.77
-39.38
-34.17
-26.67
-17.72
-8.22
1.07
9.64
17.09
23.09
27.34
29.65
30.07
28.91
26.71
24.1
21.67
19.85
18.83
18.6
18.91
19.43
19.83
19.93
19.67
19.11
18.27
17.13
15.54
13.4
10.66
7.4
3.78
-0.04
-3.93
-7.76
-11.43
-14.81
-17.85
-20.66
-23.51
-26.76
-30.7
-35.28
-40.05
-44.17
-46.69
-46.79
-44.04
-38.52
-30.7
-21.28
-11.06
-0.81
8.74
16.98
23.43
27.84
30.19
30.8
30.18
28.91
27.52
26.36
25.59
25.21
25.1
25.15
25.28
25.44
25.56
25.57
25.33
24.73
23.65
22.02
19.82
17.05
13.72
9.9
5.72
1.49
-2.51
-5.99
-8.86
-11.23
-13.32
-15.38
-17.56
-19.92
-22.51
-25.48
-29.02
-33.28
-38.11
-43.0
-47.09
-49.39
-49.09
-45.81
-39.72
-31.43
-21.87
-12.0
-2.65
5.61
12.45
17.73
21.42
23.58
24.33
23.98
22.9
21.58
20.43
19.72
19.51
19.75
20.28
20.96
21.64
22.12
22.2
21.72
20.65
19.06
17.07
14.78
12.14
9.09
5.62
1.87
-1.86
-5.31
-8.3
-10.83
-13.03
-15.06
-17.04
-19.08
-21.31
-23.87
-26.86
-30.19
-33.51
-36.26
-37.75
-37.43
-34.99
-30.44
-24.13
-16.61
-8.5
-0.38
7.29
14.18
19.99
24.47
27.43
28.81
28.73
27.63
26.04
24.51
23.41
22.84
22.68
22.75
22.91
23.09
23.27
23.32
23.05
22.21
20.59
18.16
15.03
11.47
7.74
4.09
0.67
-2.43
-5.17
-7.6
-9.8
-11.93
-14.19
-16.75
-19.77
-23.27
-27.18
-31.27
-35.14
-38.18
-39.77
-39.31
-36.5
-31.45
-24.62
-16.77
-8.63
-0.84
6.22
12.32
17.29
20.99
23.26
24.1
23.66
22.3
20.45
18.51
16.8
15.54
14.82
14.63
14.84
15.23
15.57
15.66
15.37
14.64
13.38
11.51
9.01
5.92
2.43
-1.1
-4.41
-7.34
-9.98
-12.51
-15.1
-17.8
-20.58
-23.43
-26.42
-29.68
-33.27
-37.06
-40.62
-43.36
-44.61
-43.83
-40.83
-35.7
-28.91
-21.09
-12.9
-4.89
2.54
9.18
14.85
19.38
22.63
24.5
25.06
24.54
23.28
21.67
20.03
18.68
17.84
17.65
18.06
18.82
19.55
19.89
19.63
18.76
17.36
15.44
12.95
9.81
6.09
2.06
-1.86
-5.33
-8.25
-10.76
-13.16
-15.67
-18.45
-21.51
-24.91
-28.72
-33.01
-37.68
-42.38
-46.55
-49.54
-50.82
-50.03
-47.09
-42.22
-35.81
-28.39
-20.48
-12.55
-4.86
2.31
8.7
13.98
17.78
19.86
20.26
19.33
17.6
15.63
13.89
12.7
12.25
12.58
13.63
15.18
16.9
18.44
19.48
19.82
19.39
18.2
16.3
13.82
10.9
7.74
4.53
1.41
-1.59
-4.47
-7.29
-10.13
-13.06
-16.15
-19.44
-22.92
-26.52
-30.08
-33.37
-36.05
-37.7
-37.89
-36.26
-32.67
-27.28
-20.48
-12.83
-4.92
2.78
9.88
16.05
21.0
24.45
26.26
26.49
25.45
23.61
21.5
19.62
18.27
17.57
17.43
17.64
17.95
18.15
18.11
17.76
16.98
15.64
13.58
10.74
7.23
3.29
-0.74
-4.53
-7.92
-10.92
-13.71
-16.53
-19.63
-23.16
-27.15
-31.42
-35.6
-39.14
-41.35
-41.63
-39.57
-35.1
-28.54
-20.5
-11.77
-3.12
4.83
11.7
17.3
21.59
24.54
26.15
26.47
25.65
24.01
21.99
20.05
18.55
17.67
17.39
17.53
17.84
18.05
17.99
17.54
16.66
15.33
13.52
11.16
8.15
4.49
0.31
-4.1
-8.34
-12.1
-15.3
-18.15
-21.03
-24.36
-28.36
-33.03
-38.02
-42.73
-46.42
-48.34
-47.88
-44.75
-39.03
-31.18
-21.87
-11.83
-1.72
7.84
16.32
23.2
28.1
30.82
31.53
30.66
28.85
26.74
24.86
23.53
22.9
22.91
23.32
23.86
24.21
24.17
23.69
22.78
21.51
19.87
17.72
14.96
11.57
7.7
3.58
-0.49
-4.36
-8.0
-11.49
-14.95
-18.5
-22.24
-26.25
-30.52
-34.87
-38.93
-42.1
-43.71
-43.2
-40.28
-34.96
-27.63
-18.83
-9.19
0.58
9.75
17.63
23.59
27.33
28.87
28.61
27.18
25.25
23.36
21.9
21.02
20.7
20.83
21.19
21.58
21.84
21.86
21.6
21.03
20.09
18.68
16.7
14.13
11.01
7.53
3.9
0.26
-3.29
-6.73
-10.07
-13.3
-16.43
-19.54
-22.76
-26.19
-29.83
-33.44
-36.48
-38.24
-38.02
-35.37
-30.24
-23.01
-14.36
-5.09
4.08
12.55
19.87
25.68
29.71
31.82
32.1
30.9
28.81
26.49
24.51
23.15
22.41
22.09
21.96
21.89
21.87
21.92
21.94
21.66
20.75
18.97
16.26
12.85
9.06
5.22
1.52
-2.04
-5.48
-8.89
-12.36
-15.97
-19.82
-23.99
-28.41
-32.79
-36.6
-39.16
-39.81
-38.09
-33.84
-27.33
-19.13
-10.05
-0.92
