0
37.18
36.34
35.09
33.57
31.94
30.24
28.38
26.18
23.41
19.9
15.6
10.59
5.11
-0.53
-6.03
-11.12
-15.65
-19.6
-23.06
-26.3
-29.72
-33.84
-39.21
-46.14
-54.36
-62.77
-69.56
-72.55
-69.99
-61.23
-47.03
-29.38
-10.88
6.09
19.96
30.15
36.86
40.72
42.4
42.45
41.27
39.26
36.82
34.45
32.68
31.86
32.09
33.13
34.45
35.44
35.66
34.93
33.33
31.1
28.48
25.61
22.51
19.17
15.49
11.4
6.84
1.89
-3.24
-8.19
-12.6
-16.25
-19.18
-21.68
-24.17
-27.08
-30.79
-35.55
-41.46
-48.22
-54.98
-60.25
-62.26
-59.45
-51.16
-37.96
-21.59
-4.38
11.46
24.38
33.73
39.53
42.16
42.06
39.72
35.71
30.82
25.97
22.06
19.64
18.76
19.04
19.79
20.42
20.58
20.25
19.63
18.89
18.02
16.76
14.69
11.42
6.83
1.14
-5.11
-11.2
-16.54
-20.84
-24.28
-27.43
-31.09
-35.94
-42.28
-49.71
-57.05
-62.61
-64.55
-61.54
-53.23
-40.43
-24.9
-8.8
5.89
17.86
26.61
32.23
35.16
35.9
34.89
32.63
29.65
26.61
24.11
22.56
22.04
22.28
22.85
23.33
23.52
23.38
23.0
22.36
21.3
19.52
16.75
12.88
8.05
2.62
-2.94
-8.2
-12.97
-17.33
-21.68
-26.68
-32.99
-40.9
-49.96
-58.84
-65.57
-68.05
-64.86
-55.75
-41.83
-25.17
-8.19
7.07
19.36
28.3
34.15
37.46
38.81
38.65
37.36
35.28
32.83
30.49
28.67
27.61
27.25
27.24
27.11
26.52
25.46
24.21
23.17
22.5
21.95
20.89
18.61
14.68
9.2
2.81
-3.61
-9.29
-13.84
-17.35
-20.33
-23.51
-27.67
-33.36
-40.73
-49.27
-57.72
-64.27
-66.97
-64.38
-56.12
-43.07
-27.14
-10.62
4.46
16.79
25.91
32.05
35.76
37.65
38.27
38.05
37.33
36.39
35.5
34.8
34.4
34.32
34.5
34.78
35.01
34.99
34.55
33.59
32.03
29.85
27.09
23.85
20.25
16.43
12.47
8.36
4.06
-0.44
-5.06
-9.62
-13.91
-17.77
-21.19
-24.3
-27.4
-30.9
-35.3
-40.98
-48.08
-56.07
-63.73
-69.2
-70.51
-66.25
-56.19
-41.51
-24.43
-7.5
7.21
18.62
26.63
31.85
35.07
36.89
37.62
37.43
36.46
35.04
33.6
32.52
32.0
31.97
32.18
32.31
32.16
31.71
31.11
30.52
29.96
29.22
27.98
25.92
22.93
19.18
15.1
11.18
7.84
5.22
3.19
1.35
-0.79
-3.61
-7.22
-11.38
-15.66
-19.51
-22.64
-25.01
-27.0
-29.22
-32.36
-36.98
-43.24
-50.75
-58.47
-64.8
-67.98
-66.61
-60.17
-49.26
-35.41
-20.59
-6.62
5.29
14.61
21.38
25.83
28.22
28.77
27.75
25.63
23.08
20.92
19.81
20.14
21.77
24.16
26.5
28.0
28.24
27.2
25.22
22.75
20.13
17.39
14.34
10.72
6.37
1.37
-3.98
-9.26
-14.02
-18.01
-21.2
-23.81
-26.28
-29.17
-32.99
-37.99
-43.97
-50.17
-55.34
-58.07
-57.19
-52.18
-43.35
-31.71
-18.72
-5.79
5.89
15.56
22.87
27.74
30.32
30.92
29.93
27.86
25.27
22.69
20.57
19.15
18.45
18.25
18.19
17.96
17.41
16.55
15.47
14.16
12.42
9.98
6.6
2.32
-2.59
-7.63
-12.34
-16.45
-20.0
-23.3
-26.88
-31.32
-36.95
-43.63
-50.54
-56.26
-59.13
-57.79
-51.77
-41.62
-28.82
-15.2
-2.46
8.3
16.6
22.49
26.24
28.25
28.88
28.57
27.74
26.79
26.01
25.46
25.06
24.61
23.94
22.96
21.74
20.43
19.17
18.02
16.82
15.23
12.82
9.29
4.57
-1.06
-7.05
-12.76
-17.69
-21.7
-25.08
-28.49
-32.73
-38.36
-45.34
-52.92
-59.6
-63.59
-63.3
-57.95
-47.86
-34.42
-19.67
-5.66
6.19
15.32
21.96
26.73
30.22
32.69
34.15
34.53
33.97
32.89
31.83
31.2
31.08
31.16
30.96
30.13
28.59
26.62
24.65
23.01
21.8
20.72
19.32
17.08
13.69
9.19
3.96
-1.43
-6.41
-10.65
-14.19
-17.39
-20.84
-25.12
-30.65
-37.55
-45.5
-53.68
-60.77
-65.18
-65.44
-60.71
-51.16
-37.97
-23.01
-8.25
4.78
15.37
23.48
29.53
33.95
37.03
38.89
39.66
39.6
39.16
38.8
38.84
39.3
39.92
40.37
40.4
39.98
39.21
38.2
36.9
35.17
32.8
29.75
26.16
22.26
18.32
14.43
10.53
6.48
2.14
-2.49
-7.3
-12.03
-16.44
-20.34
-23.7
-26.7
-29.65
-33.03
-37.32
-42.82
-49.43
-56.47
-62.66
-66.35
-65.93
-60.48
-50.12
-36.07
-20.34
-5.08
8.01
18.08
25.11
29.65
32.41
33.97
34.65
34.57
33.82
32.65
31.42
30.5
30.14
30.3
30.7
30.96
30.72
29.89
28.52
26.83
25.01
23.11
21.09
18.81
16.08
12.79
8.92
4.57
-0.01
-4.53
-8.72
-12.41
-15.6
-18.41
-21.1
-23.96
-27.34
-31.55
-36.69
-42.45
-47.96
-51.9
-52.86
-49.8
-42.54
-31.89
-19.35
-6.68
4.7
14.0
21.02
25.9
28.87
30.1
29.81
28.31
26.16
23.96
22.28
21.41
21.27
21.55
21.81
21.72
21.18
20.3
19.29
18.31
17.36
16.25
14.64
12.17
8.67
4.21
-0.85
-6.0
-10.75
-14.84
-18.32
-21.53
-24.98
-29.15
-34.38
-40.65
-47.56
-54.19
-59.25
-61.34
-59.4
-53.08
-42.95
-30.34
-16.98
-4.41
6.37
14.93
21.29
25.66
28.28
29.37
29.26
28.37
27.2
26.19
25.61
25.49
25.68
25.91
25.91
25.47
24.49
23.02
21.22
19.29
17.33
15.31
12.96
9.98
6.15
1.57
-3.35
-8.02
-11.95
-14.96
-17.3
-19.54
-22.4
-26.46
-31.99
-38.87
-46.47
-53.72
-59.18
-61.43
-59.42
-52.89
-42.5
-29.75
-16.41
-4.06
6.32
14.41
20.42
24.78
27.85
29.84
30.9
31.15
30.84
30.23
29.61
29.18
29.05
29.22
29.59
30.03
30.31
30.27
29.75
28.69
27.13
25.15
22.81
20.18
17.22
13.94
10.31
6.39
2.27
-1.94
-6.15
-10.26
-14.21
-17.99
-21.65
-25.33
-29.22
-33.59
-38.7
-44.68
-51.28
-57.78
-62.91
-65.17
-63.29
-56.75
-46.06
-32.68
-18.55
-5.46
5.43
13.77
19.85
24.2
27.3
29.41
30.66
31.21
31.31
31.28
31.42
31.88
32.63
33.49
34.3
35.01
35.67
36.33
36.98
37.41
37.32
36.44
34.67
32.13
29.07
25.82
22.55
19.37
16.31
13.32
10.42
7.6
4.86
2.11
-0.7
-3.62
-6.66
-9.78
-12.97
-16.21
-19.49
-22.8
-26.09
-29.32
-32.52
-35.86
-39.66
-44.31
-50.05
-56.71
-63.5
-69.09
-71.9
-70.61
-64.7
-54.62
-41.73
-27.8
-14.54
-3.1
6.03
12.88
17.75
20.94
22.69
23.17
22.69
21.63
20.55
19.94
20.11
21.11
22.72
24.55
26.23
27.53
28.34
28.65
28.48
27.81
26.59
24.83
22.55
19.82
16.65
13.05
9.03
4.69
0.24
-4.05
-7.92
-11.24
-14.08
-16.66
-19.29
-22.3
-26.01
-30.61
-36.08
-42.04
-47.62
-51.57
-52.63
-49.94
-43.41
-33.8
-22.48
-10.95
-0.39
8.52
15.61
20.92
24.57
26.6
27.1
26.29
24.62
22.67
21.05
20.18
20.22
20.92
21.82
22.38
22.27
21.45
20.15
18.75
17.48
16.36
15.1
13.32
10.75
7.35
3.34
-0.94
-5.13
-9.03
-12.6
-15.9
-19.02
-22.09
-25.32
-29.02
-33.59
-39.25
-45.84
-52.56
-58.08
-60.87
-59.75
-54.29
-45.05
-33.33
-20.75
-8.76
1.67
10.16
16.71
21.53
24.83
26.78
27.49
27.13
26.03
24.62
23.39
22.75
22.82
23.46
24.26
24.76
24.65
23.84
22.52
20.91
19.18
17.34
15.24
12.75
9.73
6.21
2.25
-1.93
-6.12
-10.07
-13.64
-16.77
-19.63
-22.49
-25.74
-29.78
-34.91
-41.15
-48.11
-54.88
-60.12
-62.36
-60.45
-53.99
-43.58
-30.63
-16.91
-4.03
6.99
15.78
22.46
27.35
30.74
32.85
33.83
33.93
33.48
32.84
32.36
32.23
32.45
32.82
33.01
32.71
31.77
30.22
28.33
26.42
24.73
23.28
21.8
19.87
17.07
13.22
8.45
3.15
-2.13
-6.94
-11.06
-14.55
-17.73
-21.05
-25.01
-30.08
-36.54
-44.28
-52.59
-60.13
-65.18
-66.15
-62.15
-53.39
-41.12
-27.25
-13.64
-1.62
8.25
16.03
22.06
26.62
29.91
31.97
32.93
33.05
32.7
32.25
32.04
32.19
32.62
33.12
33.42
33.29
32.64
31.55
30.19
28.7
27.1
25.22
22.78
19.49
15.25
10.25
4.91
-0.25
-4.83
-8.66
-11.88
-14.83
-17.92
-21.53
-25.94
-31.34
-37.75
-44.81
-51.7
-57.08
-59.47
-57.7
-51.41
-41.25
-28.71
-15.62
-3.55
6.56
14.47
20.4
24.68
27.6
29.28
29.87
29.55
28.67
27.66
26.87
26.52
26.55
26.71
26.67
26.17
25.22
24.04
22.94
22.09
21.36
20.34
18.51
15.55
11.54
6.92
2.32
-1.76
-5.15
-8.05
-10.89
-14.14
-18.19
-23.33
-29.61
-36.79
-44.11
-50.36
-54.06
-53.93
-49.36
-40.7
-29.2
-16.6
-4.56
5.74
13.82
19.75
23.9
26.62
28.18
28.71
28.33
27.26
25.78
24.25
22.98
22.15
21.77
21.7
21.75
21.69
21.37
20.6
19.21
16.98
13.76
9.54
4.52
-0.87
-6.14
-10.9
-15.02
-18.79
-22.73
-27.5
-33.56
-40.85
-48.61
-55.44
-59.6
-59.53
-54.38
-44.38
-30.82
-15.68
-1.02
11.58
21.36
28.32
32.93
35.74
37.15
37.38
36.57
35.0
33.09
31.28
29.88
28.96
28.36
27.81
27.09
26.13
24.92
23.42
21.47
18.79
15.16
10.54
5.2
-0.39
-5.74
-10.57
-14.91
-19.08
-23.59
-28.93
-35.43
-43.01
-50.99
-58.03
-62.43
-62.54
-57.38
-47.15
-33.19
-17.59
-2.5
10.57
20.95
28.74
34.35
38.22
40.64
41.78
41.88
41.24
40.19
38.98
37.7
36.36
34.93
33.42
31.87
30.39
29.08
28.02
27.17
26.34
25.14
23.06
19.67
14.82
8.85
2.41
-3.72
-9.02
-13.42
-17.31
-21.35
-26.26
-32.55
-40.32
-49.06
-57.63
-64.32
-67.32
-65.23
-57.66
-45.45
-30.48
-14.99
-0.89
10.72
19.64
26.23
31.0
34.31
36.34
37.24
37.26
36.78
36.17
35.71
35.41
35.06
34.39
33.21
31.51
29.48
27.44
25.62
24.04
22.42
20.29
17.21
12.94
7.67
1.88
-3.76
-8.7
-12.72
-15.98
-18.95
-22.27
-26.51
-32.03
-38.73
-45.94
-52.39
-56.45
-56.58
-51.92
-42.62
-29.89
-15.62
-1.82
9.98
18.97
25.08
28.73
30.5
30.9
30.3
29.02
27.35
25.6
24.03
22.8
21.87
21.08
20.21
19.09
17.72
16.14
14.4
12.43
10.07
7.14
3.59
-0.47
-4.82
-9.2
-13.51
-17.81
-22.29
-27.24
-32.91
-39.33
-46.17
-52.55
-57.17
-58.54
-55.53
-47.76
-35.93
-21.62
-6.88
6.4
17.02
24.57
29.37
32.04
33.21
33.27
32.4
30.73
28.44
25.86
23.43
21.53
20.37
19.91
19.84
19.75
19.25
18.01
15.92
12.99
9.38
5.28
0.87
-3.71
-8.42
-13.33
-18.62
-24.49
-31.15
-38.64
-46.65
-54.36
-60.47
-63.45
-61.97
-55.42
-44.22
-29.77
-14.1
0.78
13.36
22.93
29.52
33.6
35.77
36.56
36.34
35.37
33.91
32.19
30.44
28.85
27.49
26.33
25.29
24.28
23.21
22.03
20.66
18.95
16.66
13.56
9.58
4.88
-0.15
-5.05
-9.5
-13.48
-17.36
-21.76
-27.28
-34.23
-42.37
-50.74
-57.8
-61.73
-61.03
-55.02
-44.15
-29.93
-14.48
0.14
12.5
21.97
28.68
33.13
35.82
37.11
37.2
36.27
34.63
32.69
30.9
29.54
28.63
27.94
27.09
25.83
24.13
22.3
20.73
19.7
19.11
18.46
17.07
14.35
10.16
4.82
-0.97
-6.45
-11.06
-14.65
-17.4
-19.73
-22.2
-25.36
-29.7
-35.47
-42.42
-49.66
-55.69
-58.76
-57.49
-51.35
-40.96
-27.88
-14.02
-1.09
9.84
18.36
24.55
28.7
31.05
31.83
31.31
29.88
28.04
26.31
25.02
24.31
24.02
23.87
23.54
22.81
21.68
20.31
18.9
17.58
16.32
14.85
12.79
9.82
5.86
1.16
-3.75
-8.26
-11.92
-14.66
-16.84
-19.08
-22.07
-26.29
-31.85
-38.37
-45.01
-50.53
-53.58
-53.01
-48.27
-39.6
-28.06
-15.27
-2.92
7.63
15.64
20.94
23.84
24.77
24.2
22.54
20.19
17.52
14.93
12.74
11.15
10.23
9.92
10.12
10.63
11.22
11.66
11.69
11.12
9.85
7.93
5.5
2.72
-0.22
-3.23
-6.27
-9.35
-12.61
-16.27
-20.7
-26.2
-32.8
-40.0
-46.66
-51.28
-52.33
-48.94
-41.17
-30.1
-17.49
-5.23
5.25
13.21
18.65
22.04
23.91
24.62
24.29
22.95
20.81
18.27
15.97
14.53
14.31
15.15
16.51
17.64
17.9
17.01
15.01
12.16
8.77
5.05
1.12
-3.0
-7.26
-11.66
-16.28
-21.32
-27.02
-33.5
-40.51
-47.26
-52.5
-54.77
-52.91
-46.48
-36.01
-22.94
-9.16
3.48
13.72
21.06
25.71
28.22
29.2
29.05
28.01
26.27
24.08
21.8
19.82
18.44
17.74
17.6
17.73
17.76
17.36
16.25
14.32
11.52
7.98
3.88
-0.54
-5.05
-9.55
-14.06
-18.69
-23.68
-29.27
-35.61
-42.54
-49.44
-55.15
-58.19
-57.22
-51.59
-41.62
-28.65
-14.57
-1.27
9.93
18.48
24.5
28.42
30.68
31.63
31.51
30.61
29.23
27.69
26.15
24.69
23.25
21.82
20.46
19.32
18.51
18.0
17.51
16.61
14.87
12.05
8.19
3.58
-1.39
-6.38
-11.24
-15.96
-20.75
-25.95
-31.96
-39.01
-46.92
-54.89
-61.46
-64.92
-63.78
-57.41
-46.34
-32.09
-16.72
-2.15
10.33
20.21
27.64
33.03
36.77
39.08
40.04
39.79
38.65
37.07
35.54
34.34
33.46
32.61
31.37
29.54
27.2
24.76
22.66
21.13
19.99
18.7
16.63
13.32
8.78
3.36
-2.29
-7.57
-12.1
-15.85
-19.11
-22.41
-26.34
-31.41
-37.81
-45.21
-52.66
-58.73
-61.8
-60.6
-54.64
-44.42
-31.28
-17.02
-3.35
8.54
18.09
25.28
30.42
33.87
35.91
36.72
36.51
35.56
34.27
33.09
32.36
32.19
32.4
32.55
32.2
31.09
29.29
27.14
25.05
23.29
21.8
20.24
18.15
15.13
11.06
6.19
1.0
-3.97
-8.34
-12.04
-15.32
-18.64
-22.54
-27.47
-33.61
-40.79
-48.35
-55.18
-59.88
-61.11
-58.01
-50.52
-39.44
-26.24
-12.57
0.13
10.92
19.33
25.28
28.83
30.19
29.73
28.04
25.79
23.69
22.15
21.34
21.11
21.13
21.13
20.91
20.47
19.9
19.31
18.7
17.89
16.6
14.47
11.31
7.19
2.47
-2.31
-6.7
-10.45
-13.68
-16.79
-20.3
-24.68
-30.21
-36.77
-43.73
-49.95
-53.97
-54.37
-50.32
-41.96
-30.41
-17.45
-4.87
5.98
14.47
20.62
24.72
27.11
28.0
27.59
26.12
23.96
21.57
19.36
17.65
16.55
16.01
15.85
15.78
15.45
14.61
13.04
10.69
7.65
4.06
0.08
-4.08
-8.24
-12.22
-15.92
-19.46
-23.16
-27.57
-33.09
-39.69
-46.61
-52.41
-55.34
-54.01
-47.85
-37.49
-24.41
-10.53
2.44
13.34
21.69
27.54
31.15
32.83
32.89
31.63
29.41
26.7
23.93
21.5
19.59
18.21
17.18
16.24
15.1
13.56
11.52
8.99
6.08
2.88
-0.49
-3.96
-7.53
-11.22
-15.09
-19.26
-23.91
-29.27
-35.47
-42.34
-49.23
-54.94
-57.98
-57.04
-51.42
-41.46
-28.43
-14.22
-0.74
10.62
19.2
25.13
28.91
31.19
32.39
32.74
32.28
31.08
29.35
27.44
25.75
24.51
23.73
23.2
22.59
21.61
20.11
18.12
15.68
12.83
9.56
5.83
1.67
-2.81
-7.4
-11.91
-16.36
-21.02
-26.35
-32.8
-40.41
-48.52
-55.71
-60.13
-60.15
-54.98
-45.0
-31.68
-17.04
-2.99
9.18
18.91
26.23
31.4
34.69
36.26
36.35
35.33
33.75
32.2
31.1
30.58
30.46
30.35
29.89
28.9
27.49
25.91
24.38
22.95
21.41
19.37
16.5
12.61
7.86
2.61
-2.65
-7.49
-11.76
-15.54
-19.21
-23.32
-28.44
-34.88
-42.5
-50.53
-57.6
-62.02
-62.26
-57.51
-48.0
-34.98
-20.32
-5.94
6.73
17.04
24.96
30.86
35.14
38.04
39.68
40.14
39.67
38.65
37.5
36.54
35.9
35.5
35.17
34.72
34.05
33.09
31.84
30.31
28.48
26.34
23.89
21.17
18.2
15.0
11.56
7.88
3.98
-0.11
-4.32
-8.54
-12.62
-16.46
-19.98
-23.26
-26.6
-30.55
-35.62
-42.14
-49.82
-57.61
-63.84
-66.69
-64.83
-57.89
-46.64
-32.73
-18.14
-4.64
6.65
15.3
21.49
25.67
28.34
29.84
30.38
30.09
29.15
27.87
26.69
26.03
26.12
26.91
28.08
29.19
29.89
30.01
29.55
28.62
27.35
25.75
23.81
21.46
18.64
15.27
11.35
6.97
2.32
-2.34
-6.75
-10.78
-14.45
-17.92
-21.39
-25.12
-29.35
-34.31
-40.1
-46.41
-52.41
-56.73
-57.83
-54.58
-46.72
-35.14
-21.51
-7.76
4.55
14.53
21.98
27.07
30.01
31.04
30.4
28.54
26.13
23.91
22.49
22.07
22.46
23.12
23.54
23.35
22.58
21.47
20.33
19.29
18.13
16.38
13.52
9.3
3.9
-2.08
-7.84
-12.73
-16.44
-19.13
-21.38
-23.93
-27.47
-32.44
-38.78
-45.9
-52.65
-57.52
-59.02
-56.12
-48.68
-37.53
-24.29
-10.83
1.28
11.12
18.49
23.64
26.98
28.83
29.39
28.85
27.47
25.66
23.83
22.31
21.19
20.39
19.72
19.04
18.32
17.57
16.76
15.72
14.16
11.74
8.29
3.91
-1.04
-6.04
-10.62
-14.55
-17.9
-21.06
-24.6
-29.07
-34.82
-41.68
-48.83
-54.86
-58.1
-57.17
-51.46
-41.41
-28.43
-14.36
-0.94
10.59
19.68
26.31
30.71
33.15
33.91
33.32
31.85
30.0
28.25
26.83
25.72
24.73
23.63
22.34
20.99
19.77
18.83
18.07
17.2
15.82
13.57
10.32
6.15
1.36
-3.66
-8.58
-13.17
-17.45
-21.66
-26.3
-31.91
-38.76
-46.55
-54.22
-60.15
-62.56
-60.18
-52.77
-41.18
-27.11
-12.56
0.79
11.92
20.46
26.57
30.61
33.01
34.16
34.42
34.1
33.49
32.8
32.12
31.47
30.76
29.86
28.71
27.35
25.92
24.61
23.5
22.4
20.9
18.47
14.77
9.83
4.07
-1.82
-7.27
-12.0
-16.11
-20.03
-24.34
-29.52
-35.87
-43.2
-50.82
-57.43
-61.46
-61.46
-56.69
-47.41
-34.89
-20.89
-7.17
5.07
15.29
23.45
29.7
34.19
36.94
38.04
37.75
36.55
35.1
33.93
33.31
33.17
33.12
32.75
31.78
30.28
28.55
26.94
25.63
24.47
23.04
20.87
17.67
13.41
8.41
3.15
-1.85
-6.23
-9.85
-12.88
-15.72
-18.92
-23.09
-28.68
-35.69
-43.5
-50.84
-55.98
-57.29
-53.78
-45.51
-33.62
-20.0
-6.55
5.26
14.76
21.9
26.97
30.28
32.03
32.41
31.67
30.21
28.5
26.94
25.76
24.99
24.47
24.06
23.62
23.12
22.53
21.8
20.79
19.27
17.01
13.86
9.85
5.22
0.38
-4.26
-8.38
-12.01
-15.44
-19.21
-23.87
-29.77
-36.79
-44.16
-50.57
-54.39
-54.2
-49.3
-40.0
-27.6
-13.95
-0.98
9.94
18.22
23.89
27.38
29.17
29.59
28.92
27.45
25.54
23.61
22.02
20.97
20.43
20.23
20.15
19.96
19.54
18.77
17.52
15.65
13.01
9.54
5.3
0.51
-4.52
-9.49
-14.16
-18.46
-22.59
-26.92
-31.93
-37.93
-44.82
-51.84
-57.7
-60.81
-59.88
-54.36
-44.71
-32.25
-18.69
-5.64
5.75
14.98
21.99
26.98
30.21
31.97
32.56
32.35
31.71
30.95
30.24
29.57
28.72
27.47
25.68
23.44
21.05
18.91
17.3
16.21
15.25
13.83
11.41
7.75
3.08
-2.05
-7.0
-11.29
-14.79
-17.72
-20.58
-23.97
-28.48
-34.43
-41.69
-49.48
-56.39
-60.7
-60.83
-55.99
-46.49
-33.66
-19.42
-5.68
6.22
15.71
22.84
28.03
31.69
34.16
35.61
36.17
36.0
35.35
34.52
33.81
33.45
33.54
33.94
34.38
34.49
33.96
32.68
30.71
28.26
25.54
22.66
19.62
16.36
12.8
8.96
4.91
0.72
-3.5
-7.66
-11.69
-15.47
-18.97
-22.3
-25.71
-29.64
-34.6
-40.93
-48.54
-56.75
-64.24
-69.35
-70.48
-66.66
-57.85
-45.1
-30.2
-15.23
-1.92
8.76
16.68
22.29
26.28
29.14
31.03
31.94
31.89
31.1
30.02
29.12
28.73
28.87
29.33
29.78
29.96
29.72
29.05
28.04
26.77
25.33
23.73
21.85
19.5
16.45
12.58
8.03
3.13
-1.72
-6.17
-10.14
-13.69
-17.02
-20.33
-23.84
-27.81
-32.56
-38.38
-45.2
-52.41
-58.72
-62.46
-62.1
-56.88
-47.11
-34.1
-19.76
-5.93
6.07
15.62
22.69
27.54
30.45
31.67
31.4
29.93
27.76
25.46
23.59
22.53
22.34
22.79
23.44
23.89
23.9
23.47
22.78
22.02
21.26
20.39
19.12
17.09
14.08
10.05
5.19
-0.14
-5.55
-10.72
-15.46
-19.79
-23.86
-27.93
-32.36
-37.52
-43.64
-50.65
-57.96
-64.42
-68.49
-68.68
-64.06
-54.6
-41.31
-25.9
-10.34
3.72
15.28
23.99
29.97
33.61
35.32
35.44
34.36
32.47
30.29
28.34
27.06
26.67
27.08
27.91
28.65
28.88
28.43
27.39
26.0
24.48
22.92
21.2
19.04
16.17
12.41
7.75
2.41
-3.18
-8.54
-13.31
-17.33
-20.79
-24.07
-27.65
-31.91
-37.11
-43.3
-50.35
-57.74
-64.48
-69.13
-70.12
-66.27
-57.36
-44.33
-29.0
-13.55
0.27
11.5
20.04
26.27
30.67
33.56
35.07
35.31
34.52
33.11
31.59
30.37
29.69
29.58
29.87
30.33
30.69
30.78
30.47
29.72
28.54
26.97
25.02
22.66
19.77
16.28
12.19
7.59
2.76
-2.02
-6.47
-10.45
-13.91
-16.98
-19.9
-23.02
-26.79
-31.65
-37.86
-45.3
-53.26
-60.45
-65.28
-66.26
-62.54
-54.15
-42.08
-27.93
-13.44
-0.1
11.14
19.89
26.13
30.04
31.84
31.8
30.32
27.98
25.5
23.59
22.71
22.9
23.74
24.57
24.79
24.17
22.92
21.5
20.32
19.47
18.66
17.38
15.21
12.0
7.97
3.56
-0.73
-4.57
-7.86
-10.74
-13.57
-16.76
-20.75
-25.86
-32.1
-39.08
-45.86
-51.08
-53.27
-51.34
-44.91
-34.6
-21.81
-8.35
4.12
14.41
22.03
27.01
29.66
30.4
29.58
27.54
24.69
21.52
18.54
16.22
14.83
14.4
14.67
15.28
15.89
16.29
16.34
15.97
15.0
13.21
10.44
6.74
2.44
-1.98
-6.06
-9.58
-12.73
-16.03
-20.16
-25.65
-32.69
-40.79
-48.83
-55.14
-57.96
-55.98
-48.82
-37.31
-23.24
-8.84
3.98
14.07
21.2
25.78
28.45
29.72
29.89
29.14
27.73
25.99
24.31
22.99
22.15
21.72
21.54
21.41
21.14
20.53
19.38
17.51
14.83
11.38
7.35
2.99
-1.47
-5.85
-10.03
-14.05
-18.11
-22.59
-27.96
-34.51
-42.01
-49.49
-55.37
-57.86
-55.61
-48.29
-36.73
-22.69
-8.22
4.88
15.51
23.35
28.61
31.84
33.6
34.37
34.52
34.3
33.86
33.29
32.65
31.95
31.18
30.32
29.38
28.4
27.43
26.46
25.41
24.03
21.95
18.92
14.87
10.08
5.09
0.46
-3.47
-6.75
-9.81
-13.35
-18.04
-24.3
-31.99
-40.35
-48.0
-53.22
-54.42
-50.69
-42.2
-30.2
-16.64
-3.53
7.68
16.4
22.75
27.27
30.42
32.49
33.57
33.78
33.37
32.7
32.17
31.93
31.9
31.73
31.08
29.78
27.97
26.02
24.31
23.03
22.0
20.78
18.82
15.79
11.66
6.81
1.83
-2.72
-6.5
-9.56
-12.3
-15.28
-19.06
-23.98
-30.09
-37.0
-43.95
-49.82
-53.35
-53.38
-49.27
-41.17
-30.08
-17.59
-5.38
5.24
13.7
20.01
24.6
27.87
29.99
30.99
30.91
30.0
28.72
27.54
26.78
26.45
26.34
26.13
25.67
24.99
24.25
23.55
22.81
21.76
20.05
17.41
13.78
9.4
4.66
0.0
-4.21
-7.81
-10.89
-13.78
-17.0
-21.09
-26.43
-33.03
-40.33
-47.27
-52.45
-54.55
-52.78
-47.15
-38.49
-28.14
-17.56
-7.91
0.18
6.55
11.31
14.69
16.92
18.24
18.93
19.31
19.68
20.25
21.05
21.95
22.69
23.02
22.74
21.86
20.58
19.3
18.46
18.33
18.88
19.67
20.05
19.37
17.29
13.9
9.67
5.15
0.77
-3.4
-7.61
-12.31
-17.91
-24.64
-32.33
-40.38
-47.81
-53.43
-56.07
-55.0
-50.09
-41.97
-31.77
-20.88
-10.52
-1.53
5.76
11.41
15.7
18.97
21.49
23.45
24.91
25.91
26.49
26.74
26.74
26.55
26.22
25.74
25.17
24.54
23.91
23.22
22.33
21.04
19.2
16.85
14.17
11.38
8.66
5.97
3.15
0.01
-3.55
-7.49
-11.62
-15.75
-19.74
-23.51
-27.07
-30.54
-34.12
-38.14
-42.9
-48.48
-54.52
-60.08
-63.86
-64.59
-61.54
-54.83
-45.4
-34.64
-23.9
-14.1
-5.58
1.69
7.85
12.96
16.93
19.63
21.09
21.53
21.29
20.75
20.24
19.92
19.83
19.9
20.01
20.03
19.83
19.37
18.67
17.79
16.82
15.81
14.72
13.43
11.75
9.53
6.72
3.46
0.01
-3.34
-6.44
-9.28
-12.05
-15.0
-18.39
-22.43
-27.22
-32.76
-38.83
-44.85
-49.9
-52.81
-52.51
-48.47
-40.92
-30.85
-19.72
-8.96
0.42
8.04
13.94
18.35
21.43
23.25
23.86
23.48
22.54
21.62
21.2
21.47
22.27
23.14
23.63
23.42
22.55
21.28
19.96
18.77
17.6
16.09
13.79
10.43
6.1
1.2
-3.69
-8.08
-11.77
-14.88
-17.85
-21.2
-25.41
-30.74
-37.1
-43.98
-50.39
-55.05
-56.69
-54.47
-48.29
-38.88
-27.6
-16.0
-5.34
3.65
10.78
16.19
20.13
22.77
24.23
24.65
24.3
23.54
22.82
22.49
22.68
23.32
24.12
24.75
25.01
24.87
24.42
23.72
22.64
20.91
18.22
14.4
9.57
4.15
-1.34
-6.45
-11.05
-15.29
-19.59
-24.44
-30.26
-37.17
-44.83
-52.35
-58.37
-61.4
-60.23
-54.5
-44.78
-32.5
-19.39
-7.0
3.74
12.56
19.6
25.12
29.28
32.12
33.67
34.12
33.88
33.42
33.19
33.38
33.85
34.28
34.25
33.53
32.13
30.29
28.38
26.63
24.98
23.1
20.48
16.74
11.81
6.05
0.1
-5.35
-9.88
-13.55
-16.82
-20.45
-25.18
-31.5
-39.4
-48.27
-56.93
-63.74
-67.04
-65.58
-58.98
-47.9
-33.93
-19.05
-5.06
6.86
16.34
23.62
29.17
33.34
36.31
38.08
38.71
38.42
37.55
36.53
35.65
35.01
34.46
33.76
32.66
31.1
29.21
27.32
25.74
24.66
23.95
23.23
21.92
19.58
16.05
11.52
6.5
1.57
-2.84
-6.65
-10.05
-13.51
-17.55
-22.64
-29.04
-36.7
-45.06
-53.06
-59.24
-62.1
-60.55
-54.29
-43.99
-31.04
-17.12
-3.78
7.88
17.27
24.21
28.72
30.98
31.33
30.22
28.24
25.98
23.9
22.27
21.14
20.44
20.01
19.71
19.4
19.01
18.53
17.96
17.29
16.38
14.98
12.82
9.73
5.76
1.27
-3.27
-7.44
-11.11
-14.5
-18.11
-22.5
-28.09
-34.89
-42.35
-49.37
-54.49
-56.18
-53.36
-45.8
-34.28
-20.4
-6.11
6.85
17.38
25.12
30.23
33.12
34.23
33.89
32.41
30.15
27.48
24.81
22.49
20.76
19.71
19.26
19.17
19.05
18.54
17.32
15.29
12.48
9.11
5.38
1.49
-2.49
-6.52
-10.6
-14.79
-19.23
-24.15
-29.85
-36.42
-43.53
-50.25
-55.11
-56.54
-53.38
-45.43
-33.6
-19.66
-5.67
6.6
16.16
22.82
27.05
29.55
30.9
31.43
31.23
30.29
28.69
26.66
24.57
22.78
21.48
20.65
19.97
19.09
17.67
15.55
12.75
9.44
5.79
1.92
-2.11
-6.34
-10.86
-15.81
-21.31
-27.46
-34.3
-41.59
-48.74
-54.67
-58.09
-57.72
-52.8
-43.35
-30.31
-15.3
-0.21
13.28
24.08
31.81
36.72
39.41
40.5
40.46
39.55
37.85
35.44
32.49
29.29
26.19
23.41
21.11
19.29
17.86
16.69
15.62
14.42
12.83
10.64
7.68
3.97
-0.35
-5.07
-9.93
-14.81
-19.75
-25.03
-31.07
-38.14
-46.04
-53.85
-60.01
-62.67
-60.43
-52.9
-40.9
-26.24
-11.11
2.64
13.93
22.49
28.6
32.75
35.33
36.62
36.85
36.32
35.41
34.54
33.91
33.51
33.09
32.29
30.92
29.08
27.11
25.41
24.22
23.42
22.56
20.98
18.18
13.96
8.6
2.68
-3.13
-8.31
-12.74
-16.67
-20.65
-25.32
-31.2
-38.46
-46.79
-55.24
-62.36
-66.42
-66.0
-60.39
-49.99
-36.23
-21.13
-6.66
5.88
16.02
23.92
30.01
34.57
37.67
39.23
39.31
38.23
36.53
34.81
33.49
32.7
32.28
31.9
31.23
30.12
28.59
26.85
25.16
23.66
22.28
20.67
18.35
14.92
10.29
4.8
-0.92
-6.17
-10.55
-14.12
-17.31
-20.75
-24.99
-30.39
-37.0
-44.49
-52.12
-58.73
-62.83
-63.01
-58.42
-49.17
-36.37
-21.84
-7.56
4.93
14.78
21.86
26.46
29.02
29.94
29.58
28.32
26.63
25.0
23.84
23.3
23.29
23.5
23.58
23.29
22.62
21.67
20.62
19.5
18.16
16.28
13.54
9.8
5.18
0.08
-4.93
-9.37
-13.05
-16.11
-19.09
-22.64
-27.36
-33.45
-40.57
-47.74
-53.53
-56.37
-54.95
-48.75
-38.27
-24.87
-10.5
2.96
14.16
22.48
27.96
31.03
32.16
31.74
30.08
27.53
24.6
21.84
19.7
18.42
17.9
17.8
17.75
17.47
16.81
15.74
14.25
12.35
9.96
7.08
3.71
-0.07
-4.18
-8.55
-13.11
-17.86
-22.82
-28.12
-33.9
-40.15
-46.49
-52.02
-55.42
-55.36
-51.01
-42.46
-30.73
-17.54
-4.66
6.52
15.35
21.75
26.05
28.62
29.7
29.52
28.28
26.31
24.03
21.84
20.04
18.72
17.79
17.1
16.45
15.72
14.83
13.66
12.04
9.77
6.72
2.95
-1.32
-5.72
-9.93
-13.76
-17.25
-20.69
-24.47
-29.06
-34.77
-41.55
-48.77
-55.2
-59.17
-59.09
-54.05
-44.2
-30.83
-15.94
-1.58
10.72
20.27
27.09
31.61
34.36
35.71
35.93
35.23
33.88
32.2
30.48
28.92
27.59
26.41
25.26
24.03
22.74
21.47
20.28
19.16
17.89
16.15
13.59
10.0
5.48
0.34
-4.96
-9.97
-14.48
-18.55
-22.59
-27.19
-32.89
-39.9
-47.79
-55.37
-60.98
-62.88
-59.98
-52.22
-40.74
-27.39
-14.16
-2.45
7.14
14.81
21.05
26.22
30.33
33.07
34.24
33.94
32.7
31.27
30.26
29.91
29.95
29.92
29.38
28.24
26.69
25.1
23.67
22.34
20.79
18.58
15.4
11.2
6.23
0.94
-4.2
-8.81
-12.76
-16.2
-19.57
-23.48
-28.53
-35.04
-42.86
-51.15
-58.48
-63.15
-63.67
-59.27
-50.16
-37.52
-23.13
-8.81
4.0
14.54
22.61
28.42
32.31
34.51
35.22
34.62
33.04
30.96
28.9
27.33
26.42
26.02
25.79
25.37
24.62
23.61
22.56
21.64
20.8
19.74
18.07
15.45
11.76
7.18
2.14
-2.83
-7.3
-11.02
-14.14
-17.09
-20.51
-25.01
-30.94
-38.16
-45.94
-53.0
-57.81
-58.91
-55.43
-47.35
-35.64
-21.92
-8.04
4.45
14.61
22.18
27.37
30.55
32.02
32.01
30.71
28.49
25.93
23.66
22.23
21.79
22.03
22.36
22.17
21.22
19.65
17.88
16.34
15.09
13.84
12.07
9.36
5.58
1.0
-3.87
-8.49
-12.52
-15.9
-18.86
-21.9
-25.63
-30.56
-36.9
-44.27
-51.61
-57.35
-59.8
-57.72
-50.8
-39.76
-26.2
-11.95
1.32
12.6
21.48
28.03
32.48
35.06
35.94
35.33
33.6
31.3
29.09
27.53
26.89
27.02
27.45
27.61
27.06
25.7
23.82
21.86
20.19
18.88
17.67
16.05
13.52
9.76
4.82
-0.95
-6.98
-12.65
-17.53
-21.52
-24.9
-28.23
-32.18
-37.29
-43.76
-51.23
-58.75
-64.91
-68.06
-66.86
-60.71
-49.98
-35.99
-20.65
-5.81
7.16
17.64
25.57
31.29
35.14
37.35
38.14
37.75
36.54
35.01
33.65
32.79
32.59
32.96
33.67
34.38
34.76
34.55
33.62
32.02
29.88
27.42
24.73
21.9
18.81
15.33
