0
-93.22
-98.86
-98.93
-92.39
-79.53
-61.93
-41.89
-21.76
-3.34
12.41
25.27
35.42
43.1
48.51
51.79
53.3
53.64
53.62
54.02
55.27
57.33
59.73
61.81
62.98
62.88
61.42
58.73
55.0
50.47
45.39
40.04
34.74
29.77
25.32
21.35
17.63
13.75
9.3
3.94
-2.42
-9.6
-17.25
-25.0
-32.59
-40.06
-47.76
-56.28
-66.29
-78.19
-91.76
-105.81
-118.21
-126.29
-127.61
-120.87
-106.34
-85.94
-62.47
-38.79
-16.97
1.97
17.89
31.04
41.61
49.59
54.93
57.83
58.87
58.94
58.98
59.63
60.97
62.63
64.05
64.79
64.72
64.02
62.93
61.5
59.47
56.36
51.82
45.9
39.04
31.99
25.41
19.56
14.25
8.92
2.99
-3.88
-11.65
-19.87
-27.93
-35.23
-41.45
-46.71
-51.59
-56.97
-63.82
-72.86
-84.25
-97.25
-110.2
-120.77
-126.47
-125.37
-116.76
-101.41
-81.35
-59.29
-37.81
-18.76
-2.95
9.59
19.32
26.68
31.99
35.44
37.31
38.09
38.45
39.02
40.08
41.39
42.38
42.49
41.62
40.33
39.64
40.53
43.36
47.7
52.45
56.38
58.76
59.46
58.92
57.7
56.1
54.05
51.19
47.27
42.35
36.85
31.47
26.89
23.49
21.21
19.53
17.57
14.25
8.56
-0.3
-12.56
-27.71
-44.35
-60.25
-72.86
-79.92
-80.14
-73.64
-61.85
-46.97
-31.18
-16.15
-2.76
8.64
17.87
24.7
28.86
30.34
29.57
27.49
25.29
24.04
24.34
26.12
28.9
31.91
34.51
36.24
36.89
36.41
34.83
32.25
28.86
24.9
20.61
16.14
11.51
6.64
1.43
-4.09
-9.75
-15.34
-20.64
-25.63
-30.45
-35.36
-40.74
-46.98
-54.48
-63.39
-73.42
-83.56
-92.08
-96.87
-96.04
-88.63
-75.0
-56.74
-36.19
-15.63
3.2
19.37
32.58
42.84
50.24
54.88
56.94
56.84
55.29
53.16
51.35
50.55
51.07
52.75
55.1
57.4
58.96
59.29
58.18
55.65
51.89
47.18
41.87
36.3
30.74
25.31
19.89
14.19
7.9
0.87
-6.69
-14.35
-21.6
-28.2
-34.27
-40.28
-46.92
-54.83
-64.44
-75.7
-88.01
-100.01
-109.69
-114.82
-113.54
-105.12
-90.25
-70.92
-49.74
-29.12
-10.62
5.18
18.37
29.26
38.03
44.76
49.56
52.78
55.0
56.9
58.93
61.26
63.68
65.83
67.38
68.14
68.16
67.6
66.6
65.21
63.23
60.39
56.43
51.23
44.99
38.19
31.46
25.34
20.07
15.45
10.96
5.91
-0.1
-7.08
-14.59
-22.02
-28.81
-34.8
-40.25
-45.77
-52.15
-60.05
-69.84
-81.28
-93.47
-104.73
-112.87
-115.82
-112.12
-101.57
-85.32
-65.48
-44.47
-24.33
-6.29
9.22
22.29
33.15
41.89
48.48
52.9
55.33
56.27
56.41
56.52
57.12
58.38
60.1
61.81
63.07
63.6
63.38
62.58
61.36
59.71
57.44
54.18
49.72
44.12
37.76
31.29
25.4
20.57
16.87
13.92
11.08
7.63
3.05
-2.82
-9.75
-17.27
-24.75
-31.7
-37.81
-43.14
-48.04
-53.12
-59.08
-66.58
-75.93
-86.79
-98.06
-107.89
-114.11
-114.79
-108.88
-96.65
-79.53
-59.74
-39.57
-20.78
-4.39
9.29
20.3
28.79
34.92
38.9
41.17
42.35
43.08
43.88
44.95
46.25
47.61
48.92
50.14
51.28
52.23
52.74
52.44
51.01
48.32
44.49
39.85
34.76
29.57
24.47
19.5
14.59
9.57
4.29
-1.31
-7.12
-12.89
-18.34
-23.29
-27.81
-32.29
-37.33
-43.66
-51.78
-61.71
-72.74
-83.38
-91.6
-95.32
-93.08
-84.53
-70.55
-53.01
-34.16
-15.98
0.28
14.08
25.39
34.3
40.84
45.01
46.94
47.11
46.27
45.27
44.78
45.04
45.96
47.16
48.33
49.34
50.2
50.92
51.34
51.08
49.63
46.61
41.94
35.92
29.15
22.38
16.2
10.91
6.38
2.17
-2.29
-7.43
-13.35
-19.77
-26.12
-31.89
-36.79
-40.94
-44.89
-49.44
-55.4
-63.33
-73.23
-84.34
-95.17
-103.63
-107.59
-105.49
-96.86
-82.61
-64.72
-45.6
-27.39
-11.44
1.83
12.65
21.43
28.47
33.86
37.6
39.87
41.1
41.9
42.83
44.23
46.08
48.1
49.97
51.53
52.8
53.91
54.92
55.65
55.67
54.47
51.69
47.3
41.7
35.59
29.67
24.43
19.92
15.8
11.49
6.47
0.47
-6.38
-13.62
-20.7
-27.17
-32.91
-38.16
-43.48
-49.63
-57.31
-66.98
-78.47
-90.82
-102.25
-110.46
-113.27
-109.32
-98.59
-82.42
-63.06
-42.93
-23.93
-7.12
7.19
19.1
28.73
36.13
41.32
44.45
45.95
46.48
46.72
47.16
48.03
49.27
50.62
51.85
52.77
53.33
53.51
53.29
52.58
51.22
49.07
46.03
42.17
37.66
32.76
27.71
22.65
17.51
12.13
6.36
0.15
-6.35
-12.83
-18.97
-24.65
-30.05
-35.66
-42.15
-50.09
-59.66
-70.33
-80.84
-89.29
-93.65
-92.34
-84.78
-71.63
-54.54
-35.68
-17.04
-0.07
14.47
26.29
35.31
41.4
44.61
45.19
43.82
41.52
39.39
38.22
38.34
39.57
41.43
43.36
44.86
45.58
45.32
43.97
41.57
38.32
34.52
30.53
26.52
22.53
18.43
13.99
9.08
3.67
-2.14
-8.22
-14.43
-20.62
-26.79
-33.02
-39.6
-46.94
-55.54
-65.65
-76.94
-88.31
-97.85
-103.41
-103.16
-96.37
-83.6
-66.62
-47.69
-28.91
-11.68
3.41
16.29
27.04
35.63
41.9
45.81
47.59
47.87
47.47
47.18
47.49
48.48
49.92
51.43
52.67
53.5
53.89
53.82
53.21
51.8
49.3
45.53
40.59
34.88
29.01
23.5
18.55
13.97
9.24
3.82
-2.52
-9.59
-16.88
-23.75
-29.78
-35.04
-39.99
-45.4
-52.12
-60.73
-71.31
-83.18
-94.88
-104.28
-109.18
-107.86
-99.73
-85.56
-67.22
-47.12
-27.51
-9.85
5.24
17.79
28.08
36.31
42.59
47.0
49.8
51.52
52.79
54.11
55.67
57.25
58.48
59.03
58.9
58.34
57.78
57.49
57.39
57.05
55.88
53.35
49.31
44.03
38.12
32.25
26.88
22.07
17.53
12.75
7.27
0.94
-6.04
-13.19
-20.06
-26.37
-32.16
-37.74
-43.6
-50.31
-58.35
-67.94
-78.72
-89.59
-98.74
-104.05
-103.76
-97.09
-84.51
-67.66
-48.69
-29.66
-11.95
3.79
17.39
28.89
38.25
45.38
50.26
53.12
54.45
54.93
55.21
55.69
56.46
57.29
57.79
57.67
56.83
55.43
53.76
52.07
50.34
48.31
45.56
41.77
36.91
31.33
25.58
20.24
15.61
11.54
7.55
3.01
-2.5
-9.06
-16.33
-23.71
-30.64
-36.75
-42.01
-46.73
-51.48
-56.9
-63.56
-71.67
-80.76
-89.66
-96.57
-99.54
-97.11
-88.8
-75.32
-58.35
-39.91
-21.83
-5.37
8.89
20.76
30.22
37.28
42.02
44.68
45.77
45.99
46.11
46.66
47.86
49.51
51.18
52.37
52.83
52.53
51.62
50.28
48.54
46.25
43.26
39.52
35.19
30.65
26.24
22.1
18.09
13.79
8.81
2.94
-3.67
-10.6
-17.33
-23.48
-29.02
-34.19
-39.58
-45.88
-53.64
-63.09
-73.77
-84.53
-93.54
-98.76
-98.5
-92.0
-79.73
-63.24
-44.66
-26.0
-8.66
6.66
19.77
30.67
39.24
45.34
48.93
50.35
50.28
49.58
49.03
49.03
49.59
50.4
51.12
51.52
51.57
51.38
51.06
50.63
49.93
48.68
46.59
43.47
39.35
34.53
29.46
24.58
20.09
15.89
11.6
6.78
1.14
-5.32
-12.27
-19.26
-25.86
-31.86
-37.34
-42.67
-48.48
-55.51
-64.35
-75.1
-87.09
-98.7
-107.68
-111.76
-109.41
-100.42
-85.97
-68.16
-49.28
-31.07
-14.43
0.4
13.53
24.94
34.41
41.59
46.4
49.07
50.25
50.69
50.99
51.39
51.81
52.04
51.92
51.56
51.22
51.2
51.59
52.16
52.32
51.44
49.06
45.16
40.18
34.89
30.01
25.91
22.45
19.09
15.15
10.19
4.19
-2.48
-9.24
-15.6
-21.29
-26.35
-31.12
-36.13
-41.99
-49.28
-58.33
-68.96
-80.26
-90.65
-98.1
-100.78
-97.6
-88.61
-74.95
-58.47
-41.07
-24.32
-9.14
4.02
15.04
23.91
30.65
35.33
38.22
39.73
40.41
40.78
41.24
42.03
43.12
44.33
45.37
45.95
45.9
45.19
43.88
42.06
39.79
37.05
33.8
30.0
25.62
20.67
15.22
9.43
3.55
-2.11
-7.32
-12.0
-16.33
-20.69
-25.61
-31.54
-38.82
-47.53
-57.4
-67.73
-77.31
-84.57
-87.9
-86.07
-78.73
-66.53
-50.94
-33.81
-16.83
-1.16
12.62
24.29
33.78
40.98
45.85
48.53
49.49
49.42
49.02
48.84
49.06
49.63
50.34
51.01
51.53
51.8
51.65
50.85
49.13
46.32
42.48
37.92
33.1
28.43
24.18
20.34
16.65
12.69
8.09
2.65
-3.57
-10.25
-16.96
-23.34
-29.33
-35.19
-41.5
-48.94
-57.98
-68.57
-79.97
-90.71
-98.87
-102.58
-100.62
-92.77
-79.92
-63.72
-46.14
-28.86
-12.98
1.07
13.2
23.47
31.85
38.2
42.45
44.78
45.64
45.68
45.56
45.72
46.27
47.07
47.84
48.38
48.62
48.63
48.41
47.84
46.65
44.58
41.5
37.62
33.34
29.11
25.2
21.54
17.78
13.45
8.21
2.06
-4.7
-11.57
-18.06
-23.88
-29.07
-33.95
-39.08
-45.05
-52.4
-61.36
-71.71
-82.63
-92.7
-100.17
-103.31
-100.94
-92.82
-79.83
-63.68
-46.41
-29.75
-14.78
-1.77
9.42
19.03
27.07
33.36
37.75
40.37
41.73
42.53
43.37
44.5
45.79
46.93
47.69
48.04
48.12
48.02
47.71
46.93
45.44
43.1
39.97
36.28
32.32
28.3
24.25
20.09
15.67
10.88
5.74
0.38
-4.98
-10.17
-15.12
-19.93
-24.87
-30.33
-36.73
-44.38
-53.29
-62.98
-72.36
-79.88
-83.82
-82.91
-76.72
-65.93
-52.05
-36.95
-22.2
-8.77
2.99
13.11
21.65
28.5
33.43
36.32
37.38
37.19
36.58
36.39
37.15
38.91
41.29
43.63
45.29
45.84
45.14
43.33
40.71
37.56
34.07
30.28
26.12
21.48
16.26
10.49
4.33
-1.88
-7.8
-13.18
-18.0
-22.53
-27.21
-32.55
-38.92
-46.5
-55.16
-64.36
-73.17
-80.22
-84.0
-83.22
-77.28
-66.52
-52.23
-36.2
-20.2
-5.47
7.41
18.3
27.3
34.4
39.54
42.75
44.28
44.65
44.51
44.42
44.71
45.43
46.42
47.45
48.27
48.69
48.56
47.74
46.18
43.87
40.91
37.46
33.72
29.82
25.81
21.63
17.18
12.36
7.13
1.54
-4.28
-10.14
-15.91
-21.54
-27.16
-33.05
-39.63
-47.34
-56.4
-66.64
-77.31
-87.1
-94.38
-97.64
-95.87
-88.85
-77.28
-62.49
-46.11
-29.64
-14.13
-0.16
12.09
22.53
31.01
37.36
41.56
43.87
44.97
45.69
46.73
48.33
50.25
51.92
52.85
52.89
52.25
51.32
50.37
49.35
47.95
45.8
42.73
38.88
34.61
30.36
26.39
22.64
18.82
14.56
9.56
3.76
-2.62
-9.21
-15.56
-21.4
-26.68
-31.64
-36.76
-42.67
-49.97
-59.01
-69.64
-81.01
-91.65
-99.7
-103.35
-101.49
-93.96
-81.64
-66.15
-49.34
-32.78
-17.48
-3.89
7.91
17.91
26.06
32.25
36.52
39.13
40.61
41.65
42.8
44.31
46.12
47.93
49.45
50.54
51.23
51.58
51.53
50.88
49.31
46.63
42.87
38.32
33.42
28.55
23.92
19.54
15.25
10.88
6.32
1.62
-3.12
-7.73
-12.14
-16.4
-20.67
-25.32
-30.85
-37.68
-46.02
-55.54
-65.22
-73.48
-78.54
-78.95
-74.1
-64.44
-51.31
-36.38
-21.23
-6.88
6.1
17.47
27.05
34.57
39.86
42.95
44.2
44.27
43.96
43.91
44.41
45.45
46.73
47.92
48.79
49.26
49.36
49.1
48.36
46.87
44.35
40.62
35.79
30.21
24.38
18.74
13.49
8.57
3.68
-1.5
-7.2
-13.38
-19.81
-26.1
-31.86
-36.84
-41.02
-44.68
-48.39
-52.91
-58.95
-66.92
-76.65
-87.18
-96.85
-103.57
-105.52
-101.62
-91.98
-77.86
-61.17
-43.88
-27.42
-12.53
0.57
11.86
21.26
28.64
33.97
37.51
39.84
41.63
43.44
45.48
47.64
49.65
51.28
52.46
53.32
54.04
54.75
55.43
55.95
56.02
55.38
53.76
51.02
47.18
42.43
37.07
31.47
26.0
20.89
16.19
11.78
7.34
2.54
-2.83
-8.79
-15.17
-21.65
-28.0
-34.09
-39.97
-45.82
-51.97
-58.77
-66.62
-75.77
-86.1
-96.83
-106.52
-113.29
-115.37
-111.65
-102.05
-87.54
-69.79
-50.64
-31.69
-14.04
1.67
15.15
26.29
35.12
41.72
46.32
49.27
51.04
52.22
53.31
54.68
56.38
58.19
59.77
60.83
61.26
61.18
60.76
60.09
59.07
57.41
54.84
51.23
46.69
41.55
36.23
31.12
26.45
22.28
18.49
14.82
10.98
6.7
1.82
-3.64
-9.44
-15.25
-20.8
-26.01
-31.08
-36.48
-42.75
-50.39
-59.61
-70.21
-81.48
-92.14
-100.49
-104.75
-103.52
-96.27
-83.55
-66.84
-48.17
-29.48
-12.22
2.82
15.34
25.3
32.71
37.64
40.31
41.17
40.91
40.34
40.12
40.66
42.03
44.0
46.26
48.53
50.59
52.3
53.5
53.94
53.34
51.46
48.27
44.0
39.11
34.11
29.38
24.99
20.71
16.18
11.03
5.12
-1.44
-8.29
-15.07
-21.46
-27.39
-33.06
-38.89
-45.46
-53.26
-62.46
-72.65
-82.71
-90.94
-95.39
-94.49
-87.53
-75.0
-58.39
-39.76
-21.08
-3.76
11.53
24.62
35.48
44.06
50.15
53.7
54.99
54.72
53.85
53.25
53.41
54.38
55.82
57.3
58.47
59.22
59.59
59.65
59.38
58.67
57.28
54.91
51.35
46.57
40.7
34.2
27.61
21.48
16.08
11.3
6.68
1.59
-4.43
-11.45
-19.12
-26.85
-34.11
-40.7
-46.76
-52.71
-59.1
-66.47
-75.28
-85.73
-97.54
-109.68
-120.36
-127.32
-128.42
-122.43
-109.42
-90.85
-69.07
-46.57
-25.4
-6.75
8.92
21.67
31.82
39.65
45.41
49.33
51.72
53.01
53.68
54.23
55.04
56.21
57.63
59.04
60.18
60.93
61.25
61.18
60.7
59.65
57.82
55.02
51.27
46.75
41.79
36.74
31.84
27.15
22.67
18.39
14.21
10.01
5.57
0.65
-4.88
-10.96
-17.29
-23.48
-29.28
-34.69
-39.97
-45.54
-51.83
-59.13
-67.66
-77.37
-87.89
-98.22
-106.75
-111.5
-110.7
-103.44
-90.07
-72.18
-52.03
-31.86
-13.3
2.8
16.24
27.07
35.39
41.24
44.77
46.32
46.53
46.18
45.99
46.4
47.47
48.95
50.47
51.72
52.61
53.22
53.63
53.83
53.56
52.44
50.15
46.5
41.68
36.12
30.43
25.11
20.37
16.07
11.79
7.08
1.69
-4.33
-10.62
-16.75
-22.45
-27.71
-32.83
-38.28
-44.58
-52.1
-60.95
-70.76
-80.55
-88.75
-93.49
-93.13
-86.82
-74.85
-58.64
-40.2
-21.56
-4.28
10.79
23.33
33.3
40.73
45.68
48.33
49.14
48.79
48.12
47.81
48.25
49.42
50.94
52.31
53.14
53.32
52.98
52.36
51.54
50.39
48.5
45.48
41.16
35.78
29.87
24.1
18.91
14.33
9.97
5.28
-0.21
-6.6
-13.66
-20.89
-27.75
-33.97
-39.54
-44.85
-50.53
-57.32
-65.84
-76.26
-88.05
-99.83
-109.51
-114.84
-114.05
-106.45
-92.73
-74.69
-54.65
-34.77
-16.55
-0.69
12.71
23.75
32.56
39.18
43.74
46.58
48.24
49.38
50.54
51.99
53.68
55.32
56.55
57.12
57.0
56.34
55.38
54.26
52.95
51.23
48.73
45.18
40.53
35.02
29.18
23.58
18.67
14.61
11.2
8.07
4.72
0.78
-3.91
-9.29
-15.12
-21.07
-26.85
-32.37
-37.79
-43.55
-50.25
-58.47
-68.42
-79.71
-91.17
-100.94
-106.92
-107.32
-101.31
-89.33
-72.91
-54.26
-35.48
-18.05
-2.67
10.59
21.85
31.13
38.23
42.97
45.38
45.87
45.15
44.04
43.18
42.88
43.17
43.92
44.99
46.27
47.66
48.92
49.69
49.5
47.98
45.05
40.94
36.12
31.11
26.27
21.63
16.98
12.03
6.59
0.67
-5.47
-11.45
-16.95
-21.8
-26.11
-30.25
-34.77
-40.28
-47.16
-55.47
-64.7
-73.69
-80.84
-84.39
-82.94
-75.91
-63.8
-48.09
-30.78
-13.79
1.52
14.49
25.03
33.28
39.38
43.36
45.38
45.79
45.27
44.62
44.54
45.4
47.1
49.24
51.23
52.54
52.81
51.96
50.14
47.61
44.64
41.41
37.93
34.08
29.68
24.59
18.79
12.4
5.68
-1.0
-7.32
-13.09
-18.34
-23.38
-28.73
-34.93
-42.46
-51.51
-61.87
-72.81
-83.12
-91.18
-95.26
-94.05
-87.04
-74.83
-58.93
-41.34
-23.97
-8.1
5.66
17.23
26.65
33.93
39.06
42.12
43.52
43.95
44.17
44.76
45.91
47.42
48.91
50.05
50.71
51.0
51.08
51.1
50.97
50.4
49.0
46.45
42.65
37.77
32.22
26.45
20.84
15.45
10.07
4.37
-1.92
-8.84
-16.11
-23.3
-30.01
-36.13
-41.84
-47.6
-54.02
-61.61
-70.61
-80.82
-91.43
-101.03
-107.85
-110.19
-106.87
-97.76
-83.83
-66.87
-48.87
-31.43
-15.47
-1.22
11.43
22.54
31.99
39.52
45.01
48.59
50.7
51.89
52.67
53.24
53.61
53.69
53.46
53.05
52.69
52.56
52.65
52.68
52.2
50.7
47.84
43.59
38.29
32.53
26.94
21.9
17.47
13.38
9.21
4.66
-0.33
-5.57
-10.74
-15.54
-19.88
-23.89
-27.91
-32.42
-37.99
-45.11
-53.99
-64.3
-75.0
-84.42
-90.63
-92.02
-87.82
-78.31
-64.74
-48.83
-32.24
-16.22
-1.5
11.49
22.48
31.17
37.33
40.93
42.3
42.08
41.13
40.29
40.15
41.0
42.71
44.89
47.0
48.56
49.23
48.92
47.7
45.73
43.17
40.07
36.45
32.24
27.45
22.14
16.45
10.58
4.74
-0.9
-6.21
-11.13
-15.74
-20.24
-25.03
-30.62
-37.52
-46.04
-56.02
-66.67
-76.52
-83.76
-86.66
-84.1
-75.95
-63.11
-47.24
-30.27
-13.9
0.7
13.02
22.96
30.64
36.21
39.83
41.73
42.36
42.27
42.1
42.25
42.87
43.77
44.71
45.46
46.03
46.52
47.02
47.45
47.5
46.76
44.88
41.7
37.36
32.24
26.81
21.51
16.53
11.84
7.17
2.21
-3.21
-9.01
-14.89
-20.51
-25.69
-30.52
-35.37
-40.85
-47.56
-55.94
-66.05
-77.32
-88.49
-97.76
-103.14
-103.07
-96.95
-85.37
-69.91
-52.57
-35.16
-18.85
-4.15
8.81
19.99
29.21
36.19
40.79
43.2
43.95
43.8
43.46
43.43
43.83
44.51
45.17
45.57
45.62
45.41
45.12
44.92
44.77
44.42
43.45
41.46
38.27
34.02
29.23
24.52
20.36
16.86
13.72
10.43
6.51
1.74
-3.81
-9.78
-15.75
-21.41
-26.61
-31.44
-36.16
-41.19
-47.04
-54.2
-62.92
-73.01
-83.6
-93.18
-99.9
-102.02
-98.46
-89.14
-75.1
-58.17
-40.43
-23.64
-8.88
3.52
13.77
22.18
28.94
34.02
37.33
38.98
39.38
39.24
39.22
39.78
40.93
42.39
43.78
44.81
45.4
45.58
45.39
44.7
43.28
40.94
37.55
33.27
28.41
23.39
18.51
13.94
9.62
5.37
0.98
-3.66
-8.52
-13.43
-18.22
-22.79
-27.24
-31.96
-37.5
-44.4
-52.84
-62.39
-71.86
-79.54
-83.64
-82.84
-76.73
-65.96
-51.94
-36.37
-20.73
-6.02
7.27
18.9
28.69
36.37
41.69
44.58
45.35
44.67
43.43
42.48
42.3
42.98
44.22
45.6
46.78
47.65
48.25
48.64
48.76
48.3
46.89
44.23
40.28
35.28
29.71
24.12
18.93
14.26
9.97
5.65
0.87
-4.7
-11.12
-18.16
-25.36
-32.19
-38.27
-43.52
-48.21
-52.95
-58.5
-65.56
-74.5
-85.0
-95.96
-105.58
-111.75
-112.66
-107.4
-96.24
-80.58
-62.44
-43.86
-26.39
-10.88
2.47
13.79
23.25
30.91
36.76
40.87
43.52
45.23
46.63
48.26
50.36
52.84
55.38
57.62
59.29
60.31
60.74
60.66
60.13
59.13
57.61
55.46
52.55
48.75
44.03
38.49
32.48
26.46
20.88
16.06
11.97
8.37
4.84
1.05
-3.16
-7.76
-12.61
-17.6
-22.73
-28.13
-33.99
-40.58
-48.16
-56.94
-67.01
-78.06
-89.28
-99.2
-105.98
-107.84
-103.61
-93.21
-77.72
-59.04
-39.38
-20.58
-3.78
10.57
22.49
32.09
39.42
44.43
47.21
48.16
48.07
47.88
48.34
49.76
51.87
54.08
55.8
56.76
57.04
56.94
56.62
55.99
54.67
52.24
48.51
43.71
38.36
33.09
28.33
24.13
20.19
16.04
11.31
5.89
-0.02
-6.01
-11.66
-16.68
-21.13
-25.38
-30.1
-36.05
-43.85
-53.68
-65.07
-76.8
-87.0
-93.58
-94.77
-89.63
-78.38
-62.32
-43.53
-24.14
-5.93
10.08
23.49
34.37
42.84
48.98
52.77
54.36
54.17
52.94
51.59
50.89
51.25
52.51
54.17
55.6
56.32
56.23
55.49
54.32
52.83
50.89
48.23
44.61
39.98
34.6
28.89
23.28
18.07
13.29
8.69
3.9
-1.42
-7.4
-13.9
-20.57
-26.99
-32.88
-38.27
-43.48
-49.08
-55.73
-63.96
-74.01
-85.64
-97.93
-109.29
-117.66
-121.06
-118.08
-108.48
-93.27
-74.4
-54.22
-34.72
-17.15
-1.96
10.97
21.89
30.93
38.07
43.21
46.44
48.18
49.06
49.76
50.78
52.29
54.11
55.89
57.3
58.09
58.21
57.73
56.79
55.44
53.66
51.32
48.29
44.5
40.0
35.03
29.94
25.04
20.56
16.49
12.59
8.46
3.71
-1.84
-8.12
-14.74
-21.21
-27.1
-32.23
-36.75
-41.12
-45.95
-51.93
-59.58
-69.14
-80.33
-92.13
-102.86
-110.42
-112.8
-108.73
-98.09
-82.07
-62.74
-42.49
-23.33
-6.53
7.49
18.91
28.13
35.46
41.02
44.85
47.07
48.01
48.25
48.38
48.83
49.68
50.76
51.8
52.62
53.19
53.56
53.69
53.39
52.28
50.06
46.61
42.11
36.98
31.66
26.5
21.63
16.96
12.29
7.47
2.45
-2.63
-7.54
-12.08
-16.23
-20.2
-24.47
-29.61
-36.21
-44.49
-54.23
-64.5
-73.82
-80.33
-82.35
-78.85
-69.76
-56.02
-39.36
-21.73
-4.85
10.06
22.41
32.02
38.97
43.46
45.78
46.33
45.67
44.46
43.39
43.0
43.57
45.06
47.17
49.45
51.44
52.77
53.2
52.53
50.6
47.35
42.87
37.47
31.6
25.71
20.02
14.47
8.75
2.56
-4.26
-11.54
-18.88
-25.84
-32.08
-37.58
-42.55
-47.46
-52.96
-59.72
-68.28
-78.68
-90.24
-101.37
-109.87
-113.48
-110.59
-100.95
-85.66
-66.81
-46.8
-27.6
-10.37
4.4
16.66
26.46
33.82
38.8
41.64
42.81
42.94
42.72
42.66
43.07
43.93
45.05
46.13
46.91
47.26
47.19
46.78
46.04
44.79
42.74
39.59
35.27
30.02
24.4
18.99
14.16
9.88
5.79
1.4
-3.66
-9.4
-15.57
-21.72
-27.49
-32.76
-37.74
-42.91
-48.89
-56.25
-65.3
-75.81
-86.89
-96.89
-103.78
-105.64
-101.23
-90.49
-74.57
-55.5
-35.58
-16.73
-0.19
13.61
24.77
33.61
40.41
45.31
48.41
49.89
50.12
49.66
49.14
49.04
49.54
50.57
51.86
53.08
53.99
54.37
54.05
52.8
50.41
46.8
42.13
36.77
31.24
25.93
20.99
16.26
11.43
6.23
0.63
-5.2
-10.98
-16.45
-21.56
-26.43
-31.3
-36.51
-42.44
-49.43
-57.54
-66.36
-74.74
-81.01
-83.36
-80.42
-71.85
-58.41
-41.75
-23.87
-6.48
9.25
22.72
33.7
42.1
47.89
51.13
52.1
51.35
49.64
47.76
46.37
45.87
46.3
47.36
48.56
49.43
49.58
48.89
47.43
45.36
42.85
39.95
36.68
32.99
28.9
24.39
19.45
14.01
8.02
1.45
-5.52
-12.61
-19.53
-26.13
-32.51
-39.02
-46.17
-54.47
-64.14
-74.88
-85.76
-95.23
-101.43
-102.76
-98.26
-88.07
-73.29
-55.74
-37.37
-19.8
-4.04
9.44
20.58
29.38
35.89
40.17
42.53
43.53
43.94
44.56
45.92
48.12
50.81
53.38
55.3
56.31
56.5
56.15
55.48
54.49
52.9
50.3
46.43
41.31
35.3
28.99
22.95
17.55
12.76
8.23
3.4
-2.22
-8.78
-16.06
-23.48
-30.41
-36.44
-41.64
-46.51
-51.84
-58.4
-66.63
-76.49
-87.28
-97.71
-106.04
-110.46
-109.44
-102.29
-89.38
-72.12
-52.59
-32.92
-14.79
0.91
13.93
24.42
32.59
38.58
42.47
44.51
45.19
45.17
45.14
45.56
46.54
47.87
49.23
50.32
51.01
51.27
51.16
50.66
49.68
48.05
45.63
42.33
38.27
33.68
28.93
24.32
19.99
15.81
11.48
6.64
1.1
-5.01
-11.26
-17.19
-22.5
-27.28
-32.01
-37.34
-43.92
-52.12
-61.86
-72.52
-82.84
-91.12
-95.49
-94.47
-87.39
-74.74
-58.07
-39.51
-21.12
-4.36
10.09
22.14
31.91
39.47
44.74
47.71
48.63
48.1
46.98
46.08
45.99
46.87
48.55
50.6
52.53
53.88
54.23
53.37
51.24
47.98
43.86
39.2
34.21
29.01
23.62
18.01
12.26
6.48
0.84
-4.54
-9.61
-14.42
-19.13
-23.99
-29.36
-35.64
-43.23
-52.32
-62.64
-73.33
-82.9
-89.53
-91.47
-87.62
-77.93
-63.47
-46.15
-28.15
-11.31
3.34
15.58
25.71
34.13
41.01
46.27
49.84
51.87
52.87
53.52
54.41
55.73
57.26
58.57
59.33
59.44
59.06
58.37
57.33
55.65
52.9
48.76
43.27
36.85
30.12
23.63
17.66
12.14
6.72
0.99
-5.3
-12.12
-19.19
-26.09
-32.36
-37.84
-42.68
-47.39
-52.78
-59.7
-68.71
-79.74
-91.93
-103.6
-112.6
-116.87
-115.06
-106.88
-93.23
-75.89
-56.88
-38.03
-20.5
-4.87
8.68
20.13
29.37
36.26
40.8
43.34
44.52
45.15
45.92
47.22
48.97
50.79
52.22
52.98
53.09
52.74
52.19
51.55
50.71
49.33
47.09
43.74
39.37
34.3
29.07
24.19
19.95
16.27
12.78
8.96
4.37
-1.1
-7.28
-13.72
-20.01
-25.88
-31.35
-36.69
-42.35
-48.84
-56.6
-65.8
-76.11
-86.51
-95.4
-100.81
-101.04
-95.24
-83.66
-67.69
-49.34
-30.65
-13.12
2.48
15.91
27.17
36.19
42.78
46.87
48.57
48.45
47.3
45.97
45.09
44.97
45.58
46.63
47.76
48.62
48.96
48.59
47.45
45.52
42.84
39.48
35.58
31.34
27.0
22.77
18.78
14.96
11.07
6.83
2.0
-3.41
-9.22
-15.07
-20.7
-26.1
-31.63
-37.89
-45.48
-54.56
-64.51
-73.91
-80.8
-83.3
-80.22
-71.51
-58.2
-42.09
-25.13
-8.93
5.53
17.83
27.9
35.78
41.43
44.87
46.28
46.11
45.13
44.2
43.95
44.59
45.87
47.22
48.14
48.39
48.12
47.67
47.35
47.12
46.66
45.41
42.9
38.93
33.74
27.92
22.18
17.11
12.94
9.5
6.25
2.61
-1.89
-7.35
-13.53
-20.01
-26.3
-32.1
-37.36
-42.25
-47.22
-52.85
-59.8
-68.59
-79.27
-91.17
-102.76
-111.87
-116.2
-114.1
-105.14
-90.36
-71.85
-52.15
-33.4
-16.88
-2.89
8.87
18.85
27.29
34.1
39.12
42.32
44.02
44.89
45.64
46.8
48.52
50.55
52.47
53.88
54.63
54.84
54.73
54.48
54.03
53.05
51.12
47.92
43.45
38.11
32.54
27.42
23.12
19.65
16.64
13.54
9.89
5.44
0.19
-5.67
-11.89
-18.18
-24.29
-30.04
-35.45
-40.75
-46.38
-52.88
-60.67
-69.8
-79.83
-89.63
-97.64
-102.08
-101.47
-95.09
-83.31
-67.5
-49.66
-31.75
-15.2
-0.68
11.74
22.22
30.85
37.55
42.25
45.07
46.45
47.02
47.42
48.03
48.96
50.08
51.19
52.17
52.86
53.18
52.97
52.11
50.47
48.03
44.84
41.02
36.76
32.28
27.81
23.43
19.1
14.67
9.94
4.85
-0.45
-5.67
-10.55
-15.07
-19.55
-24.6
-30.92
-38.98
-48.78
-59.66
-70.33
-79.04
-83.98
-83.74
-77.74
-66.49
-51.42
-34.55
-17.87
-2.89
9.61
19.47
26.93
32.27
35.69
37.37
37.62
36.95
36.09
35.68
36.08
37.21
38.74
40.26
41.51
42.46
43.13
43.48
43.21
41.97
39.49
35.79
31.24
26.38
21.73
17.53
13.73
9.97
5.79
0.81
-5.15
-11.93
-19.15
-26.28
-32.9
-38.85
-44.3
-49.81
-56.06
-63.71
-73.04
-83.75
-94.71
-104.23
-110.25
-111.06
-105.76
-94.61
-78.95
-60.76
-42.02
-24.28
-8.45
5.17
16.55
25.73
32.74
37.63
40.62
42.21
43.02
43.69
44.62
45.89
47.32
48.62
49.57
50.17
50.57
50.93
51.22
51.2
50.45
48.52
45.19
40.58
35.12
29.44
24.12
19.49
15.52
11.84
7.95
3.49
-1.72
-7.49
-13.46
-19.2
-24.44
-29.19
-33.76
-38.7
-44.69
-52.22
-61.4
-71.78
-82.15
-90.79
-95.79
-95.6
-89.52
-77.98
-62.45
-44.92
-27.36
-11.22
2.77
14.44
23.85
31.05
35.99
38.67
39.36
38.69
37.55
36.81
37.09
38.53
40.91
43.76
46.57
48.88
50.35
50.78
50.08
48.34
45.76
42.56
38.94
34.95
30.54
25.62
20.21
14.42
8.45
2.47
-3.41
-9.12
-14.69
-20.14
-25.63
-31.41
-37.87
-45.31
-53.67
-62.3
-69.89
-74.73
-75.21
-70.36
-60.26
-45.99
-29.35
-12.29
3.56
17.2
28.21
36.55
42.38
45.83
47.15
46.75
45.32
43.67
42.6
42.57
43.56
45.13
46.61
47.51
47.6
47.01
45.97
44.63
42.93
40.64
37.54
33.55
28.86
23.82
18.79
13.96
9.27
4.44
-0.88
-6.87
-13.46
-20.3
-26.9
-32.82
-37.9
-42.39
-46.93
-52.38
-59.55
-68.84
-79.89
-91.53
-101.8
-108.46
-109.61
-104.29
-92.83
-76.72
-58.12
-39.16
-21.45
-5.81
7.6
18.96
28.44
36.08
41.81
45.7
48.06
49.44
50.48
51.66
53.1
54.56
55.67
56.18
56.09
55.68
55.24
54.9
54.44
53.45
51.49
48.36
44.15
39.23
34.01
28.85
23.9
19.18
14.55
9.81
4.76
-0.72
-6.64
-12.8
-18.91
-24.63
-29.77
-34.4
-38.96
-44.02
-50.21
-57.95
-67.26
-77.57
-87.7
-95.96
-100.57
-100.06
-93.78
-82.11
-66.39
-48.51
-30.33
-13.3
1.78
14.59
25.09
33.25
39.02
42.47
43.88
43.84
43.1
42.41
42.26
42.84
44.05
45.64
47.35
48.94
50.15
50.75
50.51
49.26
47.0
43.9
40.17
36.06
31.74
27.26
22.58
17.63
12.29
6.5
0.31
-6.11
-12.48
-18.52
-24.08
-29.2
-34.24
-39.75
-46.36
-54.45
-63.83
-73.6
-82.13
-87.38
-87.58
-81.78
-70.27
-54.56
-36.82
-19.2
-3.25
10.25
21.17
29.63
35.73
39.5
41.09
40.97
39.95
38.97
38.82
39.81
41.78
44.21
46.53
48.3
49.27
49.35
48.54
46.83
44.32
41.14
37.53
33.64
29.51
24.99
19.85
13.87
7.01
-0.58
-8.53
-16.38
-23.72
-30.29
-36.14
-41.62
-47.32
-53.92
-62.02
-71.81
-82.84
-93.94
-103.28
-108.87
-109.01
-102.94
-91.02
-74.69
-56.0
-37.01
-19.32
-3.76
9.46
20.5
29.59
36.84
42.23
45.8
47.69
48.32
48.23
47.93
47.78
47.86
48.08
48.3
48.41
48.38
48.11
47.45
46.13
43.94
40.76
36.74
32.18
27.4
22.65
17.98
13.32
8.53
3.51
-1.79
-7.31
-12.95
-18.55
-23.98
-29.28
-34.69
-40.77
-48.2
-57.57
-68.85
-81.19
-92.83
-101.46
-104.87
-101.7
-91.84
-76.54
-57.93
-38.39
-19.88
-3.53
10.35
21.92
31.42
38.94
44.38
47.72
49.18
49.35
48.97
48.67
48.81
49.34
50.05
50.72
51.32
51.91
52.55
53.1
53.2
52.42
50.47
47.3
43.16
38.42
33.48
28.53
23.6
18.62
13.48
8.13
2.61
-3.03
-8.73
-14.5
-20.43
-26.75
-33.75
-41.77
-50.96
-61.05
-71.13
-79.69
-84.91
-85.2
-79.76
-68.91
-53.98
-36.92
-19.65
-3.61
10.44
22.23
31.77
39.06
44.06
46.85
47.76
47.34
46.24
45.04
44.05
43.33
42.81
42.33
41.78
41.01
39.89
38.32
36.25
33.71
30.84
27.73
24.38
20.66
16.34
11.29
5.56
-0.54
-6.56
-12.14
-17.15
-21.77
-26.41
-31.57
-37.66
-44.93
-53.39
-62.75
-72.26
-80.65
-86.33
-87.65
-83.5
-73.75
-59.4
-42.26
-24.42
-7.62
7.13
19.5
29.56
37.43
43.18
46.87
48.72
49.2
49.0
48.78
49.0
49.75
50.81
51.83
52.51
52.68
52.28
51.28
49.6
47.15
43.86
39.78
35.13
30.22
25.34
20.64
16.03
11.27
6.07
0.26
-6.09
-12.64
-18.95
-24.69
-29.8
-34.61
-39.74
-45.9
-53.59
-62.9
-73.28
-83.61
-92.28
-97.57
-98.01
-92.84
-82.3
-67.58
-50.48
-32.92
-16.39
