0
37.89
40.84
42.52
43.22
43.32
43.2
43.16
43.38
43.94
44.86
46.13
47.71
49.58
51.67
53.8
55.64
56.74
56.61
54.95
51.78
47.49
42.7
38.0
33.67
29.59
25.36
20.63
15.36
9.9
4.78
0.43
-3.12
-6.24
-9.55
-13.49
-18.22
-23.47
-28.75
-33.62
-37.86
-41.59
-45.18
-49.17
-54.11
-60.44
-68.29
-77.34
-86.64
-94.69
-99.62
-99.75
-94.11
-82.88
-67.37
-49.71
-32.12
-16.33
-3.21
7.22
15.44
21.98
27.19
31.18
33.95
35.63
36.52
37.06
37.64
38.44
39.39
40.28
40.95
41.44
41.96
42.77
44.03
45.61
47.21
48.38
48.73
47.98
46.04
43.01
39.21
35.06
30.94
27.13
23.58
20.06
16.31
12.21
7.94
3.88
0.43
-2.27
-4.35
-6.24
-8.43
-11.39
-15.37
-20.35
-25.94
-31.51
-36.38
-40.04
-42.41
-43.91
-45.39
-47.78
-51.87
-58.05
-66.09
-75.14
-83.72
-89.93
-91.93
-88.44
-79.27
-65.51
-49.17
-32.56
-17.57
-5.19
4.52
12.08
18.19
23.34
27.71
31.26
33.9
35.63
36.6
37.03
37.21
37.36
37.62
38.08
38.8
39.82
41.21
43.01
45.09
47.16
48.71
49.2
48.29
46.02
42.84
39.42
36.41
34.13
32.46
30.99
29.2
26.68
23.33
19.31
14.98
10.79
7.13
4.2
2.0
0.23
-1.61
-4.0
-7.22
-11.25
-15.78
-20.34
-24.59
-28.38
-31.82
-35.16
-38.7
-42.71
-47.44
-53.01
-59.36
-66.0
-71.96
-75.88
-76.39
-72.62
-64.55
-53.09
-39.84
-26.47
-14.33
-4.11
4.11
10.59
15.71
19.74
22.84
25.09
26.6
27.53
28.12
28.62
29.24
30.07
31.11
32.25
33.45
34.69
35.99
37.34
38.58
39.48
39.76
39.28
38.1
36.35
34.22
31.78
29.03
25.96
22.64
19.21
15.82
12.58
9.48
6.49
3.57
0.7
-2.14
-4.99
-7.92
-10.95
-14.01
-17.01
-19.88
-22.68
-25.66
-29.14
-33.48
-38.84
-45.08
-51.68
-57.73
-62.06
-63.51
-61.31
-55.39
-46.43
-35.71
-24.66
-14.48
-5.8
1.25
6.84
11.23
14.55
16.9
18.38
19.2
19.61
19.85
20.06
20.24
20.4
20.55
20.8
21.29
22.12
23.23
24.46
25.53
26.13
26.07
25.24
23.71
21.64
19.28
16.9
14.66
12.57
10.48
8.19
5.56
2.61
-0.43
-3.23
-5.57
-7.38
-8.85
-10.3
-12.06
-14.29
-16.97
-19.88
-22.77
-25.49
-28.08
-30.79
-34.04
-38.2
-43.46
-49.67
-56.2
-62.03
-65.9
-66.7
-63.83
-57.41
-48.23
-37.57
-26.78
-16.93
-8.63
-1.97
3.31
7.62
11.29
14.41
16.93
18.73
19.8
20.38
20.78
21.34
22.17
23.21
24.25
25.2
26.14
27.26
28.72
30.43
32.03
33.1
33.38
32.86
31.82
30.64
29.55
28.6
27.64
26.46
24.89
22.88
20.49
17.93
15.38
13.07
11.08
9.35
7.72
6.02
4.19
2.25
0.35
-1.41
-2.99
-4.52
-6.16
-8.06
-10.33
-12.93
-15.78
-18.75
-21.7
-24.56
-27.31
-30.06
-33.03
-36.58
-41.02
-46.46
-52.57
-58.61
-63.42
-65.77
-64.69
-59.82
-51.58
-41.02
-29.51
-18.32
-8.35
-0.04
6.64
11.86
15.84
18.7
20.51
21.37
21.44
20.97
20.3
19.74
19.51
19.74
20.46
21.62
23.14
24.91
26.81
28.66
30.29
31.43
31.88
31.53
30.42
28.76
26.86
25.02
23.41
21.93
20.29
18.13
15.26
11.81
8.23
5.05
2.61
0.93
-0.39
-1.91
-4.02
-6.81
-10.04
-13.32
-16.35
-19.09
-21.69
-24.46
-27.66
-31.49
-36.08
-41.46
-47.4
-53.28
-58.09
-60.55
-59.54
-54.56
-45.93
-34.82
-22.85
-11.58
-2.06
5.31
10.74
14.78
18.01
20.79
23.21
25.13
26.33
26.71
26.32
25.47
24.56
24.0
24.05
24.73
25.91
27.35
28.79
30.07
31.06
31.68
31.84
31.49
30.56
29.04
27.04
24.74
22.43
20.34
18.58
17.1
15.68
14.06
12.08
9.73
7.05
4.15
1.11
-1.91
-4.7
-6.97
-8.53
-9.39
-9.88
-10.58
-11.98
-14.35
-17.49
-20.97
-24.31
-27.29
-30.01
-32.81
-36.1
-40.2
-45.27
-51.26
-57.8
-64.08
-68.91
-70.93
-69.05
-62.93
-53.14
-41.07
-28.44
-16.69
-6.66
1.46
7.89
12.91
16.71
19.36
20.96
21.69
21.81
21.57
21.16
20.71
20.37
20.35
20.89
22.14
24.1
26.55
29.18
31.6
33.49
34.59
34.78
34.14
32.85
31.26
29.64
28.13
26.68
25.1
23.22
21.03
18.66
16.33
14.18
12.26
10.46
8.66
6.73
4.63
2.34
-0.05
-2.44
-4.66
-6.6
-8.3
-9.93
-11.81
-14.22
-17.29
-20.89
-24.73
-28.47
-31.88
-34.88
-37.61
-40.42
-43.79
-48.31
-54.34
-61.83
-69.98
-77.36
-82.14
-82.74
-78.34
-69.22
-56.69
-42.64
-28.88
-16.74
-6.77
1.07
7.11
11.72
15.15
17.52
18.95
19.7
20.13
20.63
21.44
22.6
23.93
25.24
26.44
27.66
29.14
31.09
33.47
35.97
38.14
39.59
40.16
39.94
39.23
38.29
37.22
35.96
34.33
32.2
29.52
26.39
22.94
19.35
15.76
12.29
9.01
5.98
3.25
0.8
-1.38
-3.43
-5.54
-7.98
-11.05
-14.94
-19.64
-24.91
-30.31
-35.36
-39.72
-43.42
-46.77
-50.38
-54.89
-60.8
-68.17
-76.49
-84.57
-90.77
-93.36
-90.97
-83.16
-70.54
-54.7
-37.64
-21.21
-6.67
5.51
15.41
23.3
29.49
34.07
37.15
38.84
39.42
39.31
39.0
38.92
39.33
40.34
41.83
43.6
45.45
47.27
49.07
50.9
52.71
54.3
55.37
55.61
54.86
53.2
50.81
47.91
44.63
41.06
37.25
33.35
29.49
25.83
22.41
19.22
16.15
13.13
10.15
7.21
4.37
1.56
-1.32
-4.43
-7.96
-12.05
-16.73
-21.91
-27.33
-32.66
-37.6
-42.02
-46.06
-50.13
-54.78
-60.56
-67.79
-76.43
-85.85
-94.86
-101.8
-104.84
-102.57
-94.42
-80.98
-63.82
-45.04
-26.64
-10.01
4.22
16.03
25.62
33.17
38.78
42.5
44.58
45.39
45.44
45.2
45.04
45.2
45.81
46.92
48.46
50.34
52.4
54.48
56.49
58.33
59.89
60.99
61.39
60.86
59.32
56.89
53.82
50.41
46.9
43.4
39.92
36.42
32.93
29.51
26.34
23.57
21.36
19.71
18.47
17.3
15.83
13.73
10.86
7.32
3.43
-0.42
-3.86
-6.73
-9.13
-11.34
-13.79
-16.93
-21.02
-26.08
-31.83
-37.75
-43.32
-48.2
-52.41
-56.4
-60.92
-66.77
-74.45
-83.9
-94.26
-103.91
-110.76
-112.71
-108.28
-97.05
-79.93
-58.93
-36.61
-15.41
2.94
17.63
28.7
36.64
42.14
45.77
48.0
49.19
49.68
49.74
49.58
49.34
49.15
49.1
49.37
50.06
51.24
52.85
54.69
56.48
57.94
58.79
58.87
58.08
56.48
54.18
51.34
48.13
44.63
40.93
37.06
33.14
29.25
25.45
21.73
17.99
14.15
10.16
6.12
2.22
-1.33
-4.41
-7.12
-9.71
-12.51
-15.83
-19.86
-24.6
-29.88
-35.41
-40.83
-45.86
-50.41
-54.66
-59.11
-64.48
-71.45
-80.34
-90.66
-100.99
-109.18
-112.86
-110.21
-100.54
-84.59
-64.31
-42.24
-20.83
-1.92
13.54
25.41
34.03
40.0
43.88
46.15
47.21
47.37
46.9
46.08
45.17
44.4
44.0
44.13
44.87
46.22
48.07
50.21
52.37
54.25
55.54
55.87
54.93
52.53
48.76
43.98
38.83
33.96
29.81
26.41
23.36
20.09
16.06
11.1
5.46
-0.31
-5.57
-9.88
-13.14
-15.65
-17.97
-20.76
-24.54
-29.52
-35.45
-41.78
-47.81
-53.02
-57.3
-61.0
-64.86
-69.78
-76.52
-85.4
-96.15
-107.72
-118.32
-125.72
-127.77
-123.04
-111.38
-94.05
-73.35
-51.85
-31.59
-13.7
1.64
14.69
25.72
34.74
41.6
46.24
48.79
49.77
49.79
49.47
49.25
49.4
50.0
51.08
52.59
54.49
56.76
59.39
62.25
65.07
67.33
68.44
67.92
65.67
62.03
57.58
52.9
48.32
43.83
39.28
34.55
29.7
24.94
20.48
16.38
12.5
8.65
4.67
0.52
-3.73
-8.02
-12.39
-16.96
-21.93
-27.43
-33.47
-39.87
-46.29
-52.37
-57.85
-62.86
-67.87
-73.76
-81.5
-91.72
-104.34
-118.19
-131.09
-140.23
-142.97
-137.6
-123.84
-102.98
-77.4
-49.93
-23.16
1.07
21.74
38.53
51.55
61.18
67.89
72.25
74.87
76.29
76.89
76.92
76.47
75.68
74.81
74.24
74.37
75.46
77.43
79.94
82.46
84.42
85.34
84.85
82.67
78.77
73.41
67.22
60.96
55.28
50.33
45.71
40.73
34.76
27.71
19.97
12.31
5.33
-0.69
-5.95
-10.89
-15.96
-21.46
-27.44
-33.78
-40.15
-46.19
-51.67
-56.62
-61.53
-67.26
-74.79
-84.75
-96.96
-110.14
-122.01
-129.8
-130.9
-123.71
-108.13
-85.62
-58.81
-30.78
-4.26
18.87
37.71
52.2
62.72
69.86
74.2
76.3
76.67
75.83
74.22
72.26
70.33
68.73
67.73
67.48
68.03
69.27
71.04
73.07
74.98
76.3
76.52
75.23
72.28
67.88
62.55
56.93
51.52
46.57
41.94
37.3
32.23
26.47
20.02
13.16
6.36
0.18
-5.03
-9.28
-12.96
-16.75
-21.29
-26.9
-33.41
-40.23
-46.63
-52.13
-56.78
-61.15
-66.17
-72.76
-81.57
-92.62
-105.19
-117.68
-127.85
-133.2
-131.52
-121.69
-104.06
-80.49
-53.87
-27.26
-3.13
17.12
33.15
45.27
54.07
60.02
63.55
65.05
65.06
64.2
63.05
62.02
61.25
60.74
60.45
60.4
60.67
61.33
62.37
63.72
65.11
66.23
66.68
66.07
64.12
60.75
56.16
50.8
45.21
39.86
34.99
30.59
26.43
22.25
17.82
13.08
8.08
2.98
-2.0
-6.6
-10.74
-14.54
-18.3
-22.45
-27.26
-32.73
-38.53
-44.17
-49.26
-53.72
-57.8
-62.07
-67.15
-73.63
-81.85
-91.76
-102.7
-113.25
-121.36
-124.7
-121.4
-110.67
-93.17
-70.87
-46.49
-22.71
-1.53
16.03
29.81
40.24
47.96
53.52
57.32
59.64
60.69
60.74
60.11
59.16
58.2
57.48
57.1
57.11
57.49
58.24
59.32
60.64
61.96
62.96
63.18
62.23
59.87
56.16
51.42
46.15
40.87
35.93
31.44
27.24
23.09
18.77
14.16
9.27
4.28
-0.58
-5.05
-8.93
-12.14
-14.8
-17.23
-19.85
-23.08
-27.14
-32.04
-37.53
-43.2
-48.61
-53.52
-57.98
-62.39
-67.44
-73.81
-81.82
-91.07
-100.31
-107.61
-110.87
-108.45
-99.74
-85.36
-66.95
-46.72
-26.77
-8.73
6.49
18.65
27.91
34.6
39.09
41.73
42.9
43.02
42.57
42.0
41.64
41.68
42.15
43.02
44.27
45.8
47.54
49.29
50.88
52.09
52.78
52.81
52.07
50.46
47.94
44.61
40.71
36.58
32.52
28.7
25.07
21.45
17.66
13.59
9.31
5.0
0.92
-2.66
-5.63
-8.1
-10.45
-13.14
-16.54
-20.74
-25.45
-30.17
-34.43
-38.04
-41.19
-44.31
-47.98
-52.73
-58.93
-66.63
-75.39
-84.16
-91.25
-94.75
-93.07
-85.57
-72.85
-56.61
-39.09
-22.41
-8.05
3.32
11.74
17.69
21.84
24.81
27.1
29.01
30.58
31.75
32.39
32.45
32.06
31.44
30.91
30.69
30.98
31.89
33.41
35.42
37.62
39.57
40.75
40.76
39.42
36.89
33.61
30.13
27.0
24.56
22.87
21.75
20.84
19.71
18.04
15.62
12.5
8.97
5.47
2.44
0.18
-1.29
-2.23
-3.02
-4.08
-5.63
-7.65
-10.02
-12.56
-15.1
-17.61
-20.15
-22.74
-25.43
-28.18
-30.92
-33.57
-36.12
-38.59
-41.09
-43.7
-46.47
-49.41
-52.56
-56.06
-60.03
-64.36
-68.47
-71.24
-71.35
-67.76
-60.29
-49.79
-37.81
-25.99
-15.46
-6.6
0.84
7.23
12.77
17.38
20.85
23.13
24.31
24.68
24.53
24.13
23.66
23.29
23.18
23.45
24.19
25.38
26.93
28.74
30.56
32.08
32.98
33.02
32.17
30.62
28.67
26.61
24.61
22.64
20.65
18.61
16.5
14.35
12.15
9.93
7.71
5.64
3.82
2.28
0.93
-0.42
-1.91
-3.52
-5.12
-6.55
-7.78
-8.96
-10.44
-12.43
-15.08
-18.29
-21.85
-25.55
-29.2
-32.64
-35.81
-38.73
-41.55
-44.58
-48.22
-52.75
-58.12
-63.85
-69.04
-72.55
-73.34
-70.72
-64.7
-55.88
-45.38
-34.49
-24.36
-15.68
-8.68
-3.25
0.94
4.18
6.62
8.32
9.29
9.58
9.41
9.05
8.85
9.13
10.09
11.79
14.11
16.79
19.48
21.87
23.77
25.09
25.88
26.22
26.18
25.8
25.13
24.2
23.04
21.7
20.18
18.48
16.55
14.39
12.04
9.55
7.01
4.47
2.0
-0.33
-2.45
-4.33
-6.04
-7.72
-9.59
-11.92
-14.82
-18.27
-22.05
-25.87
-29.45
-32.63
-35.34
-37.67
-39.84
-42.23
-45.33
-49.65
-55.44
-62.47
-69.83
-76.08
-79.59
-79.1
-74.14
-65.21
-53.57
-40.84
-28.51
-17.64
-8.68
-1.6
3.92
8.31
11.89
14.86
17.28
19.14
20.45
21.28
21.73
21.96
22.12
22.46
23.25
24.72
27.01
29.99
33.31
36.49
39.04
40.61
41.08
40.45
38.94
36.82
34.45
32.21
30.36
28.96
27.83
26.64
25.06
22.91
20.24
17.29
14.41
11.9
9.99
8.71
7.87
7.11
5.99
4.17
1.56
-1.63
-5.03
-8.27
-11.21
-13.97
-16.83
-20.06
-23.71
-27.72
-31.86
-36.0
-40.12
-44.31
-48.75
-53.56
-58.86
-64.81
-71.6
-79.28
-87.57
-95.63
-102.08
-105.25
-103.72
-96.8
-84.84
-69.15
-51.59
-34.03
-17.96
-4.14
7.19
16.19
23.17
28.4
32.12
34.54
35.97
36.71
37.1
37.35
37.63
38.02
38.7
39.85
41.65
44.18
47.31
50.74
54.1
57.03
59.26
60.62
61.0
60.35
58.72
56.32
53.45
50.42
47.38
44.32
41.1
37.61
33.85
29.96
26.14
22.58
19.41
16.62
14.13
11.75
9.23
6.34
2.99
-0.71
-4.47
-8.0
-11.17
-14.15
-17.39
-21.38
-26.46
-32.63
-39.55
-46.7
-53.64
-60.13
-66.22
-72.22
-78.62
-85.96
-94.8
-105.32
-117.09
-128.83
-138.46
-143.51
-141.85
-132.35
-115.31
-92.45
-66.39
-39.9
-15.27
5.99
23.23
36.47
46.1
52.7
56.88
59.21
60.23
60.43
60.32
60.38
61.0
62.48
64.85
68.0
71.69
75.7
79.77
83.73
87.31
90.24
92.17
92.84
92.08
89.89
86.38
81.78
76.47
70.8
65.12
59.59
54.18
48.69
42.93
36.85
30.61
24.55
19.03
14.25
10.21
6.6
3.03
-0.95
-5.7
-11.35
-17.81
-24.72
-31.6
-38.01
-43.81
-49.15
-54.54
-60.6
-67.91
-76.94
-87.81
-100.11
-112.66
-123.34
-129.44
-128.36
-118.58
-100.38
-75.95
-48.66
-21.98
1.63
21.11
36.62
48.82
58.29
65.31
69.95
72.41
73.14
72.8
71.97
71.07
70.26
69.54
69.0
68.85
69.42
71.05
73.85
77.58
81.65
85.21
87.39
87.6
85.69
82.03
77.24
72.01
66.83
61.85
57.08
52.42
47.85
43.38
39.01
34.67
30.27
25.85
21.59
17.83
14.87
12.8
11.38
10.07
8.31
5.71
2.18
-2.04
-6.53
-10.9
-14.94
-18.68
-22.36
-26.34
-30.89
-36.12
-41.88
-47.78
-53.43
-58.58
-63.27
-67.91
-73.13
-79.6
-87.79
-97.7
-108.64
-119.11
-126.93
-129.66
-125.32
-113.07
-93.64
-69.16
-42.53
-16.59
6.57
25.83
40.92
52.03
59.53
63.87
65.63
65.51
64.2
62.3
60.21
58.18
56.44
55.24
54.78
55.17
56.34
58.03
59.97
61.88
63.55
64.74
65.17
64.57
62.83
60.01
56.43
52.45
48.37
44.25
40.0
35.46
30.64
25.7
20.92
16.63
12.96
9.87
7.13
4.47
1.71
-1.22
-4.24
-7.21
-10.12
-13.14
-16.6
-20.87
-26.1
-32.11
-38.43
-44.41
-49.6
-53.91
-57.68
-61.52
-66.14
-72.04
-79.48
-88.27
-97.63
-106.2
-112.06
-113.17
-108.03
-96.21
-78.73
-57.71
-35.79
-15.34
2.14
16.08
26.67
34.41
39.83
43.31
45.16
45.67
45.16
44.04
42.69
41.44
40.51
40.02
40.02
40.55
41.72
43.6
46.14
49.04
51.72
53.51
53.87
52.63
50.06
46.7
43.11
39.64
36.34
33.05
29.58
25.83
21.88
17.89
14.04
10.45
7.17
4.16
1.34
-1.41
-4.17
-6.97
-9.74
-12.38
-14.83
-17.22
-19.86
-23.13
-27.3
-32.3
-37.73
-43.01
-47.63
-51.44
-54.68
-57.93
-61.94
-67.33
-74.46
-83.13
-92.44
-100.79
-106.19
-106.71
-101.14
-89.5
-73.06
-53.98
-34.64
-16.97
-2.13
9.52
18.2
24.37
28.58
31.3
32.9
33.69
33.87
33.62
33.15
32.72
32.53
32.74
33.38
34.44
35.92
37.85
40.29
43.14
46.06
48.48
49.81
49.61
47.83
44.77
40.99
37.1
33.55
30.59
28.14
25.95
23.63
20.92
17.8
14.53
11.54
9.17
7.49
6.2
4.84
3.05
0.77
-1.79
-4.27
-6.49
-8.5
-10.62
-13.23
-16.58
-20.68
-25.32
-30.16
-34.87
-39.23
-43.17
-46.85
-50.55
-54.69
-59.74
-66.09
-73.9
-82.89
-92.21
-100.39
-105.5
-105.7
-99.78
-87.7
-70.72
-51.08
-31.31
-13.46
1.31
12.81
21.49
28.01
32.89
36.39
38.63
39.74
39.96
39.59
39.01
38.51
38.32
38.57
39.38
40.81
42.87
45.49
48.43
51.37
53.84
55.4
55.72
54.7
52.5
49.52
46.23
43.04
40.11
37.39
34.65
31.58
28.04
23.98
19.52
14.8
10.01
5.26
0.69
-3.54
-7.28
-10.46
-13.19
-15.78
-18.64
-22.15
-26.48
-31.5
-36.84
-42.03
-46.72
-50.78
-54.36
-57.9
-62.01
-67.35
-74.38
-83.19
-93.13
-102.76
-109.96
-112.52
-108.75
-98.16
-81.69
-61.47
-40.15
-20.05
-2.68
11.46
22.57
31.16
37.64
42.31
45.32
46.92
47.49
47.51
47.37
47.33
47.45
47.74
48.2
48.92
50.0
51.5
53.37
55.43
57.44
59.07
59.97
59.81
58.31
55.39
51.26
46.37
41.27
36.43
31.98
27.83
23.67
19.22
14.42
9.4
4.44
-0.15
-4.18
-7.69
-10.94
-14.35
-18.29
-22.92
-28.13
-33.54
-38.69
-43.32
-47.44
-51.38
-55.68
-60.94
-67.65
-76.06
-85.92
-96.28
-105.44
-111.2
-111.51
-105.1
-92.1
-73.94
-52.98
-31.73
-12.19
4.45
17.83
28.11
35.73
41.21
45.0
47.5
49.03
49.79
49.95
49.73
49.41
49.27
49.56
50.39
51.76
53.58
55.75
58.14
60.58
62.77
64.28
64.68
63.69
61.25
57.63
53.32
48.84
44.61
40.77
37.25
33.83
30.32
26.59
22.69
18.75
14.88
11.15
7.51
3.89
0.28
-3.24
-6.53
-9.49
-12.19
-14.93
-18.12
-22.17
-27.21
-33.04
-39.15
-44.91
-49.88
-54.01
-57.67
-61.59
-66.64
-73.53
-82.53
-93.13
-103.96
-112.85
-117.32
-115.3
-105.84
-89.58
-68.52
-45.46
-23.06
-3.24
13.14
26.06
35.95
43.4
48.89
52.85
55.61
57.45
58.52
58.93
58.77
58.2
57.51
56.99
56.89
57.36
58.4
59.93
61.76
63.63
65.16
65.94
65.62
64.02
61.19
57.37
52.91
48.12
43.26
38.44
33.64
28.76
23.65
18.23
12.59
7.02
1.88
-2.51
-6.16
-9.37
-12.64
-16.47
-21.09
-26.39
-32.04
-37.65
-42.89
-47.65
-52.02
-56.36
-61.29
-67.47
-75.38
-84.92
-95.16
-104.31
-110.2
-110.82
-105.04
-93.0
-76.01
-56.15
-35.66
-16.38
0.54
14.65
25.98
34.78
41.32
45.77
48.32
49.24
48.93
47.92
46.72
45.74
45.23
45.34
46.07
47.43
49.34
51.68
54.17
56.45
58.13
58.86
58.41
56.71
53.89
50.22
46.11
41.89
37.8
33.83
29.75
25.25
20.13
14.47
8.62
3.06
-1.82
-5.94
-9.56
-13.13
-17.09
-21.61
-26.58
-31.69
-36.63
-41.24
-45.64
-50.11
-55.04
-60.79
-67.74
-76.04
-85.42
-94.98
-103.12
-107.82
-107.23
-100.29
-87.23
-69.53
-49.42
-29.23
-10.78
4.92
17.61
27.49
34.95
40.35
44.01
46.15
47.0
46.85
46.13
45.32
44.85
44.94
45.55
46.49
47.52
48.55
49.6
50.75
51.96
53.01
53.6
53.42
52.35
50.37
47.55
43.95
39.7
34.99
30.15
25.57
21.51
18.02
14.94
12.0
8.92
5.59
2.05
-1.56
-5.04
-8.26
-11.18
-13.92
-16.69
-19.81
-23.49
-27.78
-32.51
-37.36
-42.01
-46.32
-50.35
-54.44
-59.08
-64.81
-71.99
-80.64
-90.08
-98.95
-105.32
-107.25
-103.34
-93.31
-78.08
-59.53
-39.91
-21.23
-4.83
8.68
19.37
27.63
33.97
38.77
42.25
44.51
45.59
45.71
45.22
44.68
44.53
45.0
46.07
47.51
49.14
50.84
52.62
54.43
56.13
57.38
57.82
57.18
55.36
52.51
48.91
44.92
40.91
37.18
33.86
30.87
27.92
24.64
20.74
16.25
11.46
6.8
2.7
-0.65
-3.36
-5.72
-8.17
-11.04
-14.54
-18.71
-23.43
-28.44
-33.43
-38.16
-42.49
-46.51
-50.55
-55.17
-60.94
-68.3
-77.18
-86.8
-95.65
-101.68
-102.96
-98.22
-87.41
-71.77
-53.47
-34.87
-17.9
-3.58
7.94
16.99
24.04
29.36
33.06
35.19
35.95
35.74
35.04
34.32
33.87
33.84
34.24
35.03
36.15
37.58
39.28
41.18
43.17
45.01
46.36
46.88
46.27
44.44
41.62
38.27
34.86
31.66
28.67
25.61
22.2
18.24
13.85
9.34
5.07
1.3
-1.88
-4.65
-7.32
-10.26
-13.74
-17.88
-22.47
-27.16
-31.51
-35.23
-38.36
-41.26
-44.52
-48.75
-54.43
-61.68
-70.24
-79.19
-87.12
-92.26
-92.88
-87.99
-77.6
-62.99
-46.2
-29.46
-14.49
-2.16
7.54
15.09
21.11
25.99
29.87
32.74
34.54
35.34
35.37
34.96
34.5
34.34
34.69
35.61
37.04
38.83
40.85
42.93
44.94
46.66
47.81
48.13
47.45
45.79
43.33
40.37
37.22
34.13
31.19
28.43
25.79
23.23
20.72
18.27
15.92
13.68
11.58
9.57
7.64
5.8
4.06
2.39
0.75
-1.03
-3.12
-5.62
-8.46
-11.43
-14.19
-16.53
-18.47
-20.27
-22.37
-25.13
-28.71
-33.0
-37.63
-42.23
-46.51
-50.41
-54.15
-58.1
-62.74
-68.49
-75.46
-83.26
-90.74
-96.22
-97.8
-94.1
-84.75
-70.66
-53.77
-36.35
-20.26
-6.56
4.55
13.32
20.12
25.18
28.62
30.58
31.36
31.35
30.99
30.69
30.75
31.42
32.79
34.84
37.34
39.97
42.41
44.53
46.35
47.95
49.36
50.42
50.86
50.44
49.13
47.13
44.79
42.45
40.28
38.27
36.26
34.02
31.4
28.37
25.03
21.62
18.39
15.55
13.2
11.3
9.72
8.27
6.83
5.31
3.69
1.92
-0.09
-2.39
-5.03
-7.95
-11.08
-14.35
-17.84
-21.67
-25.93
-30.62
-35.48
-40.13
-44.15
-47.31
-49.68
-51.8
-54.48
-58.65
-64.9
-73.08
-82.1
-90.0
-94.54
-93.86
-87.21
-75.2
-59.54
-42.52
-26.18
-11.91
-0.31
8.6
15.12
19.56
22.25
23.53
23.79
23.45
22.93
22.49
22.31
22.44
22.84
23.49
24.4
25.59
27.15
29.15
31.55
34.14
36.5
38.1
38.46
37.38
34.99
31.79
28.39
25.3
22.75
20.64
18.63
16.35
13.5
10.02
6.07
1.99
-1.87
-5.28
-8.23
-10.96
-13.82
-17.11
-20.93
-25.17
-29.55
-33.8
-37.8
-41.51
-45.13
-48.97
-53.5
-59.2
-66.42
-75.0
-84.05
-91.95
-96.72
-96.69
-91.07
-80.32
-65.89
-49.72
-33.65
-18.97
-6.35
4.09
12.51
19.27
24.71
29.1
32.58
35.15
36.73
37.32
37.11
36.46
35.83
35.63
36.12
37.45
39.59
42.41
45.61
48.75
51.34
52.93
53.33
52.61
51.04
48.97
46.71
44.41
42.1
39.74
37.21
34.44
31.39
28.11
24.73
21.4
18.25
15.24
12.25
9.12
5.8
2.38
-0.88
-3.76
-6.22
-8.44
-10.85
-13.91
-17.92
-22.98
-28.96
-35.54
-42.36
-49.08
-55.46
-61.52
-67.52
-74.01
-81.6
-90.68
-101.02
-111.54
-120.39
-125.34
-124.49
-116.89
-102.91
-84.18
-63.06
-41.91
-22.58
-6.06
7.47
18.26
26.75
33.28
38.12
41.47
43.64
44.93
45.69
46.25
46.82
47.6
48.74
50.42
52.76
55.82
59.47
63.44
67.31
70.64
73.02
74.18
73.98
72.49
69.92
66.64
63.12
59.74
56.7
53.97
51.33
48.46
45.13
41.35
37.28
33.25
29.54
26.35
23.68
21.42
19.33
17.14
14.64
11.75
8.55
5.17
1.73
-1.79
-5.6
-10.0
-15.21
-21.25
-27.89
-34.71
-41.32
-47.44
-53.09
-58.5
-64.13
-70.61
-78.58
-88.42
-99.85
-111.65
-121.78
-127.71
-127.27
-119.31
-104.14
-83.46
-59.8
-35.82
-13.66
5.38
20.79
32.64
41.31
47.23
50.8
52.38
52.41
51.35
49.79
48.31
47.38
47.24
47.92
49.28
51.21
53.59
56.34
59.29
62.1
64.32
65.49
65.29
63.67
60.8
57.04
52.75
48.23
43.63
38.96
34.08
28.81
23.08
17.0
10.92
5.27
0.36
-3.82
-7.62
-11.59
-16.21
-21.62
-27.61
-33.71
-39.47
-44.65
-49.36
-54.05
-59.34
-65.93
-74.37
-84.78
-96.63
-108.5
-118.23
-123.34
-121.74
-112.42
-95.88
-74.01
-49.52
-25.18
-3.15
15.38
30.1
41.34
49.65
55.61
59.64
62.09
63.23
63.32
62.76
61.96
61.36
61.27
61.83
62.93
64.39
65.99
67.57
69.0
70.15
70.87
70.95
70.19
68.46
65.73
62.07
57.68
52.79
47.63
42.41
37.26
32.25
27.45
22.85
18.46
14.2
9.96
5.57
0.96
-3.84
-8.61
-13.07
-17.03
-20.57
-24.03
-27.91
-32.68
-38.47
-45.06
-51.96
-58.6
-64.6
-69.97
-75.07
-80.58
-87.25
-95.73
-106.23
-118.24
-130.32
-140.15
-145.03
-142.58
-131.57
-112.44
-87.22
-59.0
-30.97
-5.73
15.21
31.44
43.29
51.58
57.21
60.92
63.29
64.67
65.3
65.4
65.29
65.31
65.75
66.7
68.1
69.8
71.7
73.8
76.12
78.53
80.69
82.09
82.22
80.83
78.05
74.27
70.0
65.65
61.4
57.14
52.69
47.85
42.61
37.16
31.83
26.94
22.62
18.7
14.81
10.55
5.81
0.78
-4.15
-8.6
-12.51
-16.16
-20.05
-24.64
-30.18
-36.65
-43.78
-51.23
-58.59
-65.54
-71.8
-77.45
-82.95
-89.15
-97.01
-107.04
-118.72
-130.37
-139.34
-142.8
-138.6
-126.01
-105.97
-80.78
-53.42
-26.79
-3.08
16.5
31.69
42.84
50.64
55.77
58.86
60.43
60.94
60.82
60.46
60.2
60.22
60.57
61.21
62.05
63.0
64.06
65.31
66.74
68.3
69.69
70.42
69.95
67.9
64.26
59.37
53.79
48.04
42.43
36.97
31.44
25.66
19.62
13.54
7.84
2.83
-1.41
-5.11
-8.86
-13.31
-18.84
-25.45
-32.6
-39.52
-45.48
-50.2
-53.98
-57.65
-62.28
-68.83
-77.87
-89.29
-102.03
-114.14
-123.0
-125.97
-121.21
-108.3
-88.5
-64.39
-39.04
-15.19
5.34
21.81
34.37
43.6
50.24
54.93
58.11
60.14
61.26
61.63
61.46
61.0
60.48
60.11
60.03
60.34
61.1
62.36
64.03
65.89
67.54
68.52
68.44
67.11
64.55
60.94
56.6
51.87
47.05
42.4
38.04
33.89
29.77
25.49
21.0
16.46
12.17
8.4
5.2
2.34
-0.54
-3.76
-7.42
-11.33
-15.15
-18.58
-21.49
-24.07
-26.79
-30.16
-34.59
-40.11
-46.34
-52.61
-58.26
-62.94
-66.83
-70.62
-75.27
-81.65
-90.23
-100.76
-112.09
-122.29
-128.92
-129.65
-123.0
-108.86
-88.67
-65.02
-40.91
-18.9
-0.51
13.76
24.27
31.77
36.99
40.57
42.95
44.47
45.44
46.14
46.8
47.63
48.71
50.06
51.57
53.16
54.75
56.34
58.04
59.88
61.81
63.54
64.68
64.79
63.6
61.12
57.66
53.69
49.66
45.84
42.24
38.72
35.11
31.35
27.52
23.82
20.4
17.32
14.55
11.95
9.34
6.55
3.46
0.08
-3.43
-6.83
-9.88
-12.54
-15.08
-17.98
-21.75
-26.64
-32.5
-38.82
-44.94
-50.36
-54.95
-58.94
-62.85
-67.34
-73.03
-80.38
-89.39
-99.38
-108.86
-115.77
-117.98
-113.97
-103.4
-87.27
-67.58
-46.77
-27.02
-9.84
4.02
14.48
21.94
27.02
30.45
32.86
34.66
36.02
36.93
37.37
37.46
37.45
37.62
38.24
39.32
40.81
42.55
44.46
46.48
48.52
50.35
51.54
51.6
50.13
47.11
42.94
38.33
34.03
30.46
27.53
24.68
21.27
16.87
11.59
5.97
0.7
-3.74
-7.3
-10.34
-13.38
-16.83
-20.81
-25.15
-29.52
-33.64
-37.39
-40.9
-44.51
-48.66
-53.83
-60.41
-68.48
-77.78
-87.44
-96.09
-101.97
-103.33
-99.03
-88.91
-74.0
-56.22
-37.81
-20.73
-6.11
5.73
15.13
22.66
28.81
33.8
37.63
40.14
41.33
41.35
40.58
39.56
38.76
38.53
39.0
40.15
41.86
44.01
46.48
49.05
51.37
53.02
53.61
52.91
51.01
48.26
45.15
42.12
39.43
37.06
34.78
32.2
29.03
25.19
20.92
16.7
13.08
10.44
8.83
7.96
7.26
6.16
4.27
1.47
-2.04
-5.86
-9.61
-13.06
-16.25
-19.44
-22.96
-27.07
-31.77
-36.81
-41.87
-46.69
-51.25
-55.73
-60.45
-65.78
-72.07
-79.59
-88.27
-97.54
-106.07
-111.94
-113.12
-108.21
-97.04
-80.83
-61.86
-42.63
-25.13
-10.41
1.38
10.68
18.08
24.05
28.84
32.5
35.06
36.56
37.25
37.49
37.81
38.67
40.33
42.74
45.58
48.46
51.08
53.27
54.99
56.2
56.8
56.67
55.78
54.2
52.15
49.89
47.66
45.55
43.53
41.37
38.78
35.56
31.7
27.5
23.51
20.35
18.36
17.43
16.98
16.2
14.47
11.54
7.68
3.43
-0.63
-4.16
-7.13
-9.75
-12.37
-15.31
-18.8
-22.96
-27.76
-33.07
-38.7
-44.38
-49.92
-55.28
-60.63
-66.33
-72.85
-80.46
-88.88
-97.12
-103.52
-106.23
-103.74
-95.52
-82.23
-65.61
-47.82
-30.81
-15.85
-3.4
6.65
14.66
20.91
25.5
28.52
30.11
30.62
30.51
30.3
30.41
31.08
32.34
34.11
36.22
38.51
40.77
42.87
44.69
46.13
47.03
47.23
46.55
44.94
42.52
39.58
36.47
33.43
30.4
27.04
22.95
17.91
12.09
6.03
0.43
-4.2
-7.76
-10.61
-13.36
-16.62
-20.79
-25.96
-31.92
-38.24
-44.45
-50.22
-55.44
-60.38
-65.64
-71.96
-79.91
-89.55
-100.13
-110.1
-117.44
-120.17
-116.93
-107.42
-92.49
-73.98
-54.13
-34.96
-17.86
-3.41
8.45
18.06
25.81
31.99
36.78
40.44
43.22
45.45
47.37
49.08
50.65
52.08
53.44
54.84
56.44
58.34
60.58
63.09
65.66
67.96
69.53
69.98
69.06
66.82
63.6
59.89
56.11
52.48
48.94
45.28
41.34
37.1
32.75
28.54
24.64
21.03
17.45
13.62
9.37
4.74
0.03
-4.41
-8.32
-11.74
-15.02
-18.67
-23.19
-28.84
-35.52
-42.85
-50.27
-57.28
-63.68
-69.61
-75.55
-82.24
-90.42
-100.51
-112.29
-124.63
-135.48
-142.26
-142.53
-134.84
-119.22
-97.28
-71.69
-45.34
-20.62
1.08
19.3
34.19
46.1
55.3
61.99
66.4
68.91
70.12
70.69
71.21
72.07
73.37
75.07
77.09
79.36
81.93
84.82
87.93
90.93
93.35
94.68
94.55
92.91
90.0
86.18
81.86
77.26
72.48
67.53
62.4
57.13
51.88
46.83
42.13
37.94
34.28
31.08
28.13
25.06
21.5
17.18
12.12
6.67
1.41
-3.16
-6.91
-10.19
-13.72
-18.25
-24.22
-31.56
-39.73
-47.96
-55.57
-62.2
-67.94
-73.26
-78.94
-85.9
-94.89
-106.11
-118.83
-131.26
-140.72
-144.35
-139.93
-126.66
-105.49
-78.87
-49.99
-21.99
2.81
23.19
38.92
50.44
58.45
63.68
66.75
68.2
68.53
68.21
67.62
67.0
66.48
66.06
65.79
65.72
66.01
66.75
67.99
69.56
71.15
72.33
72.57
71.48
68.84
64.7
59.41
53.51
47.55
41.93
36.69
31.6
26.3
20.55
14.41
8.24
2.52
-2.4
-6.54
-10.27
-14.15
-18.67
-24.06
-30.19
-36.69
-43.1
-49.07
-54.48
-59.45
-64.42
-70.06
-77.18
-86.48
-98.09
-111.25
-124.11
-133.98
-137.99
-133.95
-121.13
-100.49
-74.52
-46.4
-19.26
4.62
24.07
38.99
49.94
57.72
63.05
66.41
68.13
68.5
67.83
66.59
65.2
64.0
63.17
62.74
62.71
63.12
64.02
65.42
67.2
69.04
70.43
70.83
69.75
66.96
