0
10.1
12.12
13.16
13.38
13.05
12.38
11.55
10.68
9.89
9.24
8.79
8.51
8.25
7.84
7.09
5.86
4.15
2.06
-0.21
-2.44
-4.43
-6.11
-7.43
-8.43
-9.16
-9.68
-10.05
-10.34
-10.57
-10.71
-10.7
-10.47
-10.01
-9.46
-9.02
-8.95
-9.4
-10.39
-11.78
-13.28
-14.55
-15.24
-15.1
-13.95
-11.87
-9.1
-6.07
-3.24
-0.98
0.62
1.63
2.22
2.54
2.62
2.44
2.01
1.41
0.8
0.39
0.3
0.56
1.13
1.91
2.76
3.57
4.23
4.64
4.79
4.73
4.55
4.37
4.24
4.17
4.09
3.97
3.74
3.41
2.98
2.53
2.07
1.59
1.04
0.34
-0.63
-1.94
-3.61
-5.57
-7.65
-9.58
-11.01
-11.55
-10.93
-9.02
-6.01
-2.37
1.27
4.34
6.45
7.61
8.06
8.16
8.22
8.38
8.62
8.84
8.97
9.08
9.28
9.72
10.42
11.34
12.31
13.12
13.58
13.65
13.35
12.79
12.08
11.27
10.32
9.17
7.76
6.15
4.51
3.05
1.96
1.29
0.93
0.69
0.35
-0.25
-1.17
-2.38
-3.8
-5.36
-6.93
-8.44
-9.8
-10.85
-11.39
-11.21
-10.2
-8.41
-6.07
-3.55
-1.23
0.6
1.83
2.49
2.69
2.56
2.24
1.8
1.32
0.91
0.66
0.67
0.97
1.54
2.31
3.16
3.94
4.56
4.97
5.23
5.47
5.79
6.22
6.71
7.08
7.2
6.99
6.48
5.75
4.91
4.01
3.06
2.05
0.98
-0.08
-1.07
-1.98
-2.9
-3.92
-5.18
-6.64
-8.13
-9.35
-9.97
-9.75
-8.62
-6.73
-4.37
-1.88
0.43
2.36
3.87
4.99
5.77
6.25
6.46
6.38
6.07
5.59
5.05
4.57
4.23
4.07
4.06
4.14
4.24
4.33
4.43
4.57
4.78
4.99
5.09
4.95
4.46
3.66
2.72
1.89
1.39
1.31
1.5
1.7
1.67
1.27
0.52
-0.45
-1.51
-2.63
-3.81
-5.06
-6.31
-7.41
-8.19
-8.51
-8.3
-7.59
-6.46
-5.02
-3.39
-1.77
-0.29
0.95
1.98
2.86
3.59
4.09
4.22
3.87
3.14
2.28
1.64
1.49
1.8
2.38
2.9
3.17
3.2
3.11
3.0
2.88
2.62
2.1
1.37
0.6
0.07
-0.06
0.15
0.5
0.73
0.62
0.17
-0.49
-1.23
-1.89
-2.5
-3.09
-3.75
-4.52
-5.37
-6.17
-6.79
-7.12
-7.14
-6.88
-6.39
-5.71
-4.8
-3.59
-2.01
-0.13
1.82
3.51
4.66
5.14
5.05
4.64
4.13
3.66
3.26
2.89
2.59
2.43
2.56
3.07
3.9
4.87
5.76
6.31
6.38
5.95
5.14
4.12
3.06
2.04
1.13
0.33
-0.35
-0.88
-1.21
-1.38
-1.44
-1.5
-1.65
-1.86
-2.08
-2.2
-2.21
-2.23
-2.42
-2.93
-3.79
-4.9
-6.06
-7.03
-7.6
-7.61
-6.96
-5.69
-4.0
-2.22
-0.71
0.22
0.55
0.46
0.3
0.31
0.55
0.88
1.08
1.09
1.07
1.26
1.89
2.94
4.15
5.18
5.76
5.86
5.66
5.4
5.22
5.08
4.81
4.28
3.47
2.53
1.69
1.15
0.97
1.07
1.25
1.33
1.23
0.98
0.69
0.51
0.5
0.61
0.7
0.61
0.14
-0.79
-2.13
-3.71
-5.24
-6.41
-6.93
-6.7
-5.75
-4.32
-2.7
-1.19
0.03
0.88
1.32
1.37
1.06
0.4
-0.53
-1.59
-2.58
-3.31
-3.66
-3.53
-2.97
-2.06
-0.95
0.18
1.16
1.88
2.31
2.47
2.42
2.16
1.7
0.99
0.1
-0.84
-1.6
-1.99
-2.0
-1.72
-1.4
-1.23
-1.25
-1.41
-1.59
-1.75
-1.89
-2.06
-2.34
-2.73
-3.25
-3.83
-4.45
-5.0
-5.3
-5.16
-4.41
-3.08
-1.3
0.64
2.5
4.13
5.46
6.44
7.02
7.13
6.8
6.16
5.46
5.0
4.97
5.43
6.21
7.07
7.73
7.94
7.68
6.97
5.97
4.85
3.75
2.72
1.78
0.85
-0.13
-1.16
-2.16
-3.01
-3.58
-3.75
-3.51
-2.95
-2.26
-1.7
-1.49
-1.79
-2.61
-3.85
-5.29
-6.7
-7.83
-8.44
-8.36
-7.45
-5.79
-3.56
-1.08
1.31
3.27
4.65
5.42
5.71
5.68
5.5
5.3
5.11
4.96
4.8
4.66
4.56
4.52
4.56
4.65
4.73
4.75
4.61
4.24
3.6
2.68
1.49
0.07
-1.46
-2.9
-4.09
-4.87
-5.2
-5.2
-5.11
-5.16
-5.5
-6.09
-6.74
-7.2
-7.36
-7.26
-7.21
-7.52
-8.41
-9.83
-11.52
-13.02
-13.92
-13.95
-13.07
-11.48
-9.59
-7.85
-6.73
-6.48
-7.17
-8.59
-10.44
-12.42
-14.41
-16.41
-18.52
-20.82
-23.25
-25.65
-27.91
-30.0
-32.04
-34.27
-36.86
-39.92
-43.53
-47.69
-52.48
-57.88
-63.85
-70.21
-76.78
-83.41
-90.09
-96.98
-104.24
-111.94
-119.94
-127.9
-135.31
-141.65
-146.36
-148.94
-148.83
-145.37
-137.91
-125.86
-108.83
-86.82
-60.28
-30.09
2.42
35.61
67.72
97.06
122.2
142.1
156.29
164.85
168.33
167.62
163.72
157.6
150.11
141.92
133.54
125.37
117.65
110.52
103.96
97.85
91.97
86.19
80.41
74.66
69.01
63.5
58.16
52.96
47.86
42.85
38.01
33.46
29.33
25.73
22.66
20.04
17.76
15.68
13.68
11.68
9.65
7.58
5.55
3.56
1.63
-0.27
-2.08
-3.7
-4.92
-5.55
-5.52
-4.91
-3.89
-2.68
-1.45
-0.29
0.78
1.75
2.57
3.2
3.6
3.8
3.88
3.92
4.0
4.16
4.46
4.93
5.6
6.42
7.27
8.03
8.56
8.76
8.58
7.98
7.02
5.78
4.45
3.21
2.24
1.57
1.14
0.8
0.44
-0.0
-0.46
-0.85
-1.16
-1.38
-1.6
-1.95
-2.56
-3.51
-4.75
-6.13
-7.31
-7.97
-7.86
-6.92
-5.36
-3.55
-1.85
-0.45
0.63
1.51
2.29
2.98
3.49
3.76
3.82
3.8
3.91
4.32
5.04
5.99
6.94
7.62
7.83
7.45
6.55
5.3
3.94
2.69
1.6
0.66
-0.17
-0.9
-1.44
-1.73
-1.73
-1.55
-1.36
-1.34
-1.57
-2.02
-2.56
-3.16
-3.83
-4.62
-5.56
-6.58
-7.51
-8.13
-8.28
-7.83
-6.74
-5.09
-3.0
-0.75
1.36
3.1
4.3
4.96
5.18
5.07
4.74
4.25
3.69
3.2
2.94
3.02
3.48
4.23
5.1
5.91
6.54
6.91
7.0
6.82
6.37
5.68
4.8
3.82
2.85
1.98
1.29
0.77
0.37
0.02
-0.35
-0.72
-1.09
-1.4
-1.63
-1.83
-2.09
-2.51
-3.16
-4.09
-5.2
-6.28
-7.04
-7.19
-6.55
-5.18
-3.32
-1.34
0.47
1.95
3.08
3.95
4.6
5.05
5.32
5.44
5.47
5.44
5.36
5.24
5.05
4.85
4.73
4.79
5.02
5.33
5.57
5.6
5.4
5.0
4.49
3.94
3.39
2.81
2.19
1.54
0.87
0.27
-0.19
-0.44
-0.47
-0.36
-0.25
-0.27
-0.5
-0.96
-1.62
-2.42
-3.33
-4.31
-5.23
-5.88
-6.0
-5.39
-4.07
-2.27
-0.36
1.29
2.45
3.05
3.13
2.79
2.11
1.3
0.63
0.39
0.79
1.82
3.31
4.88
6.24
7.17
7.61
7.62
7.27
6.63
5.81
4.91
4.04
3.31
2.77
2.46
2.35
2.34
2.29
2.06
1.56
0.85
0.07
-0.63
-1.17
-1.61
-2.15
-2.89
-3.88
-4.96
-5.96
-6.65
-6.9
-6.69
-6.01
-4.91
-3.49
-1.92
-0.42
0.85
1.82
2.55
3.18
3.81
4.44
5.02
5.41
5.59
5.58
5.45
5.3
5.21
5.21
5.3
5.48
5.67
5.8
5.82
5.66
5.33
4.85
4.22
3.45
2.54
1.56
0.63
-0.11
-0.6
-0.91
-1.2
-1.67
-2.4
-3.41
-4.51
-5.54
-6.4
-7.12
-7.8
-8.56
-9.4
-10.18
-10.68
-10.6
-9.76
-8.1
-5.83
-3.3
-0.94
0.91
2.15
2.85
3.23
3.51
3.78
4.06
4.31
4.51
4.66
4.81
4.95
5.09
5.22
5.36
5.5
5.66
5.75
5.63
5.18
4.38
3.33
2.31
1.49
1.0
0.76
0.61
0.41
0.07
-0.36
-0.84
-1.3
-1.74
-2.17
-2.63
-3.13
-3.72
-4.46
-5.37
-6.41
-7.39
-8.09
-8.25
-7.76
-6.68
-5.17
-3.43
-1.64
0.02
1.45
2.55
3.29
3.72
3.89
3.91
3.78
3.45
2.93
2.33
1.91
1.92
2.49
3.49
4.59
5.37
5.61
5.34
4.8
4.28
3.93
3.71
3.51
3.21
2.79
2.25
1.68
1.13
0.65
0.32
0.18
0.23
0.32
0.23
-0.23
-1.11
-2.35
-3.74
-5.11
-6.31
-7.25
-7.8
-7.84
-7.28
-6.23
-4.95
-3.83
-3.13
-2.91
-3.04
-3.25
-3.31
-3.17
-2.93
-2.7
-2.54
-2.44
-2.26
-1.87
-1.14
-0.04
1.36
2.9
4.33
5.44
6.05
6.09
5.62
4.77
3.69
2.53
1.43
0.53
-0.13
-0.55
-0.84
-1.11
-1.46
-1.88
-2.33
-2.74
-3.1
-3.47
-3.93
-4.52
-5.3
-6.26
-7.38
-8.56
-9.62
-10.29
-10.31
-9.49
-7.88
-5.73
-3.44
-1.32
0.42
1.81
2.91
3.8
4.48
4.9
5.0
4.82
4.49
4.14
3.85
3.67
3.59
3.54
3.47
3.33
3.09
2.8
2.46
2.13
1.85
1.6
1.39
1.19
1.01
0.85
0.71
0.53
0.25
-0.17
-0.72
-1.32
-1.86
-2.27
-2.54
-2.69
-2.83
-3.06
-3.47
-4.1
-4.87
-5.6
-6.03
-5.87
-5.03
-3.6
-1.89
-0.29
0.97
1.86
2.54
3.24
4.0
4.66
4.98
4.76
3.99
2.91
1.83
0.97
0.43
0.14
-0.01
-0.08
-0.1
-0.08
-0.04
0.0
0.04
0.07
0.12
0.12
-0.01
-0.34
-0.87
-1.47
-2.0
-2.28
-2.27
-2.05
-1.76
-1.56
-1.54
-1.74
-2.15
-2.76
-3.58
-4.58
-5.69
-6.75
-7.53
-7.81
-7.43
-6.33
-4.63
-2.59
-0.5
1.39
2.92
4.05
4.8
5.2
5.25
4.94
4.31
3.52
2.85
2.55
2.76
3.36
4.05
4.47
4.37
3.67
2.51
1.11
-0.31
-1.62
-2.76
-3.65
-4.15
-4.19
-3.74
-2.92
-1.92
-0.97
-0.21
0.34
0.72
0.94
0.93
0.58
-0.19
-1.41
-3.0
-4.85
-6.78
-8.66
-10.32
-11.61
-12.36
-12.38
-11.55
-9.92
-7.67
-5.14
-2.77
-0.97
-0.01
0.14
-0.26
-0.83
-1.21
-1.22
-0.94
-0.55
-0.21
0.06
0.43
1.08
2.04
3.19
4.26
4.97
5.17
4.89
4.31
3.63
3.07
2.68
2.53
2.58
2.71
2.83
2.83
2.64
2.23
1.62
0.85
-0.02
-0.87
-1.63
-2.22
-2.65
-3.04
-3.56
-4.31
-5.26
-6.22
-6.88
-6.94
-6.25
-4.83
-2.91
-0.78
1.25
2.97
4.26
5.07
5.46
5.46
5.14
4.57
3.83
3.04
2.41
2.16
2.44
3.29
4.55
5.9
6.94
7.36
7.03
6.04
4.67
3.25
2.05
1.18
0.6
0.19
-0.25
-0.79
-1.47
-2.26
-3.1
-3.9
-4.58
-5.01
-5.08
-4.78
-4.22
-3.64
-3.34
-3.5
-4.1
-4.94
-5.61
-5.82
-5.4
-4.42
-3.07
-1.57
-0.12
1.16
2.16
2.79
2.99
2.75
2.14
1.29
0.38
-0.39
-0.89
-0.97
-0.58
0.19
1.19
2.17
2.86
3.14
2.98
2.47
1.8
1.14
0.62
0.34
0.26
0.27
0.18
-0.13
-0.69
-1.35
-1.89
-2.13
-2.01
-1.67
-1.33
-1.22
-1.43
-2.0
-2.89
-4.12
-5.65
-7.39
-9.08
-10.4
-10.99
-10.67
-9.48
-7.64
-5.51
-3.4
-1.56
-0.1
0.99
1.74
2.2
2.37
2.24
1.83
1.19
0.49
-0.06
-0.24
0.08
0.9
2.06
3.37
4.61
5.62
6.31
6.59
6.41
5.82
4.94
4.0
3.18
2.58
2.15
1.72
1.14
0.31
-0.74
-1.87
-2.91
-3.7
-4.15
-4.28
-4.15
-3.92
-3.74
-3.75
-4.01
-4.52
-5.11
-5.58
-5.71
-5.28
-4.2
-2.59
-0.68
1.23
2.86
4.04
4.74
5.04
5.05
4.85
4.52
4.14
3.81
3.61
3.62
3.86
4.25
4.72
5.12
5.35
5.33
5.02
4.46
3.74
2.98
2.29
1.69
1.12
0.55
-0.06
-0.62
-1.06
-1.33
-1.48
-1.61
-1.79
-2.0
-2.12
-2.07
-1.89
-1.79
-2.0
-2.71
-3.85
-5.16
-6.24
-6.76
-6.6
-5.8
-4.57
-3.08
-1.49
0.07
1.47
2.59
3.29
3.51
3.26
2.62
1.74
0.81
-0.04
-0.63
-0.9
-0.81
-0.4
0.15
0.7
1.13
1.41
1.63
1.89
2.28
2.76
3.24
3.59
3.68
3.53
3.21
2.85
2.6
2.51
2.57
2.72
2.87
2.93
2.9
2.78
2.58
2.27
1.79
1.06
0.03
-1.3
-2.87
-4.56
-6.2
-7.49
-8.16
-7.97
-6.86
-4.96
-2.65
-0.39
1.44
2.6
3.08
3.03
2.64
2.12
1.6
1.19
0.94
0.88
0.97
1.17
1.41
1.66
1.91
2.19
2.54
2.95
3.39
3.77
3.99
3.98
3.66
3.02
2.11
1.07
0.06
-0.77
-1.38
-1.76
-2.0
-2.16
-2.3
-2.41
-2.49
-2.53
-2.56
-2.63
-2.76
-2.99
-3.28
-3.56
-3.73
-3.66
-3.21
-2.31
-1.05
0.38
1.69
2.6
3.0
2.92
2.54
2.05
1.6
1.22
0.83
0.34
-0.25
-0.85
-1.24
-1.24
-0.72
0.25
1.47
2.69
3.67
4.33
4.71
4.93
5.08
5.11
4.94
4.45
3.66
2.71
1.83
1.16
0.71
0.34
-0.12
-0.76
-1.52
-2.25
-2.81
-3.16
-3.44
-3.81
-4.4
-5.22
-6.08
-6.73
-6.91
-6.49
-5.52
-4.14
-2.57
-0.97
0.56
2.01
3.32
4.42
5.15
5.38
5.08
4.34
3.41
2.55
1.95
1.68
1.68
1.88
2.21
2.65
3.16
3.58
3.71
3.35
2.44
1.06
-0.5
-1.92
-2.92
-3.45
-3.59
-3.53
-3.45
-3.44
-3.52
-3.64
-3.76
-3.89
-4.01
-4.15
-4.27
-4.31
-4.22
-4.03
-3.82
-3.78
-4.03
-4.6
-5.31
-5.87
-6.02
-5.61
-4.72
-3.56
-2.37
-1.28
-0.34
0.48
1.15
1.63
1.82
1.69
1.35
0.98
0.77
0.84
1.18
1.71
2.34
3.06
3.88
4.76
5.6
6.29
6.74
6.94
6.96
6.86
6.71
6.48
6.19
5.87
5.58
5.43
5.45
5.57
5.67
5.64
5.44
5.08
4.64
4.14
3.56
2.84
1.91
0.75
-0.62
-2.08
-3.5
-4.73
-5.68
-6.3
-6.61
-6.66
-6.51
-6.28
-6.02
-5.84
-5.82
-5.99
-6.29
-6.58
-6.64
-6.27
-5.34
-3.87
-2.06
-0.14
1.62
3.02
3.93
4.34
4.38
4.23
4.12
4.22
4.6
5.15
5.65
5.91
5.85
5.54
5.14
4.79
4.49
4.18
3.77
3.22
2.6
1.95
1.27
0.47
-0.57
-1.84
-3.19
-4.36
-5.06
-5.08
-4.43
-3.26
-1.82
-0.44
0.66
1.32
1.58
1.58
1.52
1.49
1.47
1.36
1.06
0.6
0.11
-0.21
-0.2
0.1
0.58
1.08
1.47
1.75
1.94
2.09
2.24
2.44
2.65
2.82
2.87
2.7
2.29
1.69
0.99
0.32
-0.32
-1.0
-1.79
-2.69
-3.66
-4.56
-5.32
-5.98
-6.65
-7.4
-8.2
-8.9
-9.28
-9.21
-8.64
-7.65
-6.34
-4.81
-3.15
-1.49
-0.0
1.13
1.83
2.13
2.18
2.12
2.03
1.93
1.8
1.61
1.43
1.31
1.27
1.29
1.32
1.27
1.1
0.81
0.44
0.05
-0.27
-0.46
-0.51
-0.48
-0.5
-0.63
-0.86
-1.04
-0.97
-0.55
0.16
1.0
1.68
2.06
2.1
1.87
1.49
1.0
0.34
-0.59
-1.77
-3.1
-4.35
-5.17
-5.33
-4.72
-3.44
-1.8
-0.22
1.0
1.67
1.8
1.55
1.16
0.78
0.52
0.41
0.46
0.72
1.23
1.96
2.85
3.78
4.65
5.42
6.08
6.56
6.82
6.68
6.07
5.03
3.77
2.61
1.84
1.57
1.73
2.04
2.23
2.08
1.61
0.95
0.31
-0.19
-0.52
-0.77
-1.07
-1.5
-2.12
-2.89
-3.76
-4.66
-5.52
-6.27
-6.8
-6.97
-6.67
-5.83
-4.51
-2.88
-1.2
0.24
1.3
1.92
2.21
2.3
2.3
2.24
2.09
1.79
1.39
1.02
0.82
0.91
1.34
2.02
2.8
3.51
4.01
4.25
4.26
4.14
3.99
3.87
3.74
3.48
2.98
2.21
1.23
0.17
-0.85
-1.76
-2.54
-3.22
-3.76
-4.11
-4.22
-4.13
-3.94
-3.76
-3.64
-3.55
-3.35
-3.01
-2.55
-2.18
-2.15
-2.62
-3.55
-4.68
-5.66
-6.14
-6.0
-5.32
-4.34
-3.35
-2.51
-1.88
-1.39
-0.97
-0.57
-0.2
0.15
0.5
0.91
1.41
2.0
2.62
3.19
3.65
4.0
4.25
4.44
4.54
4.55
4.43
4.16
3.79
3.33
2.86
2.38
1.93
1.49
1.07
0.73
0.53
0.51
0.62
0.77
0.83
0.76
0.58
0.41
0.32
0.32
0.26
-0.11
-0.95
-2.28
-3.91
-5.51
-6.74
-7.38
-7.32
-6.58
-5.24
-3.46
-1.42
0.58
2.31
3.58
4.38
4.82
5.08
5.26
5.35
5.28
4.95
4.38
3.72
3.15
2.77
2.62
2.61
2.64
2.63
2.47
2.14
1.6
0.9
0.14
-0.52
-0.98
-1.27
-1.48
-1.74
-2.11
-2.52
-2.87
-3.09
-3.22
-3.37
-3.68
-4.2
-4.89
-5.59
-6.18
-6.5
-6.5
-6.18
-5.61
-4.95
-4.42
-4.21
-4.44
-5.06
-5.83
-6.44
-6.54
-5.97
-4.72
-3.01
-1.2
0.32
1.28
1.65
1.55
1.23
0.88
0.57
0.22
-0.25
-0.85
-1.42
-1.71
-1.51
-0.78
0.26
1.24
1.84
1.91
1.58
1.18
1.06
1.43
2.23
3.21
3.99
4.3
4.01
3.26
2.34
1.46
0.78
0.37
0.17
0.08
0.07
0.03
-0.1
-0.39
-0.82
-1.3
-1.7
-1.93
-1.98
-2.05
-2.33
-2.97
-3.91
-4.91
-5.67
-5.92
-5.58
-4.72
-3.5
-2.1
-0.65
0.76
2.06
3.16
3.96
4.43
4.61
4.58
4.44
4.27
4.08
3.82
3.46
2.95
2.37
1.81
1.39
1.18
1.14
1.11
0.93
0.52
-0.07
-0.65
-1.05
-1.16
-1.01
-0.74
-0.49
-0.3
-0.1
0.23
0.74
1.35
1.9
2.19
2.1
1.66
1.04
0.49
0.2
0.24
0.5
0.77
0.74
0.19
-0.92
-2.45
-4.15
-5.69
-6.84
-7.43
-7.41
-6.84
-5.84
-4.55
-3.17
-1.87
-0.81
-0.13
0.1
-0.08
-0.53
-1.01
-1.22
-0.95
-0.12
1.12
2.48
3.66
4.5
5.0
5.32
5.64
6.02
6.42
6.73
6.85
6.75
6.5
6.11
5.59
4.89
3.96
2.83
1.61
0.48
-0.45
-1.1
-1.61
-2.1
-2.7
-3.47
-4.29
-5.0
-5.44
-5.5
-5.21
-4.71
-4.2
-3.85
-3.82
-4.18
-4.88
-5.83
-6.87
-7.79
-8.39
-8.5
-8.02
-6.98
-5.47
-3.74
-2.08
-0.79
-0.04
0.14
-0.09
-0.47
-0.78
-0.92
-0.94
-0.96
-1.01
-1.04
-0.9
-0.41
0.49
1.68
2.98
4.09
4.86
5.26
5.42
5.46
5.51
5.48
5.23
4.64
3.69
2.55
1.5
0.78
0.47
0.45
0.47
0.25
-0.25
-0.95
-1.67
-2.25
-2.63
-2.84
-2.97
-3.07
-3.21
-3.45
-3.93
-4.78
-6.04
-7.59
-9.17
-10.39
-10.92
-10.59
-9.4
-7.54
-5.31
-3.05
-1.03
0.53
1.57
2.16
2.44
2.55
2.57
2.49
2.38
2.31
2.46
3.0
3.97
5.21
6.42
7.25
7.5
7.2
6.62
6.07
5.82
5.9
6.12
6.2
5.84
4.97
3.71
2.37
1.31
0.77
0.8
1.18
1.58
1.63
1.13
0.11
-1.21
-2.46
-3.32
-3.64
-3.48
-3.13
-2.95
-3.32
-4.38
-6.08
-8.07
-9.87
-11.02
-11.25
-10.53
-9.02
-7.02
-4.82
-2.68
-0.85
0.44
1.03
0.86
0.13
-0.81
-1.54
-1.74
-1.3
-0.38
0.76
1.84
2.68
3.18
3.35
3.23
2.89
2.42
1.95
1.63
1.55
1.77
2.28
2.99
3.78
4.54
5.16
5.57
5.76
5.74
5.56
5.27
4.89
4.45
3.94
3.32
2.56
1.65
0.61
-0.52
-1.65
-2.69
-3.58
-4.31
-4.9
-5.47
-6.15
-6.97
-7.84
-8.51
-8.7
-8.17
-6.86
-4.89
-2.53
-0.15
1.96
3.58
4.65
5.19
5.29
5.06
4.6
4.01
3.42
3.01
2.91
3.24
3.96
4.86
5.63
6.0
5.89
5.4
4.79
4.25
3.82
3.42
2.93
2.31
1.73
1.42
1.54
2.13
2.96
3.73
4.18
4.16
3.71
2.96
2.09
1.27
0.65
0.31
0.21
0.22
0.14
-0.22
-0.97
-2.12
-3.53
-4.98
-6.21
-6.93
-6.94
-6.19
-4.8
-3.09
-1.39
0.0
0.98
1.61
2.02
2.35
2.57
2.71
2.77
2.82
2.93
3.16
3.51
3.95
4.5
5.12
5.79
6.37
6.71
6.66
6.22
5.52
4.72
3.97
3.32
2.73
2.21
1.84
1.68
1.79
2.09
2.42
2.64
2.72
2.68
2.57
2.33
1.87
1.02
-0.28
-1.91
-3.68
-5.39
-6.93
-8.29
-9.57
-10.78
-11.83
-12.55
-12.73
-12.22
-10.98
-9.07
-6.69
-4.08
-1.48
0.9
2.88
4.38
5.4
5.96
6.14
6.02
5.7
5.29
4.96
4.83
5.02
5.52
6.2
6.81
7.09
6.86
6.1
4.98
3.77
2.75
2.07
1.77
1.69
1.62
1.45
1.11
0.67
0.22
-0.19
-0.55
-0.89
-1.21
-1.48
-1.66
-1.76
-1.8
-1.9
-2.14
-2.55
-3.09
-3.68
-4.28
-4.94
-5.73
-6.65
-7.61
-8.34
-8.57
-8.07
-6.81
-4.93
-2.75
-0.62
1.18
2.45
3.15
3.31
3.08
2.66
2.27
2.08
2.17
2.51
2.95
3.36
3.65
3.84
4.09
4.52
5.2
6.06
6.9
7.51
7.8
7.81
7.64
7.4
7.11
6.67
6.0
5.08
4.06
3.14
2.47
2.03
1.6
0.96
-0.06
-1.35
-2.62
-3.56
-4.01
-4.04
-3.94
-3.97
-4.29
-4.89
-5.68
-6.56
-7.47
-8.35
-9.04
-9.24
-8.7
-7.33
-5.34
-3.14
-1.23
0.1
0.83
1.15
1.3
1.46
1.68
1.9
2.09
2.27
2.55
3.04
3.82
4.84
6.02
7.15
7.99
8.38
8.26
7.7
6.86
5.93
5.05
4.34
3.83
3.55
3.45
3.43
3.34
3.02
2.43
1.61
0.7
-0.15
-0.85
-1.37
-1.78
-2.12
-2.42
-2.63
-2.7
-2.64
-2.51
-2.42
-2.52
-2.89
-3.53
-4.4
-5.35
-6.24
-6.89
-7.18
-7.04
-6.49
-5.58
-4.41
-3.11
-1.84
-0.77
-0.04
0.26
0.2
-0.08
-0.34
-0.44
-0.33
-0.11
0.07
0.16
0.21
0.38
0.83
1.64
2.69
3.79
4.73
5.34
5.52
5.21
4.41
3.23
1.89
0.66
-0.19
-0.5
-0.3
0.26
1.0
1.71
2.23
2.43
2.17
1.43
0.27
-1.09
-2.32
-3.15
-3.45
-3.33
-3.01
-2.79
-2.83
-3.21
-3.88
-4.78
-5.8
-6.83
-7.69
-8.18
-8.12
-7.38
-6.0
-4.19
-2.23
-0.4
1.11
2.23
3.03
3.62
4.13
4.59
4.9
4.94
4.61
3.91
2.98
2.08
1.45
1.25
1.45
1.92
2.47
2.92
3.17
3.22
3.12
2.94
2.73
2.53
2.29
2.0
1.61
1.17
0.83
0.77
1.1
1.78
2.56
3.16
3.34
3.1
2.6
2.11
1.78
1.61
1.47
1.17
0.59
-0.31
-1.51
-2.96
-4.59
-6.3
-7.86
-8.96
-9.33
-8.86
-7.63
-5.94
-4.21
-2.8
-1.89
-1.44
-1.25
-1.12
-0.89
-0.56
-0.19
0.14
0.38
0.59
0.83
1.15
1.54
1.91
2.22
2.42
2.56
2.67
2.81
2.98
3.17
3.41
3.73
4.08
4.4
4.51
4.32
3.82
3.24
2.86
2.88
3.3
3.85
4.23
4.18
3.69
2.93
2.17
1.56
1.08
0.62
0.03
-0.71
-1.57
-2.45
-3.32
-4.23
-5.3
-6.59
-8.07
-9.55
-10.67
-11.07
-10.51
-9.03
-6.96
-4.84
-3.15
-2.13
-1.74
-1.68
-1.7
-1.65
-1.57
-1.55
-1.64
-1.74
-1.72
-1.47
-0.94
-0.22
0.6
1.43
2.18
2.77
3.09
3.09
2.82
2.39
1.95
1.67
1.6
1.74
2.04
2.46
2.93
3.39
3.72
3.81
3.66
3.34
2.99
2.78
2.76
2.87
2.98
2.91
2.55
1.88
0.93
-0.23
-1.44
-2.58
-3.5
-4.12
-4.41
-4.45
-4.33
-4.1
-3.72
-3.06
-2.0
-0.56
1.12
2.73
4.02
4.89
5.44
5.86
6.3
6.7
6.94
6.85
6.41
5.73
5.0
4.32
3.71
3.09
2.38
1.61
0.86
0.24
-0.24
-0.63
-1.04
-1.55
-2.15
-2.74
-3.22
-3.48
-3.46
-3.15
-2.62
-2.01
-1.46
-1.14
-1.12
-1.4
-1.87
-2.42
-2.87
-3.1
-3.04
-2.73
-2.31
-1.98
-1.93
-2.31
-3.11
-4.2
-5.4
-6.53
-7.39
-7.82
-7.65
-6.81
-5.32
-3.4
-1.39
0.36
1.62
2.34
2.66
2.81
2.94
3.11
3.29
3.42
3.48
3.52
3.6
3.74
3.95
4.13
4.14
3.92
3.48
2.96
2.55
2.44
2.66
3.09
3.49
3.61
3.35
2.74
2.03
1.42
1.04
0.88
0.9
1.05
1.31
1.65
1.98
2.14
1.95
1.38
0.53
-0.37
-1.16
-1.75
-2.21
-2.68
-3.2
-3.8
-4.47
-5.27
-6.33
-7.67
-9.17
-10.48
-11.18
-10.97
-9.86
-8.13
-6.24
-4.56
-3.29
-2.42
-1.77
-1.22
-0.7
-0.26
0.05
0.18
0.17
0.14
0.24
0.61
1.22
1.99
2.73
3.25
3.47
3.43
3.29
3.2
3.29
3.57
3.95
4.28
4.43
4.34
4.01
3.51
2.96
2.48
2.14
1.97
1.9
1.84
1.72
1.46
1.05
0.49
-0.19
-0.96
-1.78
-2.64
-3.49
-4.29
-4.97
-5.55
-6.07
-6.59
-7.21
-7.89
-8.52
-8.86
-8.67
-7.77
-6.16
-4.0
-1.62
0.63
2.49
3.83
4.66
5.1
5.29
5.28
5.08
4.69
4.17
3.72
3.53
3.78
4.44
5.33
6.19
6.79
7.01
6.87
6.46
5.81
4.93
3.86
2.63
1.42
0.39
-0.32
-0.74
-0.96
-1.08
-1.21
-1.37
-1.57
-1.84
-2.16
-2.52
-2.87
-3.09
-3.11
-2.93
-2.61
-2.27
-2.05
-2.08
-2.47
-3.26
-4.4
-5.74
-7.03
-7.96
-8.27
-7.8
-6.55
-4.69
-2.53
-0.49
1.1
2.01
2.29
2.19
2.05
2.15
2.56
3.08
3.44
3.44
3.1
2.65
2.38
2.51
3.05
3.79
4.49
4.94
5.08
4.93
4.61
4.2
3.76
3.32
2.88
2.5
2.21
2.05
2.0
1.97
1.86
1.57
1.11
0.53
-0.06
-0.58
-1.0
-1.37
-1.73
-2.12
-2.51
-2.83
-3.04
-3.16
-3.29
-3.54
-4.03
-4.83
-5.88
-7.12
-8.44
-9.67
-10.62
-11.05
-10.76
-9.72
-8.07
-6.17
-4.46
-3.24
-2.62
-2.45
-2.45
-2.35
-2.02
-1.5
-0.9
-0.3
0.31
0.96
1.71
2.57
3.4
4.07
4.44
4.46
4.21
3.86
3.54
3.33
3.25
3.23
3.17
3.06
2.86
2.59
2.26
1.9
1.47
0.99
0.46
-0.09
-0.59
-1.02
-1.37
-1.68
-1.96
-2.19
-2.31
-2.33
-2.28
-2.32
-2.6
-3.18
-3.98
-4.83
-5.6
-6.3
-7.08
-8.05
-9.12
-9.97
-10.18
-9.47
-7.93
-5.99
-4.16
-2.82
-2.02
-1.56
-1.19
-0.82
-0.53
-0.51
-0.84
-1.38
-1.85
-1.98
-1.64
-0.89
0.11
1.18
2.25
3.28
4.26
5.13
5.84
6.34
6.62
6.73
6.7
6.51
6.15
5.61
4.91
4.1
3.25
2.44
1.73
1.24
0.97
0.9
0.87
0.67
0.17
-0.61
-1.49
-2.22
-2.65
-2.89
-3.18
-3.8
-4.91
-6.44
-8.08
-9.43
-10.14
-10.0
-8.97
-7.18
-4.9
-2.39
0.05
2.23
4.01
5.33
6.2
6.61
6.62
6.32
5.89
5.55
5.43
5.6
6.0
6.49
6.92
7.16
7.1
6.71
5.99
5.04
4.0
3.02
2.24
1.69
1.31
0.98
0.64
0.28
-0.07
-0.32
-0.43
-0.4
-0.24
0.02
0.32
0.53
0.5
0.14
-0.54
-1.38
-2.11
-2.54
-2.67
-2.67
-2.84
-3.41
-4.45
-5.85
-7.4
-8.87
-10.06
-10.8
-10.96
-10.42
-9.22
-7.51
-5.56
-3.67
-2.08
-0.86
0.0
0.58
0.95
1.14
1.22
1.32
1.59
2.14
2.99
4.01
5.01
5.83
6.38
6.68
6.83
6.94
7.07
7.18
7.14
6.83
6.17
5.23
4.19
3.22
2.44
1.85
1.34
0.81
0.29
-0.12
-0.26
-0.07
0.35
0.74
0.83
0.54
-0.06
-0.74
-1.28
-1.58
-1.72
-1.85
-2.15
-2.68
-3.45
-4.46
-5.7
-7.09
-8.47
-9.56
-10.02
-9.67
-8.56
-6.94
-5.16
-3.53
-2.18
-1.12
-0.25
0.45
1.03
1.46
1.7
1.76
1.7
1.58
1.51
1.55
1.72
1.99
2.26
2.43
2.43
2.27
1.99
1.66
1.33
1.04
0.83
0.73
0.76
0.93
1.22
1.63
2.19
2.93
3.88
4.91
5.82
6.31
6.17
5.39
4.15
2.76
1.48
0.42
-0.55
-1.59
-2.81
-4.21
-5.62
-6.88
-7.9
-8.61
-8.96
-8.86
-8.17
-6.81
-4.86
-2.57
-0.33
1.55
2.88
3.65
4.05
4.25
4.39
4.53
4.63
4.56
4.18
3.46
2.49
1.58
1.08
1.25
2.1
3.37
4.59
5.36
5.43
4.9
4.11
3.42
3.06
3.01
3.08
3.03
2.73
2.22
1.67
1.28
1.12
1.11
1.1
0.91
0.52
0.01
-0.52
-0.97
-1.37
-1.82
-2.43
-3.29
-4.43
-5.79
-7.33
-8.99
-10.73
-12.47
-14.05
-15.31
-16.04
-16.12
-15.5
-14.19
-12.31
-10.06
-7.68
-5.46
-3.65
-2.4
-1.67
-1.3
-1.04
-0.67
-0.05
0.78
1.7
2.58
3.32
3.91
4.41
4.9
5.43
6.03
6.61
7.11
7.45
7.59
7.49
7.15
6.59
5.85
5.0
4.13
3.37
2.86
2.71
2.9
3.32
3.79
4.08
4.04
3.64
3.01
2.32
1.72
1.31
1.04
0.82
0.53
0.15
-0.33
-0.89
-1.6
-2.64
-4.18
-6.39
-9.19
-12.32
-15.29
-17.54
-18.58
-18.19
-16.42
-13.61
-10.33
-7.1
-4.33
-2.17
-0.61
0.48
1.18
1.54
1.57
1.36
1.1
1.06
1.48
2.41
3.76
5.23
6.54
7.53
8.14
8.47
8.64
8.72
8.67
8.49
8.13
7.62
7.04
6.42
5.83
5.28
4.79
4.41
4.2
4.21
4.35
4.45
4.24
3.51
2.21
0.53
-1.16
-2.42
-2.97
-2.79
-2.15
-1.51
-1.3
-1.83
-3.19
-5.26
-7.71
-10.06
-11.79
-12.43
-11.72
-9.7
-6.76
-3.47
-0.48
1.74
2.96
3.25
2.88
2.19
1.45
0.87
0.54
0.52
0.81
1.39
2.24
3.28
4.38
5.38
6.14
6.58
6.78
6.93
7.26
7.91
8.84
9.82
10.5
10.55
9.86
8.55
6.93
5.43
4.35
3.85
3.85
4.15
4.46
4.58
4.33
3.62
2.39
0.68
-1.4
-3.68
-5.9
-7.86
-9.46
-10.81
-12.16
-13.8
-15.88
-18.22
-20.43
-21.93
-22.21
-21.03
-18.49
-14.95
-10.94
-7.01
-3.59
-0.92
0.95
2.13
2.82
3.24
3.59
3.99
4.48
5.11
5.91
6.88
8.01
9.21
10.39
11.43
12.28
12.93
13.4
13.66
13.65
13.31
12.64
11.75
10.78
9.87
9.02
8.19
7.29
6.28
5.25
4.33
3.62
3.11
2.65
2.07
1.23
0.13
-1.14
-2.44
-3.68
-4.82
-5.9
-6.96
-8.04
-9.13
-10.26
-11.46
-12.84
-14.47
-16.34
-18.23
-19.72
-20.27
-19.32
-16.6
-12.32
-7.15
-2.07
2.06
4.73
6.03
6.43
6.54
6.73
7.09
7.45
7.67
7.77
7.97
8.48
9.35
10.41
11.31
11.75
11.58
10.93
10.04
9.22
8.67
8.41
8.27
7.98
7.33
6.24
4.83
3.36
2.12
1.27
0.83
0.72
0.77
0.89
0.99
0.98
0.8
0.37
-0.26
-0.99
-1.7
-2.37
-3.07
-4.01
-5.39
-7.26
-9.51
-11.88
-14.02
-15.6
-16.31
-15.93
-14.38
-11.83
-8.56
-5.09
-1.91
0.62
2.32
3.27
3.72
3.92
4.06
4.22
4.45
