0
43.47
77.67
113.74
150.15
184.49
213.72
234.99
246.47
247.96
240.95
228.03
212.15
196.05
181.93
171.45
165.72
165.19
169.48
177.3
186.58
194.92
200.06
200.47
195.55
185.85
172.82
158.35
144.2
131.45
120.28
110.04
99.72
88.6
76.58
64.27
52.63
42.43
33.82
26.2
18.33
8.74
-3.83
-19.92
-39.03
-59.36
-77.89
-90.89
-94.83
-87.44
-68.59
-40.5
-7.22
26.55
56.71
80.67
97.48
107.47
111.44
110.14
104.11
94.04
81.16
67.4
55.29
47.26
44.93
48.46
56.5
66.6
76.01
82.61
85.47
84.76
81.35
76.04
69.13
60.37
49.32
36.02
21.25
6.54
-6.44
-16.5
-23.46
-28.16
-32.06
-36.66
-42.99
-51.4
-61.59
-72.72
-83.39
-91.7
-95.34
-92.02
-80.21
-59.77
-32.26
-0.68
31.31
60.35
83.98
100.85
110.49
112.93
108.54
98.18
83.38
66.48
50.31
37.67
30.59
29.77
34.44
42.68
52.14
60.71
67.0
70.44
70.95
68.5
62.97
54.12
42.04
27.43
11.66
-3.46
-16.39
-26.39
-33.85
-40.2
-47.34
-57.02
-70.14
-86.37
-103.91
-119.68
-129.9
-130.95
-120.48
-98.28
-66.6
-29.63
7.66
40.85
67.07
85.31
95.94
99.96
98.35
91.88
81.33
67.94
53.59
40.59
31.11
26.48
26.82
30.98
37.09
43.24
48.04
50.95
52.03
51.53
49.4
45.07
37.76
26.92
12.8
-3.39
-19.68
-34.1
-45.4
-53.57
-59.87
-66.31
-74.94
-87.1
-102.93
-120.99
-138.38
-151.11
-154.99
-146.72
-125.13
-91.91
-51.39
-9.44
28.27
57.8
77.74
88.91
93.41
93.4
90.36
85.05
77.9
69.55
61.05
53.77
48.92
47.17
48.43
51.91
56.49
61.02
64.58
66.56
66.65
64.76
60.9
55.19
47.79
38.81
28.45
16.91
4.57
-8.05
-20.33
-31.63
-41.48
-49.74
-56.62
-62.67
-68.67
-75.58
-84.36
-95.78
-109.85
-125.38
-139.69
-148.87
-148.81
-136.54
-111.55
-76.24
-35.41
5.2
40.53
67.46
85.16
94.64
97.72
96.25
91.64
84.88
76.82
68.45
60.87
55.23
52.36
52.55
55.49
60.35
66.03
71.43
75.68
78.21
78.76
77.23
73.67
68.22
61.12
52.78
43.72
34.46
25.44
16.94
9.08
1.91
-4.54
-10.23
-15.25
-19.83
-24.42
-29.56
-35.59
-42.55
-49.99
-57.21
-63.53
-68.65
-72.84
-77.0
-82.45
-90.57
-102.37
-117.92
-135.78
-152.86
-164.78
-166.91
-155.89
-130.98
-94.52
-51.51
-8.11
30.13
59.58
79.06
89.32
92.22
89.77
83.63
75.05
65.15
55.16
46.4
40.21
37.55
38.73
43.24
49.85
57.02
63.35
67.92
70.41
70.99
69.91
67.3
62.98
56.71
48.42
38.49
27.79
17.45
8.44
1.29
-4.13
-8.42
-12.44
-16.92
-22.3
-28.59
-35.41
-42.15
-48.17
-53.05
-56.77
-59.79
-63.01
-67.52
-74.37
-84.21
-96.92
-111.34
-125.09
-134.81
-136.86
-128.39
-108.45
-78.56
-42.53
-5.45
27.81
53.79
71.0
79.66
80.95
76.26
66.86
54.0
39.27
24.68
12.54
4.84
2.69
5.94
13.3
22.82
32.51
40.91
47.17
50.95
52.07
50.37
45.7
38.18
28.41
17.45
6.61
-2.99
-10.83
-17.11
-22.68
-28.53
-35.38
-43.3
-51.66
-59.43
-65.68
-70.05
-73.02
-75.84
-80.16
-87.49
-98.58
-112.97
-128.74
-142.72
-150.95
-149.75
-136.83
-112.15
-78.26
-39.68
-1.73
30.99
55.62
71.41
79.2
80.6
77.14
69.95
59.94
48.18
36.22
25.99
19.38
17.61
20.78
27.84
36.99
46.26
54.16
59.91
63.38
64.79
64.3
61.8
56.97
49.54
39.65
28.03
15.9
4.64
-4.71
-11.81
-17.17
-21.96
-27.43
-34.45
-43.13
-52.78
-62.28
-70.53
-76.94
-81.69
-85.62
-90.12
-96.75
-106.83
-120.89
-138.25
-156.57
-172.02
-179.95
-176.25
-158.65
-127.85
-87.39
-42.78
0.11
36.6
64.05
81.94
91.19
93.38
90.12
82.88
73.08
62.23
52.07
44.28
40.27
40.75
45.55
53.68
63.6
73.6
82.23
88.52
92.05
92.81
91.01
86.95
80.96
73.42
64.8
55.59
46.28
37.19
28.5
20.27
12.53
5.35
-1.27
-7.39
-13.32
-19.48
-26.32
-34.01
-42.35
-50.78
-58.62
-65.45
-71.33
-76.97
-83.55
-92.39
-104.57
-120.4
-138.94
-157.75
-173.03
-180.23
-175.32
-156.16
-123.43
-80.81
-34.06
10.61
48.14
75.77
93.06
101.25
102.21
97.67
88.97
77.38
64.46
52.24
42.97
38.55
39.86
46.44
56.65
68.21
78.96
87.36
92.73
95.07
94.78
92.22
87.61
80.99
72.43
62.21
50.94
39.51
28.89
19.83
12.59
6.9
2.01
-2.97
-8.71
-15.46
-22.88
-30.3
-37.0
-42.53
-46.93
-50.74
-54.86
-60.39
-68.34
-79.42
-93.71
-110.23
-126.76
-139.88
-145.62
-140.55
-122.94
-93.62
-55.89
-14.76
24.48
57.47
81.65
96.2
101.59
98.96
89.72
75.52
58.42
40.92
25.77
15.48
11.66
14.63
23.31
35.6
49.01
61.3
70.88
76.91
79.04
77.23
71.62
62.61
51.03
38.1
25.31
13.88
4.42
-3.27
-10.05
-16.92
-24.51
-32.8
-41.15
-48.69
-54.8
-59.44
-63.28
-67.58
-73.79
-83.15
-96.12
-111.87
-128.06
-141.01
-146.5
-140.94
-122.7
-92.83
-55.0
-14.49
23.31
54.29
76.35
89.29
94.08
92.11
84.66
73.0
58.65
43.71
30.71
22.12
19.54
23.21
31.88
43.27
54.9
64.84
72.04
76.29
77.74
76.46
72.28
64.95
54.58
41.88
28.2
15.15
4.05
-4.59
-11.2
-16.96
-23.19
-30.81
-39.87
-49.59
-58.71
-66.09
-71.31
-74.89
-78.25
-83.31
-91.87
-104.9
-122.06
-141.28
-158.91
-170.36
-171.28
-158.87
-132.96
-96.32
-53.94
-11.69
25.37
54.14
73.78
85.22
90.15
90.2
86.55
80.09
71.85
63.26
56.1
52.01
51.96
55.81
62.42
70.11
77.23
82.7
86.18
87.74
87.59
85.66
81.56
74.89
65.48
53.83
41.08
28.73
18.19
10.19
4.53
0.16
-4.28
-9.94
-17.18
-25.48
-33.77
-40.94
-46.45
-50.59
-54.43
-59.46
-67.1
-78.27
-93.01
-110.24
-127.58
-141.6
-148.41
-144.67
-128.68
-101.25
-65.64
-26.76
10.23
41.36
64.63
79.98
88.53
91.71
90.62
86.01
78.61
69.61
60.8
54.16
51.29
52.76
57.87
64.99
72.23
78.12
82.0
83.91
84.2
83.04
80.2
75.24
67.8
58.09
46.95
35.66
25.56
17.53
11.68
7.34
3.35
-1.36
-7.37
-14.49
-21.93
-28.69
-34.13
-38.29
-41.92
-46.26
-52.59
-61.78
-74.04
-88.62
-103.81
-116.92
-124.75
-124.22
-113.37
-92.09
-62.54
-28.74
4.57
33.18
54.52
67.94
74.26
74.9
71.15
63.94
54.12
42.96
32.31
24.4
21.11
23.22
30.08
39.79
49.95
58.46
64.09
66.5
65.93
62.77
57.29
49.71
40.33
29.88
19.35
9.86
2.16
-3.67
-8.18
-12.37
-17.13
-22.87
-29.31
-35.78
-41.53
-46.27
-50.33
-54.65
-60.46
-68.79
-80.03
-93.56
-107.52
-118.99
-124.55
-121.25
-107.56
-84.15
-53.9
-21.15
9.65
35.09
53.64
65.48
71.77
73.84
72.52
68.23
61.44
53.09
44.85
38.74
36.45
38.62
44.59
52.61
60.5
66.52
69.77
70.34
68.86
66.0
62.08
56.99
50.41
42.23
32.76
22.83
13.52
5.79
0.07
-3.95
-7.17
-10.76
-15.65
-22.08
-29.58
-37.14
-43.74
-48.83
-52.6
-55.95
-60.14
-66.37
-75.47
-87.58
-101.99
-117.02
-130.03
-137.8
-137.29
-126.56
-105.62
-76.68
-43.66
-11.07
17.23
39.03
53.95
63.01
67.77
69.57
69.18
66.95
63.21
58.63
54.3
51.51
51.25
53.82
58.72
64.8
70.76
75.53
78.51
79.51
78.59
75.85
71.35
65.29
58.01
50.11
42.32
35.23
29.15
24.0
19.38
14.9
10.29
5.61
1.07
-3.13
-7.01
-10.91
-15.28
-20.52
-26.68
-33.45
-40.26
-46.6
-52.29
-57.62
-63.32
-70.32
-79.45
-91.07
-104.72
-118.83
-130.78
-137.26
-135.19
-122.76
-100.27
-70.33
-37.22
-5.61
20.8
40.14
52.4
58.87
61.16
60.49
57.55
52.71
46.54
40.03
34.58
31.56
31.79
35.26
41.09
47.86
54.07
58.57
60.84
60.92
59.22
56.26
52.39
47.71
42.13
35.6
28.27
20.65
13.48
7.47
2.99
-0.13
-2.53
-5.11
-8.58
-13.22
-18.85
-24.87
-30.63
-35.65
-39.82
-43.47
-47.24
-51.9
-58.19
-66.61
-77.24
-89.59
-102.35
-113.42
-120.12
-119.74
-110.48
-92.12
-66.43
-36.79
-7.32
18.38
38.04
51.06
58.11
60.37
58.95
54.55
47.72
39.31
30.73
23.82
20.37
21.4
26.74
35.05
44.32
52.55
58.39
61.35
61.63
59.74
56.15
51.23
45.22
38.45
31.37
24.42
17.98
12.17
6.9
1.96
-2.83
-7.54
-12.16
-16.72
-21.33
-26.24
-31.71
-37.84
-44.49
-51.24
-57.58
-63.16
-68.05
-72.77
-78.29
-85.7
-95.86
-108.94
-123.97
-138.69
-149.72
-153.38
-146.72
-128.64
-100.57
-66.18
-30.37
2.13
28.1
46.31
57.34
62.75
64.21
62.95
59.78
55.29
50.24
45.65
42.64
42.12
44.45
49.28
55.72
62.58
68.79
73.6
76.65
77.87
77.24
74.69
70.16
63.74
55.84
47.25
38.98
31.88
26.39
22.29
18.87
15.23
10.75
5.35
-0.54
-6.18
-11.03
-14.97
-18.47
-22.32
-27.27
-33.64
-41.14
-49.0
-56.38
-62.7
-68.02
-73.04
-78.93
-87.0
-98.17
-112.53
-128.91
-144.7
-156.21
-159.49
-151.53
-131.38
-100.75
-63.63
-25.25
9.48
37.16
56.45
67.78
72.64
72.76
69.57
64.2
57.6
50.81
44.99
41.32
40.69
43.39
49.0
56.48
64.55
72.0
77.99
82.07
84.03
83.78
81.17
76.2
69.11
60.53
51.39
42.7
35.17
29.0
23.88
19.2
14.44
9.38
4.21
-0.72
-5.17
-9.2
-13.25
-17.9
-23.58
-30.31
-37.66
-44.92
-51.46
-57.06
-62.03
-67.22
-73.79
-82.88
-95.14
-110.29
-126.71
-141.46
-150.69
-150.67
-139.01
-115.63
-82.97
-45.44
-8.16
24.48
49.71
66.63
75.78
78.38
75.69
68.85
58.98
47.55
36.43
27.78
23.49
24.62
30.96
41.09
52.82
63.87
72.5
77.84
79.85
79.0
75.88
70.97
64.62
57.09
48.72
39.94
31.21
22.96
15.49
8.99
3.47
-1.19
-5.32
-9.37
-13.87
-19.25
-25.67
-32.89
-40.42
-47.6
-53.96
-59.41
-64.36
-69.61
-76.23
-85.28
-97.48
-112.75
-129.72
-145.6
-156.46
-158.16
-147.71
-124.43
-90.54
-50.64
-10.38
25.15
52.68
71.2
81.49
85.22
84.15
79.64
72.74
64.48
56.12
49.18
45.13
45.03
49.1
56.6
66.04
75.61
83.63
89.02
91.39
90.85
87.79
82.6
75.61
67.21
57.93
48.52
39.74
32.16
25.92
20.75
16.17
11.78
7.41
3.09
-1.12
-5.36
-9.94
-15.2
-21.24
-27.84
-34.48
-40.69
-46.27
-51.47
-56.94
-63.58
-72.31
-83.86
-98.41
-115.18
-132.04
-145.57
-151.63
-146.6
-128.78
-99.28
-61.94
-22.21
14.45
44.14
65.12
77.71
83.32
83.57
79.78
72.89
63.85
53.93
44.77
38.13
35.39
37.13
42.89
51.28
60.46
68.61
74.46
77.53
77.99
76.35
73.13
68.56
62.61
55.18
46.38
36.66
26.83
17.78
10.23
4.45
0.2
-3.16
-6.46
-10.4
-15.38
-21.32
-27.72
-33.85
-39.05
-43.09
-46.29
-49.47
-53.74
-60.13
-69.33
-81.45
-95.75
-110.54
-123.15
-130.25
-128.65
-116.32
-93.26
-61.88
-26.5
7.89
37.02
58.4
71.54
77.36
77.29
72.59
64.15
52.88
40.15
28.06
19.05
15.2
17.43
25.04
35.95
47.4
56.98
63.24
65.96
65.77
63.55
59.93
55.05
48.74
40.87
31.68
21.83
12.32
4.08
-2.32
-6.94
-10.4
-13.71
-17.85
-23.43
-30.38
-38.07
-45.48
-51.77
-56.61
-60.41
-64.17
-69.1
-76.3
-86.46
-99.68
-115.3
-131.63
-145.85
-154.3
-153.3
-140.38
-115.42
-81.05
-42.07
-4.04
28.37
52.53
68.03
76.03
78.28
76.31
71.2
63.79
55.12
46.62
39.97
36.69
37.65
42.71
50.78
60.15
69.01
75.91
80.02
81.23
79.85
76.39
71.27
64.77
57.07
48.41
39.21
30.06
21.61
14.36
8.51
3.89
0.04
-3.64
-7.69
-12.53
-18.33
-24.94
-31.95
-38.79
-44.94
-50.15
-54.62
-59.0
-64.22
-71.35
-81.26
-94.35
-110.14
-126.92
-141.66
-150.41
-149.37
-136.16
-110.9
-76.51
-37.99
-0.88
30.33
53.26
67.77
75.25
77.5
76.03
71.71
65.09
56.98
48.71
42.03
38.67
39.64
44.86
53.07
62.38
70.86
77.17
80.82
82.0
81.18
78.81
74.96
69.47
62.14
53.06
42.72
32.03
22.05
13.65
7.21
2.52
-1.15
-4.79
-9.21
-14.8
-21.39
-28.33
-34.86
-40.39
-44.8
-48.49
-52.32
-57.28
-64.3
-74.02
-86.61
-101.47
-117.03
-130.57
-138.65
-137.85
-125.98
-103.01
-71.4
-35.48
-0.26
30.08
53.0
67.87
75.33
76.58
72.78
64.98
54.38
42.59
31.7
23.93
21.04
23.68
31.14
41.48
52.23
61.15
66.92
69.34
69.01
66.78
63.16
58.17
51.46
42.84
32.67
21.93
11.98
3.99
-1.58
-5.16
-7.92
-11.23
-16.11
-22.75
-30.53
-38.31
-45.02
-50.16
-54.03
-57.65
-62.38
-69.55
-79.99
-93.84
-110.25
-127.17
-141.46
-149.31
-147.27
-133.36
-108.0
-74.18
-36.72
-0.79
29.45
51.83
66.18
73.73
76.12
74.72
70.45
64.02
56.34
48.79
43.09
40.86
42.98
49.21
58.16
67.78
76.04
81.62
84.14
84.01
81.94
78.49
73.84
67.88
60.48
51.8
42.36
32.95
24.37
17.19
11.62
7.4
3.89
0.29
-4.17
-9.88
-16.75
-24.18
-31.31
-37.42
-42.26
-46.19
-50.17
-55.41
-63.0
-73.65
-87.44
-103.58
-120.25
-134.57
-143.03
-142.21
-129.97
-106.36
-73.97
-37.34
-1.66
28.73
51.4
66.11
74.1
77.17
76.8
73.91
69.03
62.86
56.51
51.48
49.18
50.42
55.09
62.18
70.16
77.46
82.93
85.94
86.38
84.47
80.56
75.02
68.29
60.79
52.94
45.13
37.64
30.68
24.38
18.76
13.81
9.43
5.44
1.58
-2.45
-6.9
-11.92
-17.46
-23.3
-29.15
-34.75
-40.02
-45.14
-50.58
-56.97
-65.03
-75.35
-88.21
-103.15
-118.7
-132.18
-140.11
-139.01
-126.67
-103.12
-71.01
-34.93
-0.11
29.17
50.58
63.93
70.42
71.67
69.02
63.26
55.06
45.48
36.18
29.19
26.3
28.37
34.94
44.34
54.33
62.83
68.56
71.23
71.29
69.47
66.3
61.94
56.25
49.08
40.53
31.12
21.66
13.03
5.92
0.59
-3.23
-6.25
-9.41
-13.53
-19.01
-25.63
-32.65
-39.16
-44.48
-48.57
-52.04
-56.0
-61.68
-70.01
-81.43
-95.61
-111.25
-125.98
-136.53
-139.39
-131.82
-112.98
-84.5
-50.25
-15.2
16.06
40.56
57.39
67.31
71.86
72.51
70.31
65.95
60.12
53.82
48.35
44.99
44.65
47.51
52.95
59.83
66.82
72.8
77.04
79.22
79.28
77.31
73.39
67.7
60.55
52.4
43.89
35.63
28.11
21.53
15.8
10.7
5.95
1.42
-2.91
-7.04
-11.09
-15.34
-20.11
-25.62
-31.81
-38.29
-44.54
-50.21
-55.33
-60.44
-66.45
-74.32
-84.78
-97.99
-113.16
-128.38
-140.68
-146.49
-142.64
-127.45
-101.55
-67.99
-31.49
2.97
31.51
52.24
65.23
71.86
73.89
72.71
69.19
63.9
57.57
51.3
46.46
44.31
45.49
49.79
56.2
63.31
69.83
74.9
78.21
79.73
79.47
77.35
73.22
67.09
59.35
50.79
42.39
35.03
29.16
24.64
20.87
17.03
12.51
7.23
1.61
-3.64
-7.97
-11.36
-14.4
-18.02
-23.0
-29.55
-37.13
-44.79
-51.58
-57.1
-61.71
-66.42
-72.53
-81.15
-92.8
-107.09
-122.44
-136.15
-144.67
-144.49
-133.23
-110.63
-78.98
-42.67
-6.88
23.83
46.74
61.22
68.28
69.62
66.83
61.01
52.9
43.35
33.61
25.31
20.14
19.29
23.0
30.45
40.01
49.75
58.03
63.83
66.84
67.25
65.44
61.73
56.35
49.48
41.39
32.61
23.82
15.73
8.84
3.32
-1.03
-4.68
-8.14
-11.86
-16.13
-21.07
-26.65
-32.67
-38.77
-44.5
-49.46
-53.56
-57.16
-61.13
-66.58
-74.59
-85.77
-99.96
-115.89
-131.04
-141.95
-144.89
-136.97
-117.28
-87.47
-51.51
-14.63
18.26
43.87
61.12
70.75
74.41
73.67
69.53
62.58
53.49
43.5
34.42
28.23
26.38
29.26
36.07
45.14
54.57
62.77
68.78
72.23
73.08
71.48
67.64
61.89
54.74
46.77
38.6
30.7
23.31
16.51
10.25
4.49
-0.84
-5.77
-10.41
-14.94
-19.69
-24.97
-30.93
-37.5
-44.32
-50.87
-56.77
-61.96
-66.9
-72.47
-79.75
-89.73
-102.9
-118.88
-136.04
-151.44
-161.17
-161.29
-149.09
-124.27
-89.4
-49.34
-9.86
24.08
49.61
66.23
75.23
78.55
77.9
74.34
68.49
61.01
52.95
45.79
41.07
39.94
42.74
48.91
57.16
65.93
73.78
79.72
83.24
84.26
82.9
79.36
73.9
66.84
58.69
49.99
41.31
33.04
25.31
18.16
11.56
5.56
0.26
-4.34
-8.45
-12.5
-17.02
-22.38
-28.55
-35.17
-41.62
-47.42
-52.48
-57.21
-62.54
-69.63
-79.51
-92.74
-108.89
-126.24
-141.71
-151.37
-151.37
-139.27
-115.04
-81.35
-42.96
-5.27
27.17
51.72
67.77
76.19
78.41
75.72
69.1
59.5
48.19
36.95
27.86
22.7
22.46
26.92
34.81
44.23
53.25
60.52
65.42
68.01
68.6
67.36
64.17
58.71
50.86
40.98
30.09
19.61
10.9
4.68
0.69
-2.16
-5.34
-10.02
-16.56
-24.35
-32.2
-38.87
-43.72
-46.95
-49.52
-52.83
-58.23
-66.66
-78.4
-92.81
-108.16
-121.66
-129.8
-129.19
-117.73
-95.45
-64.86
-30.28
3.41
32.22
53.89
67.94
75.06
76.27
72.48
64.48
53.37
40.89
29.3
20.97
17.59
19.66
26.34
35.78
45.79
54.54
60.94
64.7
66.03
65.19
62.23
56.99
49.37
39.58
28.45
17.21
7.14
-0.92
-6.99
-11.87
-16.79
-22.82
-30.33
-38.84
-47.23
-54.33
-59.46
-62.89
-65.7
-69.47
-75.74
-85.6
-99.29
-115.9
-133.3
-148.08
-156.26
-154.2
-139.89
-113.82
-79.17
-40.93
-4.43
26.23
49.0
63.93
72.31
75.74
75.39
71.92
65.88
58.18
50.33
44.2
41.45
42.95
48.37
56.33
64.91
72.35
77.63
80.56
81.58
81.24
79.76
76.83
71.9
64.57
55.07
44.37
33.9
25.03
18.45
13.91
10.32
6.29
0.79
-6.4
-14.66
-22.92
-30.17
-36.03
-40.89
-45.76
-51.9
-60.41
-71.93
-86.51
-103.38
-120.81
-136.02
-145.55
-146.02
-135.21
-113.03
-81.85
-46.0
-10.46
20.51
44.41
60.69
70.2
74.37
74.52
71.59
66.36
59.75
53.06
47.79
45.34
46.51
51.12
58.11
65.88
72.87
78.07
81.21
82.45
81.98
79.66
75.01
67.63
57.61
45.89
34.02
23.6
15.63
10.05
5.92
1.85
-3.27
-9.79
-17.23
-24.6
-30.9
-35.66
-39.16
-42.37
-46.61
-53.12
-62.73
-75.55
-90.68
-106.15
-119.03
-125.91
-123.75
-110.91
-87.9
-57.4
-23.63
8.91
36.68
57.79
71.95
79.81
82.3
80.15
74.03
64.88
54.26
44.23
37.01
34.19
36.28
42.45
50.92
59.54
66.59
71.13
73.08
72.8
70.63
66.58
60.4
51.92
41.5
30.1
19.17
9.98
3.15
-1.64
-5.47
-9.65
-15.09
-21.96
-29.64
-37.07
-43.36
-48.12
-51.77
-55.36
-60.24
-67.75
-78.72
-93.18
-109.98
-126.69
-139.76
-145.27
-140.05
-122.8
-94.86
-59.95
-23.15
10.63
38.0
57.74
70.37
77.39
80.24
79.83
76.64
71.2
64.51
58.14
53.84
52.91
55.76
61.65
69.06
76.24
81.84
85.15
86.17
85.24
82.73
78.81
73.49
66.75
58.71
49.79
40.57
31.67
23.61
16.63
10.76
5.8
1.43
-2.74
-7.13
-12.11
-17.85
-24.3
-31.15
-37.94
-44.25
-49.93
-55.21
-60.69
-67.23
-75.72
-86.87
-100.76
-116.55
-132.09
-144.11
-148.82
-143.02
-125.34
-96.93
-61.42
-23.86
10.71
38.73
58.77
71.36
78.15
80.93
80.92
78.74
74.72
69.42
63.93
59.66
57.91
59.35
63.72
69.96
76.66
82.49
86.61
88.68
88.68
86.67
82.72
76.94
69.63
61.32
52.71
44.5
37.14
30.71
24.95
19.48
14.04
8.61
3.41
-1.29
-5.39
-9.13
-12.96
-17.39
-22.74
-28.94
-35.59
-42.17
-48.29
-53.99
-59.73
-66.38
-74.91
-86.02
-99.72
-114.92
-129.25
-139.29
-141.44
-133.0
-113.32
-84.24
-49.76
-14.88
15.87
39.62
55.56
64.44
67.73
66.74
62.33
55.1
45.87
36.13
27.88
23.16
23.22
28.07
36.35
45.93
54.64
61.05
64.7
65.97
65.47
63.57
60.18
54.91
47.48
38.1
27.6
17.2
8.13
1.12
-3.79
-7.26
-10.39
-14.25
-19.42
-25.86
-32.86
-39.43
-44.74
-48.51
-51.18
-53.82
-57.76
-64.2
-73.85
-86.6
-101.35
-115.87
-127.11
-131.66
-126.69
-110.97
-85.51
-53.52
-19.63
11.53
36.53
53.9
64.0
68.21
68.04
64.53
58.31
49.98
40.58
31.74
25.31
22.82
24.78
30.54
38.48
46.64
53.4
57.91
60.08
60.29
58.88
55.92
51.18
44.37
35.55
25.25
14.58
4.76
-3.19
-8.95
-12.96
-16.31
-20.2
-25.5
-32.33
-40.03
-47.51
-53.76
-58.33
-61.6
-64.67
-68.95
-75.76
-85.94
-99.47
-115.21
-130.82
-142.86
-147.51
-141.63
-123.89
-95.55
-60.31
-23.32
10.37
37.18
55.75
66.63
71.49
72.0
69.36
64.25
57.25
49.32
41.97
36.9
35.48
38.17
44.32
52.41
60.59
67.33
71.82
73.98
74.21
72.97
70.43
66.45
60.67
52.9
43.34
32.79
22.41
13.39
6.47
1.62
-1.93
-5.39
-9.88
-15.98
-23.44
-31.4
-38.76
-44.73
-49.22
-52.86
-56.81
-62.32
-70.38
-81.5
-95.5
-111.39
-127.12
-139.65
-145.38
-141.11
-125.18
-98.41
-64.07
-27.12
7.37
35.58
55.82
68.24
74.14
74.96
71.82
65.52
56.92
47.36
38.62
32.55
30.49
32.78
38.59
46.25
53.87
59.92
63.67
65.12
64.67
62.69
59.17
53.83
46.4
37.02
26.48
16.12
7.33
0.95
-3.1
-5.81
-8.61
-12.73
-18.57
-25.66
-32.82
-38.85
-43.06
-45.63
-47.53
-50.19
-55.0
-62.95
-74.3
-88.38
-103.44
-116.72
-124.85
-124.63
-114.0
-92.93
-63.63
-30.05
3.18
32.1
54.23
68.85
76.49
78.25
75.16
68.13
58.15
46.68
35.7
27.41
23.62
25.09
31.24
40.32
50.03
58.29
63.85
66.42
66.38
64.27
60.36
54.58
46.73
37.0
26.14
15.43
6.22
-0.71
-5.49
-9.09
-12.9
-18.01
-24.72
-32.47
-40.15
-46.7
-51.66
-55.39
-58.94
-63.74
-71.13
-81.87
-95.8
-111.49
-126.18
-136.21
-137.83
-128.41
-107.48
-77.15
-41.62
-6.02
25.18
49.19
65.35
74.56
78.39
78.22
74.93
69.09
61.42
53.18
46.1
41.92
41.77
45.66
52.47
60.34
67.41
72.38
74.88
75.2
73.93
71.44
67.67
62.27
54.93
45.81
35.67
25.77
17.32
11.1
7.04
4.27
1.53
-2.32
-7.84
-14.8
-22.34
-29.41
-35.19
-39.53
-42.98
-46.65
-51.84
-59.67
-70.72
-84.72
-100.33
-115.08
-125.67
-128.63
-121.37
-103.15
-75.61
-42.47
-8.57
21.65
45.24
61.25
70.4
74.2
74.08
70.97
65.39
57.93
49.64
42.1
37.02
35.69
38.34
44.11
51.3
58.04
62.98
65.63
66.24
65.38
63.43
60.31
55.58
48.84
40.17
30.23
20.18
11.22
4.14
-0.89
-4.41
-7.37
-10.76
-15.26
-21.02
-27.62
-34.31
-40.29
-45.13
-48.94
-52.43
-56.65
-62.69
-71.31
-82.68
-96.12
-109.97
-121.61
-127.9
-125.87
-113.74
-91.71
-62.22
-29.32
2.42
29.25
49.09
61.63
67.75
68.73
65.63
59.21
50.24
39.96
30.18
23.01
20.17
22.37
28.95
38.14
47.64
55.51
60.66
63.0
63.05
61.42
58.37
53.76
47.3
38.94
29.12
18.8
9.14
1.12
-4.84
-9.0
-12.22
-15.63
-20.17
-26.2
-33.35
-40.72
-47.26
-52.29
-55.88
-58.87
-62.62
-68.55
-77.68
-90.28
-105.62
-121.83
-135.96
-144.45
-143.86
-132.02
-108.87
-76.88
-40.46
-4.78
25.78
48.66
63.47
71.38
74.12
73.2
69.5
63.62
56.28
48.7
42.48
39.15
39.56
43.6
50.28
58.17
65.91
72.51
77.42
80.37
81.15
79.57
75.59
69.45
61.71
53.18
44.67
36.76
29.68
23.33
17.45
11.84
6.51
1.57
-2.85
-6.85
-10.85
-15.39
-20.9
-27.45
-34.66
-41.84
-48.39
-54.03
-59.05
-64.23
-70.67
-79.47
-91.37
-106.37
-123.23
-139.37
-150.99
-154.02
-145.29
-123.87
-91.67
-53.09
-13.84
20.84
47.5
65.1
74.62
78.02
77.25
73.59
67.67
60.0
51.44
43.41
37.71
35.88
38.53
45.16
54.19
63.62
71.64
77.08
79.6
79.42
77.0
72.76
67.0
59.91
51.76
42.93
33.95
25.31
17.47
10.65
4.88
-0.02
-4.43
-8.78
-13.48
-18.8
-24.77
-31.15
-37.46
-43.21
-48.04
-51.95
-55.35
-59.02
-63.94
-71.09
-81.24
-94.57
-110.28
-126.3
-139.31
-145.32
-140.83
-124.08
-95.91
-59.81
-21.0
15.11
44.4
64.94
76.85
81.55
80.79
75.96
67.99
57.76
46.51
36.04
28.47
25.55
28.06
35.47
46.03
57.44
67.52
74.82
78.74
79.49
77.61
73.69
68.2
61.44
53.7
45.33
36.68
28.18
20.15
12.84
6.35
0.69
-4.25
-8.77
-13.31
-18.42
-24.53
-31.74
-39.71
-47.72
-54.98
-60.98
-65.85
-70.34
-75.63
-83.05
-93.62
-107.76
-124.82
-142.86
-158.53
-167.52
-165.67
-150.32
-121.56
-82.59
-39.0
2.9
37.93
63.28
78.73
85.83
86.84
83.68
77.68
69.78
60.96
52.53
46.08
43.05
44.27
49.56
57.85
67.5
76.8
84.45
89.78
92.6
93.02
91.12
86.95
80.61
72.43
63.06
53.33
44.02
35.57
28.0
21.05
14.42
7.97
1.81
-3.85
-8.96
-13.75
-18.65
-24.1
-30.24
-36.83
-43.38
-49.41
-54.8
-59.93
-65.66
-73.06
-83.13
-96.37
-112.4
-129.6
-144.98
-154.6
-154.44
-141.71
-116.03
-79.92
-38.36
2.68
37.89
64.02
80.27
87.76
88.47
84.26
76.41
65.89
53.83
41.95
32.41
27.18
27.35
32.65
41.5
51.62
60.88
67.88
72.18
74.05
73.98
72.22
68.68
63.02
55.0
44.83
33.29
21.69
11.42
3.49
-1.87
-5.34
-8.24
-11.98
-17.46
-24.71
-32.86
-40.61
-46.79
-50.95
-53.53
-55.76
-59.16
-65.11
-74.5
-87.41
-102.94
-119.08
-132.71
-140.06
-137.61
-123.2
-97.09
-62.17
-23.3
14.09
45.53
68.51
82.58
88.7
88.3
82.65
72.88
60.23
46.49
33.91
24.83
20.99
23.0
30.05
40.26
51.28
60.98
67.98
71.84
72.79
71.36
67.91
62.48
54.94
45.32
34.13
22.51
11.84
3.3
-2.77
-6.98
-10.69
-15.39
-21.94
-30.25
-39.24
-47.44
-53.69
-57.71
-60.27
-62.95
-67.6
-75.71
-88.01
-104.13
-122.35
-139.63
-151.95
-155.14
-146.09
-123.99
-90.82
-51.11
-10.59
25.45
53.55
72.56
83.25
87.29
86.33
81.57
73.88
64.23
54.09
45.31
39.8
38.85
42.67
50.26
59.78
69.12
76.65
81.51
83.67
83.59
81.73
78.25
72.94
65.52
56.0
44.97
33.55
23.08
14.65
8.58
4.32
0.62
-3.91
-10.15
-18.09
-26.9
-35.29
-42.17
-47.2
-50.93
-54.58
-59.61
-67.27
-78.26
-92.47
-108.81
-124.99
-137.67
-143.03
-137.75
-120.29
-91.69
-55.56
-17.14
18.28
46.8
66.68
78.17
82.63
81.62
76.37
67.78
56.92
45.29
34.93
27.92
25.71
28.58
35.51
44.57
53.59
60.94
65.83
68.28
68.66
67.21
63.82
58.1
49.84
39.4
27.85
16.69
7.26
0.2
-4.8
-8.82
-13.12
-18.55
-25.14
-32.18
-38.62
-43.68
-47.16
-49.67
-52.34
-56.59
-63.64
-74.23
-88.15
-103.99
-119.01
-129.47
-131.55
-122.53
-101.92
-71.83
-36.52
-1.09
29.93
53.74
69.49
77.77
79.8
76.72
69.42
58.85
46.43
34.21
24.62
19.81
20.82
27.22
37.2
48.21
57.88
64.73
68.4
69.3
68.06
64.94
59.8
52.29
42.39
30.75
18.7
7.82
-0.71
-6.64
-10.73
-14.46
-19.33
-26.12
-34.61
-43.65
-51.82
-58.06
-62.2
-65.11
-68.36
-73.73
-82.61
-95.57
-111.92
-129.56
-145.02
-154.09
-152.79
-138.75
-112.18
-76.15
-35.86
2.95
35.61
59.61
74.76
82.44
84.5
82.46
77.27
69.63
60.56
51.63
44.83
41.93
43.81
50.05
59.03
68.5
76.38
81.42
83.39
82.91
80.81
77.66
73.46
67.79
60.21
50.7
39.86
28.86
18.95
11.03
5.23
0.95
-2.95
-7.56
-13.51
-20.7
-28.4
-35.62
-41.56
-46.02
-49.48
-52.94
-57.67
-64.86
-75.37
-89.42
-106.24
-123.77
-138.71
-147.02
-144.94
-130.32
-103.57
-67.89
-28.37
9.41
40.98
64.0
78.36
85.46
87.2
85.12
80.18
72.96
64.2
55.17
47.62
43.37
43.59
48.32
56.37
65.7
74.17
80.23
83.26
83.51
81.67
78.33
73.75
67.78
60.22
51.07
40.82
30.38
20.78
12.86
6.92
2.64
-0.79
-4.39
-8.98
-14.97
-22.15
-29.82
-37.06
-43.13
-47.77
-51.41
-55.04
-59.96
-67.41
-78.15
-92.26
-108.8
-125.67
-139.63
-146.82
-143.64
-128.08
-100.64
-64.56
-25.11
12.02
42.32
63.58
75.85
80.62
79.73
74.53
65.93
54.81
42.61
31.5
23.89
21.59
25.1
33.29
43.91
54.4
62.73
67.98
70.2
70.04
68.05
64.4
58.77
50.81
40.53
28.66
16.56
5.82
-2.38
-7.73
-10.99
-13.63
-17.22
-22.71
-30.02
-38.19
-45.82
-51.8
-55.87
-58.74
-61.83
-66.72
-74.71
-86.36
-101.23
-117.74
-133.08
-143.57
-145.34
-135.52
-113.34
-80.82
-42.38
-3.63
30.27
56.01
72.66
81.21
83.53
81.4
76.04
68.18
58.63
48.62
39.94
34.51
33.73
37.89
46.0
56.0
65.52
72.65
76.44
77.01
75.15
71.76
67.39
62.07
55.5
47.45
38.06
28.0
18.25
9.73
3.0
-1.97
-5.78
-9.35
-13.56
-18.96
-25.61
-33.06
-40.6
-47.53
-53.44
-58.38
-62.89
-67.9
-74.46
-83.63
-96.13
-111.92
-129.77
-147.03
-159.75
-163.62
-155.21
-133.38
-99.94
-59.45
-17.85
19.28
48.2
67.7
78.7
83.21
83.29
80.34
75.14
68.27
60.6
53.46
48.46
46.91
49.35
55.33
63.53
72.24
79.95
85.64
88.9
89.76
88.41
85.04
79.79
72.94
64.92
56.36
47.92
40.07
32.95
26.42
20.19
14.06
8.05
2.33
-2.97
-7.92
-12.86
-18.23
-24.38
-31.3
-38.64
-45.9
-52.64
-58.78
-64.66
-71.07
-79.03
-89.55
-103.24
-119.75
-137.27
-152.43
-160.82
-158.25
-142.27
-113.37
-75.16
-33.36
5.93
38.05
60.84
74.57
80.97
82.08
79.39
73.73
65.66
56.07
46.44
38.67
34.5
34.9
39.7
47.66
56.9
65.49
72.02
75.8
76.78
75.32
71.86
66.72
60.1
52.12
42.98
33.09
23.14
13.93
6.17
0.26
-4.0
-7.31
-10.64
-14.85
-20.32
-26.79
-33.54
-39.73
-44.75
-48.58
-51.72
-55.09
-59.76
-66.72
-76.69
-89.87
-105.55
-121.85
-135.63
-142.95
-140.17
-125.23
-98.67
-63.75
-25.58
10.43
40.09
61.36
74.24
79.98
80.09
75.73
67.73
56.97
44.88
33.52
25.19
21.75
23.86
30.74
40.41
50.41
58.64
64.02
66.49
66.71
65.31
62.45
57.76
50.67
40.98
29.27
16.92
5.64
-3.2
-9.16
-12.87
-15.75
-19.35
-24.72
-31.97
-40.33
-48.54
-55.46
-60.58
-64.21
-67.44
-71.75
-78.6
-89.03
-103.26
-120.31
-137.84
-152.18
-159.1
-154.92
-137.83
-108.78
-71.46
-31.28
6.23
36.94
58.97
72.55
79.2
80.68
78.38
73.18
65.83
57.39
49.37
43.52
41.34
43.52
49.6
58.11
67.05
74.55
79.45
81.49
81.11
79.06
75.82
71.49
65.75
58.29
49.11
38.76
28.26
18.8
11.28
5.93
2.22
-0.99
-4.95
-10.53
-17.89
-26.38
-34.85
