0
0.86
-1.23
-4.53
-8.66
-13.32
-18.34
-23.84
-30.23
-37.94
-47.12
-57.14
-66.39
-72.52
-73.1
-66.45
-52.35
-32.24
-8.79
14.94
36.28
53.49
65.81
73.18
75.81
73.98
67.98
58.35
45.94
32.0
18.06
5.6
-4.21
-10.85
-14.46
-15.67
-15.38
-14.37
-13.13
-11.88
-10.71
-9.73
-9.21
-9.51
-11.02
-13.95
-18.42
-24.42
-31.85
-40.37
-49.22
-56.94
-61.59
-61.2
-54.44
-41.22
-22.83
-1.61
19.74
38.93
54.43
65.55
72.1
74.11
71.61
64.8
54.24
41.02
26.73
13.09
1.61
-6.84
-12.15
-14.84
-15.8
-15.84
-15.51
-14.99
-14.33
-13.57
-13.01
-13.16
-14.65
-18.03
-23.66
-31.63
-41.68
-53.01
-64.2
-73.2
-77.76
-75.94
-66.89
-51.14
-30.55
-7.71
14.8
35.02
51.72
64.22
72.08
74.95
72.6
65.29
53.93
40.11
25.75
12.63
2.03
-5.51
-10.19
-12.64
-13.65
-13.83
-13.59
-13.07
-12.38
-11.71
-11.43
-12.11
-14.39
-18.85
-25.88
-35.47
-47.01
-59.05
-69.4
-75.52
-75.13
-67.0
-51.42
-30.17
-6.0
18.15
39.89
57.66
70.65
78.49
81.0
78.18
70.38
58.52
44.16
29.24
15.68
4.92
-2.35
-6.28
-7.62
-7.38
-6.45
-5.43
-4.56
-3.9
-3.52
-3.64
-4.65
-6.99
-10.98
-16.83
-24.54
-33.9
-44.41
-55.02
-64.04
-69.33
-68.72
-60.77
-45.37
-23.97
0.75
25.62
47.83
65.45
77.57
84.02
85.1
81.23
73.08
61.6
48.12
34.21
21.42
10.98
3.59
-0.61
-1.94
-0.94
1.68
5.13
8.58
11.19
12.24
11.27
8.25
3.5
-2.36
-8.71
-15.11
-21.42
-27.87
-34.99
-43.39
-53.43
-64.81
-76.17
-85.16
-88.98
-85.18
-72.67
-52.18
-26.19
1.9
28.65
51.46
68.82
80.19
85.63
85.53
80.49
71.42
59.55
46.4
33.51
22.19
13.32
7.26
3.96
3.13
4.39
7.29
11.3
15.68
19.47
21.64
21.39
18.36
12.85
5.61
-2.31
-10.03
-17.04
-23.28
-29.16
-35.33
-42.55
-51.29
-61.33
-71.5
-79.62
-82.98
-79.16
-66.91
-46.71
-20.73
7.79
35.32
58.92
76.63
87.57
91.74
89.77
82.69
71.81
58.54
44.37
30.66
18.59
9.02
2.37
-1.4
-2.7
-2.07
-0.07
2.9
6.5
10.23
13.36
14.97
14.24
10.76
4.75
-2.98
-11.31
-19.22
-26.13
-32.03
-37.48
-43.3
-50.37
-59.14
-69.37
-79.88
-88.55
-92.81
-90.28
-79.61
-61.03
-36.34
-8.42
19.5
44.65
65.11
79.8
88.35
90.82
87.63
79.63
68.08
54.63
41.02
28.75
18.82
11.65
7.14
4.91
4.52
5.61
7.93
11.18
14.86
18.2
20.24
20.12
17.35
12.06
4.96
-2.89
-10.47
-17.17
-22.92
-28.23
-33.92
-40.84
-49.57
-60.07
-71.48
-81.98
-89.11
-90.31
-83.74
-68.98
-47.29
-21.3
5.75
30.86
51.87
67.67
78.02
83.07
83.21
78.87
70.7
59.63
46.9
33.88
21.87
11.85
4.4
-0.34
-2.55
-2.63
-1.09
1.4
4.1
6.26
7.25
6.73
4.7
1.38
-2.84
-7.66
-12.86
-18.44
-24.53
-31.42
-39.43
-48.58
-58.25
-66.95
-72.48
-72.48
-65.36
-50.9
-30.54
-6.97
16.69
37.72
54.32
65.69
71.81
73.12
70.2
63.69
54.31
42.91
30.49
18.2
7.2
-1.54
-7.48
-10.58
-11.31
-10.46
-8.91
-7.39
-6.49
-6.57
-7.83
-10.32
-13.95
-18.48
-23.65
-29.26
-35.29
-41.98
-49.71
-58.7
-68.6
-78.15
-85.24
-87.33
-82.26
-69.08
-48.56
-23.05
4.2
29.93
51.66
68.02
78.59
83.56
83.35
78.54
69.89
58.44
45.45
32.27
20.15
10.07
2.64
-1.98
-4.01
-4.01
-2.76
-1.06
0.4
1.16
0.97
-0.31
-2.72
-6.27
-10.93
-16.6
-23.13
-30.49
-38.72
-47.96
-58.02
-68.11
-76.64
-81.32
-79.82
-70.62
-53.66
-30.54
-4.11
22.33
45.88
64.57
77.53
84.67
86.38
83.28
76.11
65.74
53.25
39.87
26.83
15.26
6.02
-0.38
-3.79
-4.41
-2.72
0.56
4.5
8.06
10.27
10.41
8.19
3.83
-2.06
-8.72
-15.46
-21.93
-28.17
-34.64
-42.04
-51.01
-61.56
-72.8
-82.73
-88.61
-87.78
-78.59
-61.09
-37.09
-9.68
17.69
42.04
61.45
75.02
82.65
84.71
81.81
74.75
64.54
52.35
39.45
27.03
16.06
7.19
0.77
-3.12
-4.6
-3.98
-1.79
1.21
4.19
6.36
7.08
6.06
3.35
-0.74
-5.76
-11.29
-17.05
-23.04
-29.58
-37.18
-46.25
-56.66
-67.38
-76.36
-80.97
-78.79
-68.49
-50.43
-26.6
-0.07
25.92
48.7
66.56
78.74
85.12
86.0
81.96
73.83
62.75
49.98
36.81
24.33
13.38
4.53
-1.87
-5.67
-6.96
-6.13
-3.93
-1.32
0.69
1.36
0.37
-2.16
-5.83
-10.19
-14.9
-19.82
-24.99
-30.6
-36.99
-44.51
-53.27
-62.8
-71.76
-77.96
-78.94
-72.73
-58.64
-37.7
-12.4
14.02
38.46
58.71
73.59
82.88
86.81
85.84
80.48
71.38
59.47
45.93
32.09
19.2
8.23
-0.21
-5.88
-8.85
-9.43
-8.17
-5.83
-3.24
-1.17
-0.18
-0.49
-2.1
-4.83
-8.45
-12.76
-17.61
-22.98
-29.04
-36.1
-44.52
-54.17
-64.04
-72.15
-75.9
-72.96
-62.17
-44.07
-20.87
4.35
28.46
49.1
64.89
75.33
80.48
80.69
76.44
68.42
57.56
44.97
31.87
19.46
8.76
0.51
-4.95
-7.7
-8.14
-6.96
-4.88
-2.66
-0.91
-0.16
-0.74
-2.74
-6.04
-10.34
-15.28
-20.59
-26.31
-32.73
-40.26
-49.02
-58.49
-67.21
-72.99
-73.53
-67.19
-53.69
-34.31
-11.54
11.74
33.07
50.77
64.09
72.76
76.71
75.88
70.42
60.83
48.17
33.95
19.83
7.3
-2.66
-9.71
-14.1
-16.47
-17.6
-18.16
-18.52
-18.82
-19.03
-19.17
-19.37
-19.95
-21.3
-23.86
-27.97
-33.84
-41.48
-50.39
-59.45
-66.83
-70.27
-67.81
-58.37
-42.27
-21.3
1.9
24.52
44.3
59.8
70.36
75.81
76.13
71.49
62.41
49.89
35.47
20.96
8.02
-2.22
-9.38
-13.73
-15.93
-16.7
-16.61
-16.04
-15.2
-14.3
-13.57
-13.36
-14.08
-16.15
-19.99
-25.97
-34.3
-44.78
-56.52
-67.82
-76.23
-79.15
-74.59
-61.89
-42.11
-17.71
8.11
32.36
52.89
68.6
79.12
84.4
84.47
79.52
70.08
57.22
42.52
27.76
14.54
4.01
-3.37
-7.71
-9.56
-9.69
-8.87
-7.76
-6.79
-6.2
-6.14
-6.75
-8.25
-10.9
-14.97
-20.68
-28.21
-37.61
-48.53
-59.99
-70.13
-76.46
-76.49
-68.61
-52.76
-30.61
-5.02
20.8
44.13
63.21
77.11
85.54
88.54
86.4
79.71
69.48
57.05
43.87
31.29
20.36
11.75
5.76
2.41
1.53
2.74
5.41
8.71
11.6
13.06
12.35
9.27
4.15
-2.21
-9.0
-15.64
-22.04
-28.5
-35.6
-43.83
-53.43
-64.01
-74.43
-82.78
-86.65
-83.83
-73.0
-54.4
-29.91
-2.62
24.05
47.25
65.17
77.11
83.19
83.9
79.9
72.04
61.35
49.08
36.53
24.89
15.03
7.52
2.58
0.17
0.02
1.67
4.44
7.47
9.89
10.96
10.24
7.63
3.4
-2.03
-8.17
-14.64
-21.22
-27.93
-35.09
-43.17
-52.48
-62.77
-72.88
-80.69
-83.66
-79.58
-67.45
-47.93
-23.19
3.64
29.44
51.69
68.82
80.16
85.63
85.54
80.5
71.45
59.64
46.55
33.69
22.37
13.46
7.31
3.79
2.54
3.04
4.81
7.36
10.11
12.35
13.29
12.28
9.1
3.93
-2.58
-9.61
-16.46
-22.76
-28.59
-34.45
-41.03
-48.95
-58.31
-68.31
-77.14
-82.24
-81.1
-72.09
-55.18
-32.06
-5.65
20.82
44.61
63.89
77.76
85.91
88.4
85.56
78.02
66.85
53.43
39.37
26.14
14.89
6.3
0.52
-2.63
-3.55
-2.65
-0.3
3.15
7.13
10.85
13.31
13.64
11.34
6.51
-0.16
-7.71
-15.15
-21.88
-27.69
-32.81
-37.83
-43.54
-50.68
-59.53
-69.53
-79.04
-85.52
-86.22
-79.15
-63.83
-41.57
-15.1
12.28
37.61
58.78
74.69
84.95
89.59
88.82
83.09
73.21
60.43
46.32
32.55
20.53
11.18
4.75
1.02
-0.5
-0.34
1.13
3.67
6.97
10.5
13.48
15.01
14.36
11.24
5.95
-0.73
-7.82
-14.5
-20.31
-25.28
-29.82
-34.54
-40.1
-47.07
-55.64
-65.42
-75.08
-82.5
-85.13
-80.8
-68.52
-48.97
-24.33
2.28
27.75
49.69
66.7
78.27
84.45
85.52
81.92
74.31
63.62
51.16
38.33
26.49
16.66
9.35
4.59
2.08
1.43
2.28
4.32
7.16
10.18
12.55
13.39
12.09
8.53
3.16
-3.21
-9.72
-15.71
-20.98
-25.72
-30.5
-36.06
-42.98
-51.36
-60.51
-68.81
-74.07
-74.06
-67.34
-53.81
-34.75
-12.51
10.23
31.09
48.34
61.03
68.77
71.6
69.83
64.09
55.27
44.48
32.88
21.53
11.27
2.65
-3.98
-8.4
-10.58
-10.66
-9.06
-6.47
-3.76
-1.74
-0.94
-1.57
-3.46
-6.31
-9.84
-13.89
-18.42
-23.52
-29.39
-36.3
-44.34
-53.11
-61.45
-67.46
-68.94
-64.16
-52.62
-35.29
-14.41
7.22
27.09
43.48
55.54
63.09
66.24
65.22
60.39
52.27
41.67
29.66
17.43
6.2
-3.06
-9.71
-13.6
-15.06
-14.75
-13.49
-12.04
-10.9
-10.36
-10.52
-11.39
-13.03
-15.52
-19.02
-23.73
-29.88
-37.58
-46.69
-56.59
-65.98
-73.0
-75.53
-71.85
-61.22
-44.23
-22.74
0.58
23.03
42.42
57.38
67.39
72.47
72.95
69.23
61.9
51.75
39.83
27.44
15.89
6.33
-0.47
-4.31
-5.5
-4.8
-3.15
-1.46
-0.39
-0.29
-1.23
-3.13
-5.86
-9.38
-13.65
-18.7
-24.56
-31.36
-39.25
-48.25
-57.97
-67.28
-74.32
-76.81
-72.83
-61.44
-43.29
-20.4
4.28
27.78
47.69
62.57
71.83
75.54
74.21
68.57
59.61
48.49
36.5
24.9
14.79
6.97
1.83
-0.61
-0.66
1.16
4.14
7.53
10.6
12.69
13.3
12.14
9.19
4.65
-1.0
-7.23
-13.52
-19.61
-25.59
-31.91
-39.22
-47.93
-57.83
-67.67
-75.28
-78.1
-73.99
-62.06
-43.11
-19.35
6.16
30.45
51.24
67.19
77.74
82.83
82.7
77.82
69.0
57.5
44.82
32.55
21.92
13.73
8.18
5.04
3.81
3.98
5.15
7.0
9.29
11.69
13.69
14.59
13.67
10.43
4.82
-2.63
-10.91
-18.91
-25.73
-31.06
-35.17
-38.78
-42.76
-47.89
-54.64
-62.96
-71.96
-79.9
-84.37
-82.87
-73.76
-56.87
-33.78
-7.35
19.1
42.73
61.7
75.23
83.28
86.16
84.32
78.33
68.95
57.23
44.4
31.83
20.77
12.19
6.63
4.09
4.09
5.9
8.76
12.03
15.3
18.25
20.55
21.72
21.31
18.98
14.67
8.68
1.57
-6.02
-13.49
-20.43
-26.6
-32.01
-36.85
-41.49
-46.41
-52.15
-59.12
-67.42
-76.48
-84.89
-90.49
-90.87
-84.13
-69.59
-48.2
-22.38
4.71
30.05
51.42
67.69
78.56
84.21
84.97
81.26
73.71
63.22
51.06
38.64
27.31
18.16
11.88
8.65
8.18
9.84
12.81
16.25
19.5
22.07
23.71
24.26
23.67
21.92
19.02
15.07
10.18
4.54
-1.66
-8.22
-14.94
-21.56
-27.84
-33.6
-38.86
-43.84
-49.06
-55.16
-62.65
-71.45
-80.63
-88.27
-91.92
-89.27
-78.97
-61.2
-37.7
-11.28
15.01
38.62
57.88
72.02
80.87
84.54
83.31
77.7
68.57
57.14
44.91
33.26
23.23
15.37
9.75
6.15
4.23
3.7
4.36
6.04
8.5
11.34
13.98
15.69
15.74
13.67
9.45
3.53
-3.26
-10.05
-16.19
-21.51
-26.3
-31.08
-36.47
-42.94
-50.68
-59.41
-68.19
-75.45
-79.2
-77.51
-69.19
-54.25
-33.95
-10.56
13.29
35.25
53.57
67.21
75.67
78.89
77.17
71.17
61.95
50.8
39.12
28.09
18.53
10.89
5.27
1.51
-0.58
-1.16
-0.36
1.62
4.39
7.32
9.51
10.08
8.41
4.46
-1.29
-7.92
-14.46
-20.23
-25.05
-29.22
-33.4
-38.36
-44.72
-52.69
-61.75
-70.57
-77.08
-79.03
-74.61
-63.14
-45.39
-23.36
0.29
22.94
42.56
57.87
68.33
73.84
74.65
71.21
64.27
54.81
44.03
33.12
23.12
14.73
8.31
3.9
1.36
0.55
1.37
3.66
7.1
11.1
14.75
17.02
17.06
14.44
9.32
2.39
-5.37
-13.02
-19.99
-26.25
-32.31
-38.92
-46.8
-56.12
-66.22
-75.47
-81.58
-82.24
-75.86
-62.18
-42.4
-18.89
5.47
28.03
46.83
60.78
69.56
73.34
72.6
68.03
60.44
50.84
40.25
29.68
19.99
11.82
5.53
1.24
-1.06
-1.48
-0.25
2.23
5.33
8.19
9.91
9.82
7.68
3.81
-1.16
-6.51
-11.73
-16.68
-21.57
-26.81
-32.89
-40.15
-48.44
-56.93
-64.05
-67.69
-65.94
-57.66
-43.06
-23.71
-2.05
19.28
38.13
53.08
63.49
69.17
70.25
67.09
60.22
50.47
38.89
26.66
14.91
4.72
-3.17
-8.37
-10.98
-11.45
-10.5
-8.87
-7.23
-6.01
-5.47
-5.76
-6.95
-9.08
-12.07
-15.84
-20.33
-25.6
-31.87
-39.3
-47.63
-55.88
-62.37
-65.06
-62.2
-53.08
-38.26
-19.52
0.71
20.08
36.81
49.89
58.9
63.75
64.46
61.1
54.01
43.91
32.01
19.81
8.84
0.24
-5.48
-8.48
-9.43
-9.21
-8.58
-8.02
-7.7
-7.61
-7.71
-8.07
-8.99
-10.92
-14.34
-19.63
-26.92
-35.95
-45.99
-55.81
-63.78
-68.08
-67.15
-60.16
-47.35
-30.0
-10.16
9.89
28.2
43.35
54.51
61.18
63.1
60.25
53.0
42.31
29.62
16.68
5.09
-4.1
-10.58
-14.65
-16.96
-18.13
-18.58
-18.47
-17.87
-16.94
-16.04
-15.72
-16.61
-19.35
-24.34
-31.75
-41.21
-51.67
-61.38
-68.1
-69.64
-64.57
-52.69
-35.17
-14.2
7.69
28.27
45.92
59.67
68.98
73.48
72.96
67.48
57.63
44.68
30.35
16.57
4.96
-3.54
-8.84
-11.52
-12.45
-12.46
-11.97
-11.11
-9.89
-8.53
-7.49
-7.54
-9.47
-13.93
-21.27
-31.41
-43.66
-56.56
-67.88
-75.01
-75.57
-68.16
-52.89
-31.48
-6.71
18.31
40.94
59.36
72.74
80.85
83.86
82.04
75.78
65.71
52.88
38.77
25.17
13.78
5.83
1.66
0.73
1.86
3.77
5.42
6.31
6.34
5.55
3.94
1.37
-2.38
-7.47
-14.02
-22.12
-31.8
-42.95
-54.87
-66.09
-74.36
-77.15
-72.41
-59.34
-38.79
-13.12
14.51
40.91
63.56
80.92
92.39
97.99
98.08
93.21
84.18
72.12
58.57
45.31
34.02
25.89
21.33
19.95
20.8
22.76
25.0
27.03
28.67
29.79
30.18
29.39
26.94
22.46
15.89
7.58
-1.77
-11.28
-20.14
-27.88
-34.41
-40.11
-45.72
-52.12
-60.12
-70.1
-81.65
-93.35
-102.8
-107.09
-103.63
-90.94
-69.36
-40.98
-9.18
22.3
50.24
72.48
88.0
96.68
99.0
95.79
88.1
77.22
64.61
51.73
39.9
30.19
23.27
19.47
18.74
20.7
24.63
29.59
34.52
38.48
40.77
41.0
39.09
35.12
29.34
22.1
13.81
4.95
-4.03
-12.77
-20.99
-28.54
-35.31
-41.25
-46.47
-51.23
-55.95
-61.21
-67.54
-75.13
-83.56
-91.54
-96.95
-97.28
-90.43
-75.44
-53.01
-25.48
3.82
31.5
54.87
72.38
83.58
88.71
88.42
83.49
74.87
63.77
51.52
39.46
28.79
20.36
14.7
11.92
11.86
14.08
17.92
22.56
27.15
30.91
33.24
33.78
32.44
29.33
24.67
18.78
11.96
4.46
-3.45
-11.51
-19.47
-27.04
-33.99
-40.18
-45.62
-50.5
-55.18
-60.12
-65.85
-72.67
-80.34
-87.77
-92.99
-93.55
-87.29
-73.19
-51.92
-25.72
2.19
28.58
51.01
68.12
79.53
85.45
86.31
82.63
75.07
64.57
52.37
39.86
28.35
18.94
12.24
8.47
7.43
8.58
11.19
14.49
17.78
20.52
22.41
23.25
22.88
21.08
17.68
12.57
5.9
-1.89
-10.12
-18.09
-25.29
-31.5
-36.8
-41.5
-46.01
-50.79
-56.35
-63.12
-71.13
-79.7
-87.25
-91.5
-90.04
-81.2
-64.72
-41.97
-15.61
11.19
35.62
55.78
70.72
80.26
84.58
83.95
78.79
69.74
57.94
44.85
32.15
21.26
13.1
7.9
5.36
4.89
5.93
8.04
10.94
14.29
17.67
20.52
22.2
22.15
19.98
15.56
9.14
1.31
-7.09
-15.15
-22.2
-28.02
-32.86
-37.4
-42.44
-48.67
-56.45
-65.57
-75.09
-83.32
-88.09
-87.2
-79.16
-63.8
-42.45
-17.6
7.85
31.3
50.98
65.92
75.78
80.53
80.32
75.55
67.04
55.95
43.65
31.45
20.35
10.97
3.6
-1.69
-4.93
-6.17
-5.52
-3.25
0.12
3.82
6.93
8.54
8.07
5.36
0.76
-5.04
-11.24
-17.2
-22.58
-27.47
-32.21
-37.42
-43.76
-51.64
-60.87
-70.34
-78.05
-81.56
-78.73
-68.52
-51.42
-29.39
-5.15
18.55
39.51
56.35
68.39
75.35
77.31
74.61
67.96
58.36
47.01
35.09
23.54
13.12
4.37
-2.32
-6.67
-8.58
-8.2
-5.97
-2.65
0.77
3.33
4.23
3.13
0.14
-4.24
-9.34
-14.59
-19.71
-24.8
-30.24
-36.58
-44.31
-53.51
-63.57
-73.03
-79.68
-81.13
-75.57
-62.45
-42.79
-18.91
6.19
29.7
49.5
64.38
73.9
78.1
77.34
72.22
63.65
52.78
40.83
28.93
17.97
8.61
1.31
-3.64
-6.11
-6.27
-4.57
-1.79
1.16
3.43
4.38
3.72
1.48
-2.1
-6.67
-11.87
-17.4
-23.12
-29.13
-35.78
-43.51
-52.54
-62.34
-71.5
-77.8
-78.83
-72.78
-59.2
-39.22
-15.34
9.4
32.16
50.94
64.69
73.19
76.71
75.71
70.83
62.89
52.85
41.79
30.75
20.58
11.89
5.07
0.34
-2.2
-2.62
-1.23
1.34
4.21
6.41
7.12
5.92
2.79
-1.86
-7.45
-13.42
-19.37
-25.27
-31.36
-38.15
-46.19
-55.57
-65.71
-75.01
-81.19
-81.85
-75.24
-60.96
-40.19
-15.34
10.55
34.63
54.76
69.66
78.91
82.66
81.49
76.22
67.81
57.31
45.79
34.25
23.58
14.46
7.33
2.36
-0.51
-1.45
-0.83
0.89
3.05
4.89
5.65
4.82
2.22
-1.89
-7.01
-12.57
-18.2
-23.82
-29.7
-36.31
-44.09
-53.02
-62.38
-70.57
-75.31
-74.37
-66.31
-51.09
-30.29
-6.6
16.93
37.74
54.17
65.54
71.85
73.45
70.81
64.52
55.29
44.07
31.95
20.08
9.47
0.96
-5.05
-8.52
-9.79
-9.44
-8.12
-6.42
-4.75
-3.42
-2.68
-2.76
-3.87
-6.15
-9.61
-14.2
-19.95
-26.95
-35.28
-44.62
-53.99
-61.64
-65.4
-63.39
-54.68
-39.75
-20.33
1.15
22.16
40.65
55.21
65.07
69.93
69.91
65.42
57.22
46.3
33.84
21.12
9.39
-0.24
-7.01
-10.67
-11.53
-10.34
-8.07
-5.61
-3.58
-2.32
-1.92
-2.41
-3.8
-6.15
-9.51
-13.93
-19.55
-26.56
-35.09
-44.91
-55.17
-64.24
-69.93
-70.07
-63.19
-49.14
-29.2
-5.87
17.86
39.23
56.27
67.96
74.17
75.32
72.12
65.39
55.99
44.92
33.23
22.03
12.31
4.81
-0.05
-2.24
-2.06
-0.07
2.96
6.16
8.66
9.73
8.94
6.24
1.94
-3.42
-9.29
-15.22
-21.05
-26.89
-33.21
-40.59
-49.39
-59.33
-69.13
-76.56
-79.01
-74.39
-61.94
-42.61
-18.83
6.25
29.68
49.25
63.76
72.81
76.52
75.32
69.88
61.12
50.2
38.39
26.94
16.87
8.94
3.59
0.87
0.55
2.1
4.87
8.27
11.78
14.99
17.44
18.63
18.02
15.15
9.88
2.56
-6.04
-14.85
-22.9
-29.61
-34.97
-39.51
-44.09
-49.61
-56.69
-65.37
-74.82
-83.3
-88.47
-87.9
-79.92
-64.22
-42.04
-15.98
10.83
35.44
55.71
70.52
79.62
83.21
81.82
76.11
67.0
55.68
43.52
31.91
22.0
14.5
9.6
7.06
6.4
7.09
8.76
11.1
13.86
16.64
18.9
19.93
19.07
15.92
10.49
3.27
-4.86
-12.94
-20.18
-26.19
-31.06
-35.3
-39.71
-45.06
-51.91
-60.17
-68.88
-76.19
-79.69
-77.18
-67.38
-50.58
-28.6
-4.26
19.46
40.19
56.52
67.92
74.41
76.22
73.64
67.13
57.47
45.85
33.73
22.61
13.73
7.82
5.01
4.88
6.65
9.49
12.65
15.67
18.32
20.5
22.06
22.66
21.86
19.21
14.52
8.01
0.29
-7.75
-15.33
-21.93
-27.45
-32.15
-36.49
-41.06
-46.42
-52.99
-60.91
-69.77
-78.39
-84.84
-86.86
-82.47
-70.71
-52.06
-28.43
-2.65
22.27
43.83
60.5
71.7
77.56
78.51
75.12
68.01
58.02
46.26
34.14
23.08
14.29
8.37
5.28
4.5
5.24
6.87
8.98
11.43
14.15
16.9
19.24
20.49
19.98
17.25
12.26
5.45
-2.39
-10.36
-17.76
-24.26
-29.95
-35.26
-40.7
-46.84
-54.06
-62.49
-71.71
-80.67
-87.54
-90.11
-86.36
-75.27
-57.2
-33.97
-8.34
16.77
38.99
56.83
69.67
77.38
80.18
78.38
72.54
63.5
52.42
40.65
29.51
20.1
13.07
8.66
6.69
6.72
8.17
10.46
13.11
15.8
18.28
20.31
21.51
21.4
19.51
15.56
9.66
2.38
-5.44
-12.98
-19.72
-25.57
-30.8
-35.87
-41.16
-47.1
-54.0
-62.04
-70.89
-79.56
-86.19
-88.45
-84.28
-72.64
-54.0
-30.34
-4.55
20.36
42.04
59.06
70.87
77.51
79.32
76.75
70.39
61.07
49.97
38.46
27.89
19.27
13.09
9.23
7.27
6.77
7.5
9.48
12.7
16.83
21.06
24.24
25.19
23.14
17.97
10.32
1.3
-7.86
-16.19
-23.22
-28.97
-33.94
-38.82
-44.34
-51.06
-59.15
-68.1
-76.62
-82.73
-84.23
-79.35
-67.4
-49.14
-26.58
-2.41
20.7
40.73
56.39
67.13
72.8
73.51
69.7
62.18
52.16
41.11
30.39
21.04
13.62
8.23
4.71
2.81
2.28
2.93
4.45
6.47
8.47
9.91
10.29
9.23
6.65
2.67
-2.33
-7.85
-13.47
-18.99
-24.53
-30.52
-37.51
-45.83
-55.2
-64.54
-72.0
-75.44
-73.04
-63.92
-48.51
-28.44
-6.14
15.84
35.33
50.88
61.8
68.02
69.78
67.57
61.91
53.48
43.05
31.58
20.1
9.63
1.05
-5.15
-8.81
-10.22
-9.92
-8.57
-6.88
-5.45
-4.73
-5.04
-6.51
-9.13
-12.76
-17.18
-22.2
-27.71
-33.9
-41.11
-49.68
-59.45
-69.45
-77.71
-81.75
-79.31
-69.24
-52.0
-29.56
-4.84
19.23
40.33
56.98
68.58
74.99
76.43
73.32
66.28
56.2
44.15
31.34
18.98
8.24
-0.0
-5.23
-7.44
-7.14
-5.14
-2.37
0.36
2.41
3.34
2.89
1.01
-2.22
-6.55
-11.71
-17.56
-24.25
-32.13
-41.5
-52.21
-63.25
-72.68
-78.01
-76.89
-67.95
-51.41
-29.06
-3.83
21.02
42.8
59.8
71.37
77.63
79.07
76.24
69.76
60.38
49.1
37.07
25.57
15.69
8.21
3.4
1.13
0.9
2.0
3.67
5.19
6.03
5.85
4.5
1.98
-1.63
-6.21
-11.63
-17.83
-24.88
-32.96
-42.23
-52.43
-62.61
-70.97
-75.16
-72.97
-63.09
-45.76
-22.77
2.98
28.31
50.55
67.98
79.89
86.28
87.59
84.45
77.57
67.76
55.96
43.28
30.9
19.98
11.47
5.95
3.46
3.52
5.23
7.53
9.48
10.45
10.16
8.6
5.9
2.2
-2.36
-7.66
-13.53
-19.89
-26.84
-34.62
-43.39
-52.76
-61.49
-67.5
-68.43
-62.48
-49.22
-29.87
-6.95
16.48
37.66
54.7
66.68
73.44
75.28
72.68
66.25
56.74
45.11
32.49
20.11
9.15
0.5
-5.36
-8.45
-9.27
-8.59
-7.26
-5.93
-4.99
-4.62
-4.82
-5.64
-7.13
-9.38
-12.49
-16.49
-21.53
-27.72
-35.21
-43.81
-52.7
-60.29
-64.44
-63.09
-55.01
-40.42
-20.99
0.63
21.64
39.78
53.76
63.1
67.86
68.26
64.47
56.87
46.1
33.28
19.85
7.41
-2.69
-9.67
-13.44
-14.54
-13.87
-12.38
-10.76
-9.38
-8.34
-7.68
-7.51
-8.15
-10.0
-13.47
-18.87
-26.32
-35.65
-46.3
-57.13
-66.38
-71.93
-71.71
-64.41
-49.97
-29.79
-6.41
17.15
38.14
54.66
65.83
71.56
72.31
68.73
61.57
51.64
39.94
27.64
16.0
6.2
-0.91
-4.99
-6.24
-5.34
-3.24
-0.93
0.83
1.59
1.24
-0.09
-2.26
-5.18
-8.92
-13.69
-19.68
-27.09
-35.98
-46.14
-56.92
-67.01
-74.53
-77.32
-73.55
-62.37
-44.37
-21.46
3.59
27.84
48.85
64.92
75.19
79.44
78.01
71.72
61.82
49.87
37.48
26.03
16.49
9.34
4.63
2.07
1.22
1.59
2.74
4.25
5.77
6.84
6.94
5.47
2.0
-3.61
-11.05
-19.62
-28.44
-36.73
-44.07
-50.54
-56.69
-63.37
-71.45
-81.35
-92.58
-103.54
-111.7
-114.31
-109.38
-96.46
-76.9
-53.42
-29.22
-7.03
11.41
25.42
35.08
40.8
43.12
42.58
39.92
36.08
32.17
29.35
28.61
30.51
35.05
41.65
49.25
56.7
63.03
67.71
70.59
71.81
71.45
69.46
65.62
59.72
51.79
42.19
31.62
20.93
10.91
2.1
-5.36
-11.69
-17.42
-23.23
-29.78
-37.6
-46.85
-57.09
-67.1
-74.9
-78.15
-74.72
-63.54
-45.03
-21.17
5.07
30.47
52.39
69.17
80.15
85.36
85.28
80.58
72.18
61.22
49.0
36.89
26.08
17.5
11.71
8.92
8.95
11.35
15.46
20.44
25.45
29.73
32.64
33.71
32.72
29.73
25.13
19.48
13.33
7.05
0.74
-5.73
-12.5
-19.57
-26.68
-33.45
-39.53
-44.75
-49.29
-53.52
-58.03
-63.41
-70.03
-77.71
-85.42
-91.23
-92.74
-87.73
-75.07
-55.19
-30.14
-2.91
23.33
46.04
63.63
75.46
81.54
82.22
78.09
70.01
59.08
46.67
34.23
23.13
14.38
8.49
5.42
4.73
5.77
7.98
10.91
14.29
17.83
21.08
23.35
23.91
22.21
18.1
11.95
4.54
-3.21
-10.46
-16.76
-22.02
-26.57
-30.98
-35.91
-42.02
-49.68
-58.72
-68.19
-76.33
-80.88
-79.69
-71.52
-56.52
-36.28
-13.36
9.59
30.37
47.63
60.71
69.3
73.21
72.39
67.09
58.1
46.77
34.74
23.55
14.26
7.31
2.61
-0.17
-1.4
-1.26
0.15
2.71
6.06
9.58
12.44
13.78
12.98
9.82
4.6
-2.04
-9.25
-16.24
-22.46
-27.81
-32.6
-37.48
-43.28
-50.69
-59.94
-70.43
-80.59
-88.03
-90.1
-84.75
-71.26
-50.58
-25.09
2.04
27.69
49.52
66.17
77.18
82.71
83.2
79.27
71.74
61.55
49.87
37.89
26.79
17.51
10.74
6.76
5.44
6.31
8.64
11.66
14.73
17.4
19.42
20.59
20.66
19.28
16.15
11.16
4.52
-3.17
-11.16
-18.74
-25.43
-31.14
-36.08
-40.73
-45.72
-51.67
-59.03
-67.82
-77.32
-85.96
-91.52
-91.6
-84.43
-69.5
-47.93
-22.17
4.67
29.64
50.58
66.35
76.65
81.7
81.92
77.79
69.94
59.3
47.13
34.88
23.95
15.42
9.87
7.28
7.17
8.8
11.38
14.27
17.01
19.39
21.25
22.43
22.61
21.36
18.27
13.1
6.03
-2.34
-11.09
-19.28
-26.3
-32.01
-36.74
-41.14
-45.94
-51.76
-58.98
-67.52
-76.62
-84.74
-89.69
-89.12
-81.31
-65.83
-43.81
-17.72
9.37
34.62
55.97
72.31
83.26
88.85
89.34
85.16
77.04
66.07
53.62
41.1
29.74
20.35
13.31
8.57
5.86
4.85
5.25
6.84
9.4
12.56
15.69
17.99
18.58
16.83
12.65
6.49
-0.73
-8.0
-14.52
-20.0
-24.63
-28.98
-33.72
-39.45
-46.59
-55.17
-64.68
-73.89
-80.92
-83.55
-79.91
-69.13
-51.72
-29.55
-5.26
18.36
39.03
55.32
66.52
72.56
73.7
70.5
63.7
54.28
43.37
32.07
21.32
11.81
3.97
-2.02
-6.01
-7.97
-7.98
-6.27
-3.37
-0.04
2.86
4.6
4.67
2.96
-0.37
-4.94
-10.22
-15.75
-21.22
-26.71
-32.68
-39.78
-48.36
-58.07
-67.51
-74.38
-76.22
-71.18
-58.79
-40.16
-17.65
5.89
27.83
46.32
60.32
69.47
73.78
73.48
68.98
60.97
50.38
38.37
26.15
14.78
5.06
-2.5
-7.65
-10.34
-10.8
-9.49
-7.13
-4.62
-2.85
-2.44
-3.63
-6.33
-10.18
-14.77
-19.75
-24.91
-30.27
-36.08
-42.81
-50.89
-60.29
-70.09
-78.41
-82.72
-80.71
-71.15
-54.36
-32.14
-7.23
17.54
39.81
57.95
71.01
78.58
80.67
77.8
70.87
61.07
49.7
37.93
26.67
16.56
8.03
1.39
-3.14
-5.4
-5.41
-3.49
-0.31
3.08
5.61
6.37
4.97
1.59
-3.15
-8.54
-14.02
-19.41
-24.94
-31.07
-38.33
-47.04
-56.97
-67.15
-75.77
-80.54
-79.27
-70.58
-54.49
-32.51
-7.22
18.42
41.75
60.86
74.67
82.77
85.22
82.46
75.28
64.83
52.54
39.86
28.09
18.17
10.57
5.34
2.31
1.16
1.64
3.5
6.47
10.04
13.46
15.79
16.14
14.01
9.48
3.2
-3.84
-10.71
-16.89
-22.4
-27.76
-33.71
-40.97
-49.88
-60.11
-70.48
-78.99
-83.18
-80.81
-70.65
-52.98
-29.66
-3.57
22.2
45.08
63.39
76.37
83.81
85.88
83.01
75.9
65.63
53.58
41.2
29.79
20.28
13.18
8.56
6.23
5.84
7.01
9.38
12.55
16.06
19.31
21.56
22.06
20.25
16.01
9.74
2.26
-5.41
-12.43
-18.38
-23.44
-28.17
-33.42
-39.92
-48.12
-57.83
-67.97
-76.7
-81.64
-80.6
-72.26
-56.72
-35.61
-11.57
12.51
34.18
51.8
64.58
72.31
75.1
73.28
67.48
58.56
47.64
35.87
24.35
14.0
5.55
-0.48
-3.83
-4.48
-2.72
0.84
5.4
9.98
13.66
15.59
15.21
12.44
7.62
1.52
-5.01
-11.21
-16.74
-21.74
-26.73
-32.45
-39.52
-48.12
-57.6
-66.39
-72.18
-72.58
-65.86
-51.71
-31.46
-7.72
16.38
38.1
55.54
67.77
74.53
75.99
72.63
65.19
54.8
42.81
30.59
19.21
9.37
1.43
-4.44
-8.18
-9.76
-9.32
-7.15
-3.87
-0.26
2.81
4.52
4.33
2.04
-2.07
-7.38
-13.16
-18.8
-24.04
-29.04
-34.36
-40.63
-48.29
-57.21
-66.45
-74.25
-78.35
-76.6
-67.66
-51.57
-29.84
-5.12
19.57
41.58
59.11
71.29
77.94
79.32
75.95
68.61
58.32
46.34
34.01
22.55
12.86
5.45
0.45
-2.25
-2.94
-1.93
0.41
3.59
6.97
9.68
10.82
9.71
6.13
0.46
-6.42
-13.45
-19.8
-25.14
-29.66
-33.94
-38.78
-44.83
-52.48
-61.47
-70.78
-78.57
-82.47
-80.27
-70.64
-53.74
-31.33
-6.29
18.19
39.48
55.97
67.13
73.07
74.23
71.09
64.19
54.37
42.8
30.92
20.17
11.65
5.87
2.77
1.94
2.89
5.21
8.62
12.78
17.16
20.96
23.24
23.19
20.42
15.12
8.01
0.1
-7.66
-14.63
-20.57
-25.71
-30.62
-36.01
-42.58
-50.6
-59.67
-68.47
-74.94
-76.75
-72.08
-60.3
-42.26
-20.07
3.52
25.85
44.88
59.36
68.72
72.9
72.15
67.11
58.69
48.08
36.55
25.32
15.31
7.17
1.18
-2.57
-4.23
-4.03
-2.29
0.56
4.0
7.38
9.99
11.14
10.34
7.47
2.79
-3.04
-9.27
-15.26
-20.76
-25.99
-31.55
-38.17
-46.29
-55.68
-65.17
-72.79
-76.21
-73.46
-63.71
-47.56
-26.98
-4.67
16.66
34.97
49.1
58.65
63.7
64.52
61.47
55.05
45.99
35.21
23.83
13.02
3.82
-2.97
-7.02
-8.47
-7.9
-6.15
-4.09
-2.39
-1.5
-1.63
-2.86
-5.15
-8.48
-12.68
-17.63
-23.23
-29.55
-36.83
-45.33
-54.94
-64.84
-73.36
-78.18
-77.09
-68.66
-52.9
-31.42
-7.0
17.2
38.42
54.82
65.68
71.04
71.44
67.57
60.12
49.86
37.72
24.83
12.5
2.02
-5.58
-9.79
-10.79
-9.33
-6.51
-3.45
-1.01
0.36
0.58
-0.23
-1.93
-4.45
-7.8
-11.98
-17.06
-23.18
-30.6
-39.5
-49.68
-60.22
-69.34
-74.66
-73.9
-65.62
-49.88
-28.26
-3.55
21.1
42.91
59.98
71.4
77.1
77.59
73.66
66.25
56.38
45.08
33.41
22.39
12.9
5.63
0.98
-0.97
-0.48
1.93
5.48
9.29
12.45
14.12
13.72
11.05
6.29
0.01
-7.01
-14.01
-20.53
-26.55
-32.56
-39.31
-47.37
-56.63
-65.9
-73.03
-75.42
-70.91
-58.61
-39.3
-15.25
10.45
34.73
55.24
70.61
80.37
84.62
83.8
78.5
69.6
58.21
45.71
33.53
22.84
