0
3.14
2.46
1.59
0.66
-0.41
-1.78
-3.65
-6.06
-8.8
-11.5
-13.77
-15.4
-16.42
-17.14
-17.91
-19.05
-20.59
-22.24
-23.37
-23.26
-21.28
-17.14
-11.06
-3.68
4.13
11.45
17.67
22.45
25.74
27.55
27.94
26.89
24.53
21.14
17.24
13.48
10.48
8.63
7.93
8.11
8.77
9.58
10.4
11.22
12.09
12.91
13.51
13.67
13.23
12.16
10.49
8.3
5.64
2.62
-0.58
-3.66
-6.35
-8.53
-10.33
-12.08
-14.22
-17.01
-20.46
-24.27
-27.94
-30.86
-32.45
-32.18
-29.69
-24.82
-17.76
-9.06
0.35
9.43
17.16
22.86
26.18
27.12
25.94
23.04
18.95
14.27
9.7
5.88
3.31
2.21
2.45
3.64
5.31
7.03
8.5
9.55
10.11
10.18
9.74
8.8
7.44
5.7
3.72
1.61
-0.52
-2.57
-4.53
-6.46
-8.48
-10.72
-13.28
-16.19
-19.33
-22.42
-25.04
-26.64
-26.65
-24.64
-20.43
-14.24
-6.66
1.41
9.07
15.52
20.23
22.95
23.72
22.76
20.43
17.2
13.53
9.88
6.59
3.9
1.94
0.75
0.34
0.65
1.56
2.8
4.05
4.93
5.12
4.47
2.98
0.85
-1.68
-4.32
-6.87
-9.19
-11.25
-13.18
-15.22
-17.68
-20.8
-24.51
-28.4
-31.62
-33.22
-32.37
-28.73
-22.45
-14.19
-4.81
4.79
13.77
21.45
27.2
30.61
31.51
30.11
26.99
22.97
18.86
15.28
12.57
10.79
9.87
9.69
10.13
11.03
12.19
13.29
13.98
14.02
13.23
11.67
9.54
7.1
4.56
2.08
-0.31
-2.69
-5.19
-7.97
-11.17
-14.83
-18.82
-22.75
-25.97
-27.68
-27.11
-23.78
-17.7
-9.34
0.36
10.33
19.51
27.08
32.55
35.79
36.93
36.29
34.29
31.38
27.98
24.52
21.4
18.94
17.37
16.7
16.79
17.38
18.16
18.86
19.25
19.13
18.28
16.52
13.74
10.03
5.66
0.99
-3.62
-7.95
-11.93
-15.73
-19.56
-23.71
-28.35
-33.45
-38.67
-43.3
-46.38
-46.95
-44.35
-38.46
-29.79
-19.4
-8.57
1.45
9.76
15.83
19.55
21.05
20.59
18.5
15.23
11.3
7.38
4.16
2.24
1.92
3.14
5.46
8.24
10.87
12.99
14.53
15.68
16.72
17.82
18.97
19.92
20.38
20.16
19.33
18.15
16.99
16.17
15.75
15.61
15.41
14.8
13.49
11.23
7.93
3.7
-1.12
-5.76
-9.21
-10.38
-8.55
-3.7
3.49
11.71
19.58
25.96
30.25
32.29
32.2
30.09
26.05
20.26
13.16
5.5
-1.77
-7.82
-12.16
-14.78
-16.06
-16.51
-16.58
-16.53
-16.42
-16.23
-15.92
-15.56
-15.23
-15.09
-15.28
-15.87
-16.86
-18.08
-19.2
-19.82
-19.54
-18.28
-16.32
-14.33
-13.19
-13.76
-16.55
-21.62
-28.58
-36.7
-45.01
-52.44
-57.99
-60.82
-60.5
-57.07
-51.12
-43.63
-35.72
-28.34
-22.15
-17.41
-14.19
-12.43
-12.03
-12.86
-14.63
-16.92
-19.13
-20.66
-21.07
-20.24
-18.3
-15.66
-12.75
-9.93
-7.42
-5.34
-3.79
-2.82
-2.49
-2.73
-3.4
-4.26
-5.12
-5.85
-6.46
-7.02
-7.55
-8.05
-8.4
-8.55
-8.53
-8.54
-8.88
-9.83
-11.47
-13.61
-15.72
-17.06
-16.91
-14.73
-10.39
-4.14
3.45
11.63
19.62
26.69
32.28
36.01
37.72
37.44
35.43
32.14
28.1
23.94
20.23
17.49
15.99
15.76
16.57
17.92
19.36
20.51
21.23
21.57
21.67
21.68
21.69
21.71
21.68
21.47
20.9
19.84
18.25
16.25
14.12
12.11
10.39
8.81
6.99
4.39
0.65
-4.25
-9.91
-15.58
-20.36
-23.42
-24.2
-22.39
-18.07
-11.64
-3.79
4.54
12.37
18.8
23.31
25.74
26.3
25.4
23.46
20.82
17.75
14.54
11.5
8.99
7.33
6.62
6.71
7.29
7.98
8.53
8.87
9.09
9.26
9.36
9.15
8.3
6.57
3.97
0.78
-2.52
-5.48
-7.92
-9.96
-11.87
-13.94
-16.27
-18.85
-21.61
-24.57
-27.85
-31.49
-35.2
-38.32
-39.87
-38.91
-34.87
-27.86
-18.63
-8.35
1.75
10.69
17.88
23.1
26.41
27.95
27.94
26.62
24.28
21.28
18.07
15.13
12.94
11.79
11.79
12.78
14.37
16.05
17.42
18.18
18.28
17.76
16.74
15.23
13.24
10.68
7.54
3.84
-0.33
-4.83
-9.5
-14.18
-18.67
-22.86
-26.69
-30.28
-33.86
-37.7
-41.98
-46.71
-51.59
-56.04
-59.26
-60.37
-58.61
-53.56
-45.24
-34.26
-21.7
-8.89
2.88
12.66
19.97
24.74
27.21
27.74
26.71
24.49
21.49
18.17
15.0
12.47
10.93
10.49
11.07
12.38
14.05
15.73
17.19
18.31
19.06
19.34
19.02
17.95
16.08
13.53
10.54
7.36
4.14
0.85
-2.6
-6.24
-9.92
-13.41
-16.48
-19.11
-21.51
-24.02
-26.99
-30.57
-34.65
-38.85
-42.53
-44.89
-45.09
-42.47
-36.76
-28.2
-17.59
-6.04
5.26
15.33
23.45
29.28
32.71
33.85
32.97
30.52
27.09
23.33
19.84
17.11
15.4
14.7
14.89
15.69
16.83
18.03
19.03
19.6
19.53
18.71
17.12
14.89
12.29
9.56
6.89
4.31
1.67
-1.23
-4.51
-8.17
-12.05
-15.87
-19.34
-22.26
-24.6
-26.48
-28.15
-29.92
-32.07
-34.76
-37.87
-40.98
-43.24
-43.59
-41.06
-35.12
-26.0
-14.68
-2.72
8.34
17.33
23.73
27.6
29.26
29.1
27.43
24.47
20.56
16.13
11.74
7.94
5.14
3.54
3.09
3.56
4.56
5.69
6.59
7.11
7.29
7.33
7.5
7.92
8.51
8.98
9.04
8.45
7.17
5.3
3.0
0.44
-2.26
-5.0
-7.69
-10.28
-12.78
-15.29
-18.0
-21.15
-24.84
-28.94
-32.91
-35.92
-36.99
-35.36
-30.74
-23.43
-14.27
-4.32
5.37
13.97
20.9
25.8
28.5
28.98
27.49
24.51
20.72
16.76
13.15
10.21
8.11
6.88
6.48
6.72
7.35
8.02
8.46
8.53
8.25
7.74
7.07
6.22
5.1
3.6
1.71
-0.49
-2.81
-5.06
-7.08
-8.82
-10.29
-11.63
-13.02
-14.65
-16.74
-19.39
-22.61
-26.17
-29.52
-31.87
-32.32
-30.1
-24.91
-17.02
-7.27
3.15
13.0
21.26
27.2
30.51
31.2
29.62
26.38
22.26
18.03
14.23
11.05
8.31
5.71
2.92
-0.17
-3.45
-6.56
-8.93
-9.91
-8.88
-5.52
0.04
7.12
14.62
21.33
26.31
29.04
29.55
28.2
25.45
21.6
16.8
11.09
4.5
-2.78
-10.41
-17.81
-24.27
-29.0
-31.29
-30.6
-26.77
-20.05
-11.09
-0.93
9.26
18.35
25.44
30.02
31.99
31.59
29.3
25.75
21.52
17.22
13.32
10.15
7.88
6.46
5.72
5.4
5.27
5.17
5.02
4.83
4.62
4.33
3.85
2.98
1.56
-0.47
-3.03
-5.94
-8.97
-12.01
-15.08
-18.32
-21.96
-26.2
-31.04
-36.36
-41.73
-46.45
-49.58
-50.09
-47.22
-40.73
-31.14
-19.52
-7.27
4.37
14.54
22.8
29.0
33.05
34.89
34.52
32.18
28.31
23.59
18.74
14.43
11.12
9.07
8.33
8.69
9.79
11.18
12.49
13.48
14.06
14.18
13.74
12.55
10.42
7.29
3.4
-0.82
-4.85
-8.4
-11.47
-14.38
-17.58
-21.52
-26.37
-32.05
-38.23
-44.25
-49.23
-52.06
-51.66
-47.26
-38.77
-26.89
-13.07
0.89
13.4
23.41
30.6
35.11
37.31
37.45
35.75
32.42
27.95
23.09
18.72
15.59
14.0
13.83
14.56
15.6
16.48
17.04
17.35
17.57
17.81
18.0
17.86
17.03
15.22
12.36
8.63
4.39
0.09
-3.91
-7.43
-10.5
-13.28
-16.04
-19.11
-22.81
-27.33
-32.61
-38.2
-43.22
-46.51
-46.85
-43.39
-35.92
-25.0
-11.89
1.78
14.4
24.75
32.19
36.67
38.53
38.25
36.31
33.12
29.11
24.8
20.78
17.53
15.38
14.34
14.19
14.61
15.31
16.14
17.02
17.89
18.59
18.9
18.58
17.48
15.59
13.02
9.91
6.44
2.74
-1.02
-4.67
-7.98
-10.81
-13.14
-15.17
-17.22
-19.64
-22.67
-26.36
-30.59
-35.02
-39.14
-42.16
-43.1
-41.01
-35.33
-26.2
-14.6
-2.12
9.57
19.15
26.0
30.16
32.03
32.07
30.58
27.78
23.87
19.28
14.62
10.54
7.6
6.08
5.97
6.98
8.73
10.8
12.78
14.37
15.33
15.54
15.0
13.8
12.11
10.11
7.92
5.55
3.03
0.38
-2.3
-4.91
-7.39
-9.76
-12.16
-14.73
-17.6
-20.77
-24.24
-27.97
-31.85
-35.52
-38.34
-39.33
-37.54
-32.39
-24.02
-13.39
-1.96
8.76
17.63
24.14
28.28
30.29
30.46
29.02
26.21
22.37
18.04
13.92
10.63
8.65
8.11
8.84
10.41
12.29
13.98
15.2
15.83
15.94
15.64
14.97
13.86
12.19
9.82
6.71
3.02
-0.95
-4.85
-8.38
-11.38
-13.94
-16.26
-18.64
-21.35
-24.55
-28.23
-32.13
-35.75
-38.34
-39.04
-37.11
-32.2
-24.53
-14.93
-4.6
5.21
13.54
19.86
24.06
26.24
26.59
25.3
22.61
18.91
14.81
11.01
8.18
6.75
6.78
8.0
9.87
11.79
13.27
14.05
14.13
13.68
12.91
11.92
10.68
9.02
6.84
4.15
1.15
-1.84
-4.54
-6.84
-8.82
-10.79
-13.12
-16.08
-19.75
-23.88
-27.92
-31.08
-32.53
-31.61
-28.06
-22.05
-14.2
-5.4
3.35
11.17
17.38
21.54
23.5
23.37
21.48
18.35
14.57
10.71
7.22
4.37
2.32
1.08
0.63
0.85
1.61
2.73
3.99
5.14
5.9
6.04
5.35
3.79
1.5
-1.27
-4.18
-7.0
-9.67
-12.3
-15.14
-18.43
-22.3
-26.64
-31.09
-35.0
-37.57
-37.98
-35.62
-30.28
-22.3
-12.51
-2.03
7.94
16.45
22.92
27.15
29.2
29.27
27.61
24.51
20.37
15.74
11.27
7.64
5.39
4.7
5.34
6.82
8.52
9.92
10.71
10.78
10.15
8.86
6.99
4.63
2.0
-0.68
-3.22
-5.54
-7.78
-10.25
-13.29
-17.12
-21.72
-26.75
-31.53
-35.17
-36.7
-35.36
-30.79
-23.24
-13.52
-2.9
7.31
15.98
22.48
26.63
28.63
28.76
27.36
24.7
21.18
17.28
13.59
10.69
8.85
8.06
8.05
8.44
8.98
9.53
10.05
10.45
10.57
10.18
9.09
7.25
4.78
1.91
-1.14
-4.21
-7.25
-10.3
-13.48
-16.89
-20.59
-24.59
-28.7
-32.53
-35.4
-36.51
-35.07
-30.7
-23.57
-14.48
-4.69
4.51
12.09
17.52
20.7
21.85
21.24
19.15
15.92
12.0
7.99
4.58
2.31
1.41
1.74
2.88
4.31
5.66
6.7
7.41
7.86
8.08
8.01
7.53
6.5
4.85
2.65
0.06
-2.68
-5.34
-7.81
-10.14
-12.55
-15.3
-18.65
-22.61
-26.96
-31.12
-34.31
-35.64
-34.38
-30.19
-23.29
-14.43
-4.74
4.61
12.65
18.82
22.95
25.15
25.68
24.8
22.81
20.06
16.98
14.03
11.63
10.04
9.32
9.3
9.71
10.22
10.66
10.98
11.24
11.51
11.74
11.74
11.22
9.96
7.91
5.24
2.34
-0.38
-2.64
-4.4
-5.89
-7.46
-9.46
-12.1
-15.43
-19.27
-23.29
-26.94
-29.51
-30.22
-28.44
-23.87
-16.79
-8.01
1.3
9.96
17.13
22.39
25.7
27.26
27.3
26.0
23.64
20.55
17.25
14.26
12.01
10.71
10.28
10.47
10.95
11.45
11.81
11.98
11.99
11.84
11.55
11.06
10.29
9.09
7.34
5.0
2.2
-0.8
-3.65
-6.06
-7.91
-9.37
-10.77
-12.52
-14.93
-18.1
-21.83
-25.69
-29.08
-31.32
-31.74
-29.85
-25.46
-18.76
-10.38
-1.3
7.39
14.75
20.17
23.49
24.91
24.81
23.54
21.35
18.44
15.05
11.55
8.44
6.18
5.03
5.0
5.79
6.97
8.09
8.85
9.11
8.84
8.14
7.09
5.82
4.4
2.9
1.33
-0.36
-2.22
-4.26
-6.41
-8.58
-10.64
-12.55
-14.36
-16.2
-18.22
-20.55
-23.22
-26.16
-29.25
-32.17
-34.44
-35.45
-34.55
-31.33
-25.74
-18.26
-9.71
-1.11
6.61
12.83
17.26
19.92
20.98
20.68
19.23
16.9
13.97
10.83
7.91
5.64
4.31
3.99
4.57
5.78
7.31
8.89
10.33
11.47
12.17
12.33
11.84
10.67
8.86
6.55
3.92
1.23
-1.36
-3.74
-5.88
-7.86
-9.77
-11.66
-13.54
-15.36
-17.09
-18.75
-20.45
-22.34
-24.56
-27.04
-29.47
-31.24
-31.63
-30.0
-26.04
-19.91
-12.18
-3.78
4.32
11.27
16.5
19.75
21.11
20.89
19.51
17.46
15.12
12.8
10.7
8.94
7.66
6.95
6.89
7.44
8.47
9.78
11.1
12.2
12.85
12.92
12.34
11.16
9.49
7.48
5.33
3.13
0.95
-1.27
-3.58
-6.01
-8.52
-11.0
-13.36
-15.53
-17.58
-19.56
-21.58
-23.72
-26.02
-28.38
-30.63
-32.4
-33.17
-32.34
-29.41
-24.15
-16.82
-8.08
1.06
9.56
16.55
21.53
24.39
25.3
24.58
22.58
19.67
16.26
12.84
9.91
7.86
6.88
6.87
7.55
8.6
9.79
11.04
12.29
13.43
14.23
14.44
13.9
12.74
11.22
9.66
8.19
6.68
4.87
2.53
-0.34
-3.46
-6.43
-8.96
-11.03
-12.86
-14.79
-17.04
-19.64
-22.47
-25.37
-28.21
-30.81
-32.89
-33.87
-33.05
-29.82
-23.98
-15.96
-6.77
2.27
9.99
15.65
19.11
20.64
20.64
19.51
17.45
14.69
11.53
8.43
5.93
4.45
4.12
4.74
5.89
7.1
8.04
8.58
8.75
8.67
8.45
8.12
7.72
7.2
6.49
5.49
4.04
2.0
-0.67
-3.86
-7.34
-10.76
-13.84
-16.43
-18.56
-20.37
-22.12
-24.09
-26.51
-29.51
-32.94
-36.31
-38.82
-39.49
-37.51
-32.61
-25.14
-16.09
-6.7
1.87
8.8
13.71
16.58
17.59
17.06
15.37
12.92
10.06
7.08
4.21
1.67
-0.31
-1.45
-1.58
-0.7
0.96
2.97
4.89
6.41
7.46
8.13
8.56
8.79
8.73
8.21
7.09
5.3
2.94
0.16
-2.81
-5.74
-8.46
-10.86
-12.93
-14.73
-16.44
-18.27
-20.43
-23.09
-26.29
-29.85
-33.32
-36.0
-37.06
-35.78
-31.78
-25.22
-16.76
-7.38
1.87
10.16
16.94
21.97
25.22
26.76
26.69
25.2
22.58
19.23
15.71
12.58
10.31
9.15
9.05
9.64
10.52
11.32
11.91
12.38
12.89
13.48
13.96
13.95
13.08
11.21
8.5
5.4
2.4
-0.2
-2.41
-4.49
-6.73
-9.29
-12.13
-15.08
-17.98
-20.84
-23.74
-26.66
-29.27
-30.97
-31.0
-28.78
-24.2
-17.65
-9.94
-1.97
5.5
11.98
17.17
20.85
22.84
23.08
21.71
19.2
16.2
13.45
11.44
10.34
10.0
10.07
10.24
10.39
10.54
10.84
11.4
12.2
13.13
14.0
14.56
14.62
14.05
12.83
11.04
8.89
6.63
4.49
2.49
0.5
-1.75
-4.5
-7.89
-11.83
-15.99
-19.84
-22.73
-23.95
-22.91
-19.28
-13.2
-5.32
3.35
11.67
18.71
23.94
27.25
28.78
28.76
27.38
24.83
21.4
17.56
13.88
10.9
8.91
7.91
7.64
7.78
8.05
8.34
8.65
8.97
9.24
9.29
8.9
7.9
6.27
4.1
1.63
-0.88
-3.27
-5.5
-7.7
-10.1
-12.97
-16.45
-20.49
-24.77
-28.71
-31.53
-32.46
-30.95
-26.8
-20.28
-12.08
-3.0
6.08
14.47
21.58
26.96
30.23
31.21
30.04
27.2
23.47
19.68
16.47
14.21
12.92
12.46
12.62
13.2
14.03
14.88
15.53
15.79
15.6
14.98
14.02
12.73
11.06
8.84
5.96
2.47
-1.4
-5.26
-8.74
-11.62
-13.91
-15.85
-17.81
-20.13
-22.99
-26.35
-29.92
-33.14
-35.29
-35.62
-33.54
-28.81
-21.63
-12.71
-3.06
6.27
14.4
20.79
25.17
27.52
27.94
26.66
24.07
20.74
17.34
14.53
12.7
11.99
12.27
13.24
14.64
16.2
17.72
18.94
19.65
19.64
18.88
17.49
15.65
13.56
11.27
8.72
5.86
2.7
-0.57
-3.66
-6.35
-8.62
-10.68
-12.86
-15.42
-18.47
-21.89
-25.45
-28.85
-31.73
-33.67
-34.09
-32.42
-28.3
-21.78
-13.53
-4.59
3.85
10.86
15.97
19.17
20.69
20.81
19.74
17.63
14.75
11.51
8.44
6.09
4.81
4.68
5.56
7.13
9.03
10.95
12.59
13.75
14.3
14.2
13.53
12.44
11.09
9.59
7.93
6.01
3.77
1.21
-1.52
-4.2
-6.6
-8.61
-10.23
-11.6
-12.89
-14.28
-15.93
-17.94
-20.35
-23.05
-25.73
-27.82
-28.63
-27.5
-24.11
-18.59
-11.53
-3.81
3.66
10.16
15.2
18.55
20.13
19.96
18.19
15.14
11.38
7.61
4.54
2.64
2.06
2.54
3.57
4.62
5.33
5.63
5.66
5.64
5.68
5.73
5.63
5.24
4.51
3.5
2.35
1.12
-0.18
-1.62
-3.31
-5.26
-7.41
-9.6
-11.65
-13.4
-14.83
-16.07
-17.32
-18.87
-20.94
-23.59
-26.65
-29.69
-32.11
-33.17
-32.27
-29.06
-23.63
-16.48
-8.45
-0.51
6.54
12.17
16.17
18.56
19.48
19.11
17.67
15.46
12.84
10.25
8.09
6.62
5.95
5.93
6.31
6.76
7.05
7.09
6.94
6.69
6.42
6.04
5.38
4.28
2.66
0.64
-1.55
-3.73
-5.77
-7.71
-9.56
-11.25
-12.64
-13.57
-14.08
-14.45
-15.11
-16.43
-18.58
-21.38
-24.36
-26.9
-28.41
-28.41
-26.59
-22.86
-17.35
-10.44
-2.76
4.98
12.02
17.8
21.93
24.32
25.06
24.41
22.67
20.24
17.54
14.97
12.96
11.8
11.56
12.16
13.28
14.55
15.68
16.53
17.04
17.23
17.07
16.46
15.26
13.38
10.87
7.9
4.77
1.78
-0.83
-2.97
-4.72
-6.32
-8.06
-10.29
-13.18
-16.7
-20.51
-23.96
-26.26
-26.62
-24.55
-19.97
-13.33
-5.45
2.67
10.1
16.14
20.41
22.79
23.37
22.41
20.27
17.43
14.38
11.58
9.35
7.85
7.07
6.9
7.12
7.54
7.96
8.28
8.49
8.63
8.72
8.72
8.47
7.74
6.32
4.1
1.22
-2.06
-5.35
-8.34
-10.87
-13.01
-14.97
-17.06
-19.54
-22.53
-25.94
-29.46
-32.57
-34.61
-34.91
-32.95
-28.48
-21.66
-13.11
-3.82
5.1
12.62
18.08
21.3
22.55
22.31
21.14
19.47
17.59
15.69
13.94
12.51
11.56
11.18
11.31
11.78
12.36
12.88
13.24
13.44
13.47
13.31
12.89
12.07
10.78
8.99
6.74
4.15
1.34
-1.6
-4.6
-7.6
-10.56
-13.43
-16.22
-18.99
-21.85
-24.96
-28.42
-32.18
-35.95
-39.17
-41.08
-40.88
-37.99
-32.23
-23.97
-14.07
-3.66
6.15
14.49
20.9
25.3
27.83
28.7
28.16
26.42
23.79
20.69
17.64
15.17
13.62
13.09
13.4
14.23
15.22
16.13
16.8
17.15
17.1
16.59
15.55
13.99
11.98
9.68
7.24
4.78
2.33
-0.18
-2.82
-5.64
-8.58
-11.53
-14.35
-16.9
-19.23
-21.45
-23.78
-26.41
-29.44
-32.77
-36.01
-38.48
-39.35
-37.81
-33.37
-26.11
-16.68
-6.28
3.79
12.41
18.94
23.27
25.61
26.33
25.74
24.1
21.66
18.75
15.8
13.26
11.51
10.71
10.86
11.75
13.07
14.55
15.94
17.05
17.73
17.88
17.43
16.34
14.73
12.73
10.52
8.23
5.93
3.58
1.14
-1.43
-4.14
-6.92
-9.67
-12.34
-14.89
-17.36
-19.84
-22.45
-25.3
-28.44
-31.87
-35.43
-38.8
-41.41
-42.57
-41.53
-37.78
-31.25
-22.4
-12.22
-1.9
7.41
14.95
20.38
23.71
25.2
25.07
23.54
20.88
17.47
13.86
10.67
8.43
7.42
7.59
8.64
10.09
11.52
12.66
13.39
13.68
13.5
12.79
11.42
9.36
6.72
3.78
0.88
-1.65
-3.67
-5.29
-6.75
-8.33
-10.16
-12.23
-14.39
-16.5
-18.57
-20.69
-23.11
-25.99
-29.44
-33.43
-37.77
-42.04
-45.63
-47.72
-47.48
-44.34
-38.26
-29.79
-19.99
-10.07
-1.01
6.62
12.7
17.37
20.77
23.02
24.15
24.31
23.81
23.16
22.87
23.34
24.64
26.55
28.66
30.52
31.86
32.56
32.64
32.19
31.29
29.98
28.31
26.31
24.04
21.52
18.76
15.78
12.62
9.33
5.96
2.54
-0.89
-4.22
-7.32
-10.07
-12.45
-14.63
-16.87
-19.45
-22.48
-25.76
-28.81
-30.93
-31.47
-29.92
-26.1
-20.22
-12.82
-4.67
3.37
10.54
16.27
20.29
22.63
23.51
23.21
22.01
20.1
17.65
14.85
11.99
9.45
7.63
6.81
7.02
8.03
9.38
10.62
11.38
11.55
11.2
10.51
9.6
8.5
7.14
5.45
3.4
1.04
-1.51
-4.12
-6.66
-9.04
-11.24
-13.34
-15.46
-17.82
-20.61
-23.88
-27.52
-31.21
-34.47
-36.7
-37.28
-35.68
-31.6
-25.12
-16.74
-7.39
1.84
9.94
16.19
20.33
22.46
22.89
22.01
20.15
17.56
14.56
11.43
8.55
6.25
4.78
4.23
4.51
5.37
6.5
7.65
8.63
9.38
9.84
9.96
9.6
8.65
7.1
5.01
2.6
0.11
-2.3
-4.53
-6.58
-8.51
-10.42
-12.37
-14.45
-16.79
-19.48
-22.54
-25.79
-28.87
-31.17
-31.99
-30.73
-27.1
-21.24
-13.68
-5.32
2.9
10.12
15.77
19.58
21.56
21.87
20.81
18.71
15.94
12.91
10.01
7.6
5.96
5.26
5.48
6.38
7.54
8.57
9.16
9.23
8.98
8.64
8.38
8.17
7.76
6.87
5.32
3.16
0.61
-2.09
-4.79
-7.41
-9.97
-12.48
-14.91
-17.25
-19.57
-22.04
-24.8
-27.86
-30.95
-33.43
-34.5
-33.39
-29.7
-23.51
-15.47
-6.52
2.27
10.04
16.19
20.44
22.77
23.27
22.17
19.74
16.38
12.59
8.91
5.85
3.82
2.99
3.28
4.38
5.87
7.35
8.54
9.35
9.76
9.84
9.59
8.98
7.96
6.53
4.72
2.59
0.23
-2.24
-4.72
-7.09
-9.25
-11.17
-12.91
-14.6
-16.47
-18.66
-21.24
-24.04
-26.69
-28.63
-29.19
-27.79
-24.12
-18.27
-10.75
-2.41
5.82
13.09
18.82
22.75
24.86
25.3
24.37
22.42
19.9
17.22
14.8
12.9
11.69
11.2
11.35
11.94
12.72
13.42
13.84
13.94
13.86
13.79
13.85
13.96
13.87
13.22
11.81
9.63
6.98
4.22
1.64
-0.64
-2.74
-4.92
-7.37
-10.21
-13.42
-16.87
-20.31
-23.36
-25.43
-25.89
-24.23
-20.28
-14.36
-7.25
0.06
6.65
11.9
15.56
17.65
18.29
17.66
15.94
13.41
10.44
7.47
4.91
3.05
1.99
1.65
1.85
2.33
2.87
3.31
3.56
3.63
3.52
3.22
2.63
1.65
0.18
-1.77
-4.06
-6.41
-8.58
-10.41
-11.91
-13.29
-14.81
-16.7
-19.09
-21.98
-25.2
-28.36
-30.86
-31.98
-30.98
-27.4
-21.29
-13.27
-4.41
4.06
11.19
16.44
19.79
21.51
21.94
21.34
19.85
17.59
14.77
11.74
8.97
6.9
5.83
5.79
6.62
7.95
9.4
10.68
11.63
12.19
12.37
12.13
11.4
10.15
8.37
6.12
3.56
0.85
-1.88
-4.53
-7.14
-9.8
-12.64
-15.77
-19.22
-22.92
-26.66
-30.07
-32.71
-34.01
-33.43
-30.58
-25.36
-18.1
-9.54
-0.7
7.36
13.84
18.31
20.78
21.54
21.01
19.58
17.54
15.15
12.65
10.34
8.49
7.35
7.02
7.45
8.43
9.64
10.76
11.57
11.96
11.97
11.66
11.11
10.29
9.11
7.48
5.42
3.02
0.52
-1.84
-3.91
-5.66
-7.21
-8.81
-10.69
-13.06
-15.99
-19.38
-22.89
-25.96
-27.86
-27.9
-25.6
-20.88
-14.16
-6.28
1.75
8.95
14.6
18.39
20.32
20.63
19.67
17.76
15.22
12.38
9.59
7.21
5.56
4.79
4.85
5.48
6.34
7.12
7.69
8.03
8.21
8.24
8.05
7.53
6.57
5.16
3.36
1.27
-0.99
-3.31
-5.58
-7.7
-9.56
-11.14
-12.5
-13.79
-15.23
-17.04
-19.37
-22.23
-25.4
-28.39
-30.47
-30.85
-28.95
-24.62
-18.22
-10.56
-2.63
4.69
10.78
15.33
18.3
19.69
19.58
18.19
15.86
13.1
10.48
8.43
7.15
6.62
6.67
7.09
7.74
8.52
9.37
10.18
10.83
11.23
11.37
11.26
10.94
10.34
9.34
7.82
5.79
3.47
1.2
-0.7
-2.04
-2.91
-3.6
-4.48
-5.88
-7.96
-10.74
-13.98
-17.29
-20.1
-21.72
-21.54
-19.15
-14.56
-8.16
-0.72
6.86
13.74
19.25
23.02
24.98
25.25
24.18
22.18
19.72
17.2
14.95
13.25
12.28
12.1
12.61
13.56
14.58
15.29
15.48
15.14
14.43
13.61
12.82
12.1
11.31
10.24
8.74
6.71
4.26
1.57
-1.11
-3.57
-5.76
-7.71
-9.54
-11.41
-13.47
-15.81
-18.46
-21.3
-24.0
-25.97
-26.51
-25.01
-21.18
-15.21
-7.81
0.09
7.52
13.73
18.27
20.97
21.88
21.14
19.1
16.22
13.03
10.13
7.99
6.85
6.74
7.41
8.47
9.55
10.29
10.54
10.28
9.62
8.74
7.81
6.9
5.97
4.88
3.44
1.47
-1.08
-4.04
-7.15
-10.04
-12.46
-14.36
-15.89
-17.34
-18.98
-20.99
-23.45
-26.31
-29.42
-32.42
-34.77
-35.78
-34.77
-31.36
-25.63
-18.11
-9.73
-1.49
5.72
11.33
15.09
17.06
17.49
16.77
15.31
13.48
11.58
9.84
8.47
7.63
7.46
7.95
8.96
10.23
11.46
12.43
13.08
13.46
13.64
13.64
13.33
12.52
11.0
8.74
5.97
3.08
0.5
-1.53
-3.05
-4.36
-5.78
-7.48
-9.32
-11.03
-12.36
-13.35
-14.3
-15.63
-17.65
-20.38
-23.52
-26.55
-28.89
-30.04
-29.53
-27.07
-22.6
-16.35
-8.93
-1.19
6.01
11.98
16.32
18.95
19.96
19.56
17.99
15.57
12.73
9.95
7.7
6.32
5.94
6.5
7.71
9.2
10.57
11.55
12.02
12.02
11.69
11.16
10.44
9.5
8.25
6.7
4.99
3.3
1.81
0.57
-0.52
-1.69
-3.18
-5.14
-7.54
-10.18
-12.78
-15.03
-16.73
-17.84
-18.56
-19.2
-20.14
-21.69
-23.98
-26.91
-30.11
-33.02
-34.9
-35.02
-32.84
-28.14
-21.22
-12.78
-3.85
4.53
11.47
16.43
19.24
20.08
19.35
17.54
15.19
12.8
10.73
9.26
8.45
8.22
8.36
8.63
8.81
8.86
8.86
8.99
9.38
9.98
10.57
10.84
10.52
9.53
7.98
6.1
4.1
2.11
0.16
-1.77
-3.69
-5.57
-7.4
-9.13
-10.74
-12.19
-13.47
-14.62
-15.72
-16.94
-18.43
-20.27
-22.41
-24.59
-26.41
-27.38
-27.02
-24.96
-21.03
-15.36
-8.41
-0.84
6.53
12.99
18.02
21.4
23.13
23.37
22.33
20.32
17.68
14.84
12.29
10.42
9.43
9.27
9.68
10.34
11.0
11.55
11.97
12.3
12.51
12.51
12.2
11.54
10.55
9.32
7.91
6.31
4.44
2.27
-0.14
-2.6
-4.85
-6.7
-8.15
-9.4
-10.77
-12.56
-14.89
-17.74
-20.9
-24.07
-26.83
-28.69
-29.07
-27.46
-23.59
-17.57
-9.96
-1.53
6.85
14.48
20.83
25.53
28.32
29.06
27.85
25.07
21.38
17.55
14.23
11.78
10.28
9.51
9.25
9.31
9.62
10.2
10.98
11.84
12.53
12.83
12.55
11.69
10.35
8.7
6.87
4.88
2.65
0.08
-2.9
-6.2
-9.67
-13.09
-16.27
-19.11
-21.55
-23.64
-25.51
-27.4
-29.58
-32.21
-35.16
-37.95
-39.77
-39.7
-37.07
-31.66
-23.83
-14.43
-4.49
4.97
13.15
19.51
23.82
26.02
26.27
24.93
22.44
19.36
16.18
13.34
11.14
9.72
9.13
9.26
9.97
11.06
12.34
13.65
14.85
15.82
16.4
16.45
15.85
14.57
12.71
10.48
8.06
5.64
3.22
0.71
-2.03
-5.07
-8.35
-11.66
-14.76
-17.49
-19.83
-21.96
-24.17
-26.73
-29.74
-33.09
-36.4
-39.04
-40.22
-39.18
-35.37
-28.68
-19.55
-8.93
1.91
11.71
19.59
25.11
28.34
29.59
29.25
27.61
24.95
21.56
17.91
14.57
12.06
10.66
10.33
10.78
11.62
12.59
13.65
14.85
16.15
17.3
17.89
17.52
16.07
13.78
11.13
8.56
6.28
4.14
1.82
-0.92
-4.11
-7.53
-10.86
-13.88
-16.55
-18.99
-21.37
-23.79
-26.33
-29.13
-32.32
-35.97
-39.86
-43.35
-45.43
-45.05
-41.51
-34.78
-25.56
-15.03
-4.39
5.4
13.73
20.27
24.81
27.21
27.42
25.65
22.41
18.37
14.24
10.54
7.62
5.65
4.78
5.04
6.4
8.58
11.11
13.42
15.0
15.6
15.23
14.14
12.64
10.97
9.24
7.46
5.56
3.49
1.19
-1.44
-4.44
-7.78
-11.29
-14.68
-17.66
-20.05
-21.95
-23.66
-25.61
-28.18
-31.44
-35.09
-38.46
-40.66
-40.82
-38.33
-33.01
-25.22
-15.69
-5.43
4.54
13.36
20.43
25.4
28.19
28.91
27.84
25.45
22.25
18.83
15.72
13.3
11.83
11.32
11.62
12.43
13.47
14.48
15.37
16.09
16.67
17.09
17.27
17.09
16.4
15.09
13.15
10.68
7.89
5.03
2.31
-0.15
-2.41
-4.63
-7.07
-9.99
-13.51
-17.54
-21.69
-25.28
-27.51
-27.6
-25.07
-19.91
-12.53
-3.72
5.62
14.61
22.51
28.76
32.98
35.01
34.87
32.81
29.28
24.83
20.09
15.67
12.07
9.61
8.36
8.1
8.41
8.83
9.05
8.98
8.71
8.43
8.16
7.78
6.97
5.46
3.14
0.18
-3.07
-6.23
-9.1
-11.77
-14.53
-17.75
-21.64
-26.2
-31.19
-36.16
-40.51
-43.5
-44.34
-42.35
-37.18
-29.0
-18.59
-7.15
3.99
13.79
21.59
27.16
30.48
31.63
30.74
28.08
24.18
19.77
15.65
12.43
10.37
9.38
9.12
9.23
9.47
9.77
10.2
10.79
11.53
12.16
12.37
11.76
10.04
7.14
3.25
-1.18
-5.67
-9.83
-13.54
-16.98
-20.53
-24.6
-29.49
-35.18
-41.27
-46.91
-50.96
-52.19
-49.69
-43.13
-32.96
-20.3
-6.7
6.31
17.53
26.29
32.39
35.92
37.1
36.12
33.25
28.92
23.78
18.66
14.38
11.53
10.3
10.45
11.47
12.79
14.04
15.05
15.82
16.39
16.58
16.13
14.7
12.1
8.36
3.83
-1.0
-5.63
-9.7
-13.13
-16.11
-18.95
-22.04
-25.73
-30.26
-35.6
-41.4
-46.85
-50.75
-51.78
-48.87
-41.66
-30.66
-17.16
-2.85
10.61
21.98
30.57
36.18
38.95
39.16
37.25
33.69
29.11
24.21
19.7
16.24
14.26
13.84
14.73
16.4
18.2
19.62
20.44
20.7
20.65
20.41
19.92
18.86
16.88
13.81
9.78
5.24
0.71
-3.4
-6.94
-10.09
-13.11
-16.24
-19.67
-23.46
-27.66
-32.27
-37.06
-41.45
-44.47
-45.02
-42.28
-36.02
-26.74
-15.47
-3.41
8.33
18.9
27.66
34.06
37.68
38.33
36.25
32.14
26.99
21.85
17.52
14.44
12.75
12.38
13.14
14.73
16.77
18.82
20.51
21.53
21.79
21.33
20.24
18.59
16.36
13.47
9.87
5.68
1.16
-3.28
-7.28
-10.64
-13.41
-15.83
-18.3
-21.14
-24.57
-28.68
-33.41
-38.48
-43.26
-46.84
-48.06
-45.9
-39.91
-30.42
-18.6
-6.08
5.56
15.16
22.18
26.56
28.47
28.21
26.08
22.5
18.11
13.64
9.8
7.12
5.85
5.91
7.0
8.66
10.44
11.98
13.06
13.63
13.78
13.61
13.15
12.31
10.91
8.74
5.72
1.95
-2.24
-6.42
-10.15
-13.15
-15.43
-17.24
-19.0
-21.12
-23.86
-27.23
-30.95
-34.5
-37.21
-38.3
-37.02
-32.87
-25.77
-16.23
-5.3
5.69
15.46
23.11
28.28
31.02
31.62
30.38
27.61
23.68
19.13
14.68
11.06
8.81
8.08
8.61
9.91
11.43
12.79
13.77
14.34
14.5
14.22
13.41
11.97
9.88
7.15
3.95
0.49
-2.96
-6.15
-8.93
-11.3
-13.42
-15.56
-18.07
-21.21
-24.99
-29.11
-32.84
-35.24
-35.33
-32.43
-26.38
-17.69
-7.33
3.42
13.39
21.67
27.78
31.58
33.16
32.75
30.68
27.39
23.45
19.5
16.19
14.0
13.13
13.41
14.48
15.85
17.15
18.16
18.82
19.11
18.97
18.21
16.7
14.32
11.19
7.54
3.69
-0.05
-3.53
-6.69
-9.63
-12.51
-15.5
-18.85
-22.68
-27.05
-31.74
-36.23
-39.71
-41.22
-39.88
-35.25
-27.5
-17.45
-6.36
4.4
13.75
21.05
26.15
29.15
30.26
29.59
27.3
23.64
19.15
14.54
10.59
7.89
6.7
6.88
8.02
9.6
11.18
12.44
13.23
13.51
13.28
12.53
11.23
9.31
6.74
3.54
-0.17
-4.17
-8.16
-11.88
-15.16
-17.99
-20.54
-23.13
-26.1
-29.72
