0
-46.66
-51.13
-57.02
-64.52
-73.29
-82.32
-89.92
-94.12
-93.17
-86.16
-73.42
-56.53
-37.79
-19.55
-3.41
9.97
20.78
29.58
36.81
42.64
47.03
49.94
51.48
51.9
51.53
50.67
49.58
48.41
47.27
46.18
45.06
43.86
42.57
41.31
40.2
39.29
38.42
37.24
35.29
32.29
28.22
23.34
18.15
13.15
8.64
4.62
0.84
-3.11
-7.62
-12.84
-18.63
-24.59
-30.23
-35.21
-39.48
-43.3
-47.08
-51.34
-56.53
-63.05
-71.09
-80.42
-90.14
-98.66
-103.9
-103.95
-97.7
-85.33
-68.29
-48.78
-29.15
-11.13
4.37
17.22
27.77
36.4
43.37
48.61
52.0
53.46
53.12
51.44
49.02
46.43
44.0
41.82
39.87
38.18
36.93
36.34
36.46
37.02
37.41
36.95
35.16
31.98
27.8
23.26
18.95
15.18
11.9
8.72
5.17
0.88
-4.19
-9.77
-15.33
-20.36
-24.56
-28.04
-31.21
-34.73
-39.33
-45.64
-53.92
-63.88
-74.45
-83.8
-89.73
-90.35
-84.72
-73.23
-57.44
-39.53
-21.61
-5.18
9.06
20.98
30.77
38.64
44.7
48.98
51.54
52.5
52.17
50.98
49.36
47.69
46.17
44.84
43.7
42.77
42.13
41.88
41.98
42.19
42.01
40.96
38.69
35.21
30.78
25.92
21.13
16.69
12.57
8.45
3.87
-1.5
-7.68
-14.31
-20.79
-26.58
-31.46
-35.65
-39.71
-44.4
-50.35
-58.01
-67.43
-78.16
-89.04
-98.23
-103.59
-103.2
-96.18
-83.06
-65.76
-46.84
-28.64
-12.54
1.2
13.08
23.76
33.51
42.12
49.1
54.05
56.9
58.03
58.06
57.64
57.19
56.82
56.35
55.61
54.55
53.36
52.42
51.98
52.01
52.17
51.91
50.7
48.27
44.63
40.05
34.84
29.33
23.78
18.4
13.36
8.66
4.17
-0.43
-5.45
-11.07
-17.23
-23.67
-30.0
-35.87
-41.18
-46.07
-50.98
-56.66
-63.79
-72.77
-83.31
-94.2
-103.44
-108.75
-108.25
-101.12
-87.92
-70.3
-50.47
-30.55
-12.0
4.45
18.64
30.74
40.9
49.19
55.62
60.25
63.25
64.92
65.6
65.52
64.85
63.66
62.05
60.23
58.5
57.18
56.49
56.4
56.68
56.92
56.63
55.36
52.85
49.05
44.16
38.64
33.02
27.75
23.08
18.96
15.06
10.96
6.23
0.64
-5.77
-12.73
-19.77
-26.35
-32.09
-36.91
-41.06
-45.08
-49.65
-55.39
-62.76
-71.87
-82.24
-92.71
-101.42
-106.16
-105.09
-97.31
-83.39
-65.16
-45.1
-25.56
-8.05
6.86
19.29
29.55
37.79
43.99
48.13
50.33
50.99
50.68
49.92
49.07
48.27
47.52
46.73
45.91
45.15
44.66
44.57
44.87
45.31
45.43
44.71
42.73
39.41
34.96
29.86
24.59
19.5
14.64
9.83
4.79
-0.66
-6.44
-12.32
-17.95
-23.06
-27.64
-31.93
-36.38
-41.58
-48.14
-56.47
-66.62
-77.96
-89.16
-98.18
-102.81
-101.26
-92.83
-78.22
-59.38
-38.85
-18.97
-1.21
13.95
26.82
37.88
47.44
55.37
61.38
65.23
67.02
67.19
66.38
65.19
63.96
62.7
61.24
59.38
57.06
54.49
52.01
49.9
48.29
46.91
45.28
42.84
39.24
34.45
28.86
23.08
17.69
13.03
9.06
5.42
1.57
-3.02
-8.61
-15.15
-22.25
-29.31
-35.71
-41.03
-45.2
-48.54
-51.69
-55.51
-60.79
-68.07
-77.32
-87.75
-97.72
-105.02
-107.34
-103.14
-92.1
-75.42
-55.41
-34.7
-15.45
1.12
14.85
26.23
35.91
44.29
51.41
57.1
61.18
63.69
64.89
65.23
65.12
64.9
64.67
64.47
64.31
64.29
64.54
65.07
65.71
66.05
65.66
64.23
61.75
58.47
54.76
50.87
46.81
42.46
37.59
32.11
26.12
19.88
13.74
7.89
2.35
-3.11
-8.85
-15.14
-21.99
-29.13
-36.1
-42.51
-48.26
-53.57
-58.95
-64.99
-72.21
-80.95
-91.17
-102.29
-113.06
-121.54
-125.49
-123.01
-113.31
-97.13
-76.59
-54.53
-33.58
-15.39
-0.42
11.77
21.96
30.75
38.37
44.66
49.39
52.49
54.14
54.73
54.72
54.46
54.15
53.91
53.81
53.94
54.43
55.26
56.23
56.9
56.75
55.35
52.63
48.86
44.57
40.3
36.4
32.86
29.42
25.69
21.37
16.45
11.17
5.93
1.11
-3.18
-7.11
-11.1
-15.57
-20.72
-26.46
-32.41
-38.21
-43.67
-48.89
-54.25
-60.24
-67.3
-75.6
-84.89
-94.31
-102.41
-107.42
-107.63
-101.98
-90.46
-74.26
-55.32
-35.81
-17.5
-1.41
12.18
23.41
32.51
39.53
44.32
46.85
47.29
46.19
44.42
42.77
41.79
41.58
41.83
42.1
42.1
41.72
41.13
40.51
39.97
39.43
38.65
37.34
35.2
32.1
27.98
23.08
17.8
12.66
8.05
4.05
0.36
-3.61
-8.43
-14.27
-20.87
-27.56
-33.7
-38.89
-43.18
-46.97
-50.82
-55.3
-60.87
-67.84
-76.24
-85.59
-94.72
-101.83
-104.92
-102.41
-93.78
-79.74
-62.07
-42.99
-24.56
-8.12
5.75
17.09
26.18
33.35
38.74
42.43
44.51
45.17
44.77
43.75
42.57
41.54
40.83
40.43
40.3
40.36
40.56
40.87
41.25
41.55
41.55
40.96
39.51
37.02
33.55
29.36
24.92
20.68
17.02
14.02
11.42
8.72
5.3
0.79
-4.86
-11.29
-17.89
-24.02
-29.31
-33.71
-37.54
-41.38
-45.91
-51.83
-59.58
-69.21
-80.16
-91.08
-100.01
-104.75
-103.49
-95.39
-81.0
-62.12
-41.28
-21.1
-3.5
10.57
21.14
28.86
34.63
39.14
42.8
45.73
47.87
49.17
49.65
49.39
48.56
47.37
46.06
44.89
44.1
43.83
44.16
45.02
46.2
47.39
48.26
48.45
47.69
45.79
42.77
38.78
34.19
29.47
25.04
21.19
17.84
14.59
10.84
5.97
-0.35
-8.02
-16.48
-24.95
-32.7
-39.31
-44.81
-49.59
-54.32
-59.72
-66.43
-74.88
-84.96
-95.81
-105.74
-112.48
-113.77
-108.12
-95.41
-77.07
-55.62
-33.96
-14.42
1.72
14.25
23.74
31.0
36.64
40.97
44.1
46.13
47.29
47.91
48.31
48.63
48.78
48.56
47.81
46.59
45.17
43.93
43.15
42.9
42.95
42.78
41.85
39.72
36.22
31.59
26.33
21.08
16.35
12.27
8.57
4.74
0.27
-5.05
-11.06
-17.27
-23.15
-28.36
-32.87
-37.04
-41.45
-46.81
-53.75
-62.58
-73.03
-84.08
-93.91
-100.24
-100.95
-94.78
-81.82
-63.62
-42.66
-21.68
-2.84
12.74
24.91
34.21
41.32
46.71
50.53
52.78
53.54
53.17
52.21
51.27
50.75
50.72
50.94
51.07
50.87
50.33
49.67
49.15
48.93
48.93
48.7
47.71
45.41
41.59
36.48
30.65
24.87
19.71
15.31
11.32
7.08
1.96
-4.38
-11.79
-19.71
-27.43
-34.32
-40.08
-44.8
-48.94
-53.26
-58.6
-65.62
-74.57
-85.08
-95.95
-105.25
-110.68
-110.06
-102.12
-87.07
-66.63
-43.66
-21.23
-1.66
14.0
26.0
35.32
42.93
49.31
54.44
58.07
60.13
60.89
60.82
60.35
59.75
59.1
58.42
57.79
57.37
57.33
57.72
58.39
59.02
59.21
58.55
56.78
53.83
49.84
45.08
39.87
34.42
28.89
23.28
17.69
12.2
6.9
1.72
-3.56
-9.29
-15.72
-22.88
-30.46
-37.95
-44.92
-51.07
-56.47
-61.45
-66.59
-72.64
-80.27
-89.81
-100.82
-111.8
-120.36
-123.74
-119.75
-107.6
-88.3
-64.44
-39.28
-15.83
4.01
19.69
31.73
41.1
48.67
54.87
59.74
63.1
64.93
65.37
64.77
63.5
61.84
59.96
57.94
55.88
54.02
52.62
51.86
51.78
52.21
52.72
52.75
51.69
49.05
44.72
39.03
32.68
26.51
21.16
16.89
13.5
10.54
7.44
3.71
-0.99
-6.77
-13.51
-20.72
-27.74
-33.9
-38.86
-42.79
-46.41
-50.64
-56.37
-64.07
-73.68
-84.41
-94.78
-102.68
-105.88
-102.54
-92.01
-75.1
-53.98
-31.44
-10.11
8.26
22.98
34.19
42.46
48.42
52.54
55.14
56.45
56.73
56.24
55.31
54.25
53.21
52.15
50.89
49.23
47.3
45.46
44.2
43.76
43.87
43.77
42.54
39.61
34.99
29.25
23.23
17.64
12.77
8.45
4.26
-0.28
-5.47
-11.34
-17.62
-23.87
-29.61
-34.6
-38.96
-43.19
-48.09
-54.44
-62.75
-72.95
-84.16
-94.68
-102.23
-104.52
-99.97
-88.4
-71.17
-50.8
-30.06
-11.11
5.03
18.41
29.65
39.29
47.5
54.02
58.55
60.91
61.27
60.12
58.13
55.98
54.24
53.2
52.82
52.86
53.03
53.14
53.2
53.24
53.18
52.68
51.27
48.55
44.37
39.0
32.91
26.67
20.68
15.1
9.93
4.93
-0.17
-5.67
-11.7
-18.18
-24.75
-30.92
-36.25
-40.56
-44.07
-47.29
-50.94
-55.79
-62.5
-71.42
-82.37
-94.37
-105.53
-113.34
-115.25
-109.58
-96.14
-76.48
-53.45
-30.32
-9.76
6.8
19.34
28.81
36.45
43.13
49.14
54.18
57.78
59.66
59.88
58.82
56.99
54.8
52.62
50.69
49.25
48.49
48.51
49.21
50.29
51.28
51.72
51.18
49.45
46.55
42.71
38.33
33.79
29.33
24.91
20.37
15.51
10.32
4.99
-0.29
-5.44
-10.6
-16.07
-21.99
-28.2
-34.24
-39.54
-43.76
-46.98
-49.68
-52.59
-56.54
-62.28
-70.23
-80.28
-91.43
-101.72
-108.57
-109.41
-102.65
-88.31
-68.16
-45.13
-22.41
-2.5
13.39
25.25
33.92
40.45
45.68
49.93
53.18
55.2
55.86
55.31
53.92
52.21
50.58
49.21
48.1
47.15
46.3
45.62
45.16
44.88
44.64
44.16
43.12
41.2
38.21
34.14
29.21
23.86
18.64
14.01
10.06
6.53
2.82
-1.65
-7.18
-13.62
-20.44
-26.98
-32.7
-37.39
-41.24
-44.73
-48.53
-53.32
-59.65
-67.7
-77.15
-86.96
-95.39
-100.29
-99.6
-92.04
-77.65
-57.93
-35.45
-13.09
6.79
22.93
35.16
44.02
50.25
54.34
56.49
56.8
55.54
53.22
50.51
47.97
45.85
44.12
42.54
40.97
39.42
38.07
37.18
36.89
37.09
37.44
37.39
36.32
33.75
29.54
23.92
17.51
11.06
5.23
0.22
-4.21
-8.68
-13.84
-20.05
-27.18
-34.67
-41.79
-47.99
-53.09
-57.39
-61.57
-66.45
-72.74
-80.82
-90.5
-100.91
-110.49
-117.19
-118.98
-114.45
-103.33
-86.64
-66.45
-45.16
-24.89
-6.97
8.19
20.77
31.14
39.53
46.01
50.54
53.28
54.57
54.91
54.74
54.32
53.69
52.82
51.66
50.31
48.96
47.86
47.12
46.68
46.23
45.31
43.47
40.44
36.2
31.07
25.54
20.11
15.12
10.68
6.6
2.5
-2.03
-7.32
-13.48
-20.34
-27.4
-34.02
-39.67
-44.14
-47.75
-51.25
-55.64
-61.79
-70.21
-80.75
-92.53
-103.9
-112.68
-116.63
-114.03
-104.27
-88.14
-67.67
-45.53
-24.22
-5.43
10.22
22.99
33.53
42.44
49.94
55.92
60.18
62.58
63.3
62.81
61.74
60.67
59.95
59.67
59.66
59.73
59.69
59.46
59.03
58.35
57.35
55.85
53.69
50.73
46.93
42.3
36.94
31.02
24.83
18.67
12.8
7.33
2.14
-3.1
-8.72
-14.94
-21.68
-28.64
-35.33
-41.35
-46.55
-51.11
-55.48
-60.34
-66.39
-74.18
-83.84
-94.84
-105.78
-114.55
-118.71
-116.21
-106.14
-89.13
-67.24
-43.33
-20.2
0.22
17.15
30.78
41.72
50.44
57.05
61.48
63.71
64.1
63.4
62.47
61.92
61.88
62.02
61.81
60.94
59.44
57.75
56.36
55.54
55.08
54.39
52.68
49.4
44.4
38.1
31.29
24.83
19.28
14.69
10.63
6.39
1.3
-4.86
-11.84
-19.01
-25.67
-31.37
-36.12
-40.37
-44.92
-50.68
-58.34
-68.14
-79.56
-91.21
-100.95
-106.3
-105.17
-96.52
-80.81
-59.97
-36.78
-14.03
6.23
23.02
36.38
46.88
55.06
61.24
65.41
67.54
67.82
66.71
64.91
63.09
61.72
60.92
60.52
60.21
59.69
58.83
57.67
56.34
54.94
53.42
51.53
48.87
45.12
40.17
34.23
27.85
21.72
16.38
12.01
8.28
4.53
0.05
-5.61
-12.38
-19.75
-26.97
-33.45
-38.97
-43.76
-48.41
-53.64
-60.1
-68.23
-78.1
-89.26
-100.6
-110.33
-116.24
-116.2
-108.84
-94.13
-73.48
-49.42
-24.85
-2.22
17.03
32.54
44.77
54.39
61.92
67.6
71.41
73.38
73.72
72.81
71.18
69.31
67.51
65.91
64.51
63.27
62.14
61.08
60.02
58.79
57.12
54.75
51.46
47.27
42.35
36.98
31.38
25.7
20.03
14.43
9.05
4.02
-0.66
-5.22
-10.04
-15.48
-21.67
-28.34
-34.98
-40.99
-46.03
-50.05
-53.37
-56.46
-59.96
-64.48
-70.6
-78.61
-88.28
-98.53
-107.45
-112.64
-111.88
-103.88
-88.81
-68.38
-45.25
-22.32
-1.86
14.94
28.05
38.13
46.08
52.52
57.68
61.46
63.72
64.49
64.06
62.79
61.05
59.08
57.0
54.86
52.83
51.09
49.86
49.19
48.93
48.7
48.06
46.56
43.99
40.36
35.91
30.96
25.81
20.67
15.63
10.71
5.97
1.41
-3.05
-7.59
-12.5
-18.04
-24.24
-30.83
-37.31
-43.14
-48.01
-51.98
-55.5
-59.2
-63.7
-69.43
-76.49
-84.54
-92.69
-99.47
-103.03
-101.56
-93.93
-80.18
-61.66
-40.65
-19.7
-0.85
14.78
27.03
36.33
43.27
48.28
51.55
53.17
53.33
52.4
50.87
49.25
47.82
46.63
45.5
44.23
42.77
41.28
40.05
39.27
38.84
38.29
37.0
34.45
30.45
25.28
19.51
13.84
8.75
4.42
0.67
-2.92
-6.81
-11.33
-16.52
-22.17
-27.83
-33.09
-37.72
-41.77
-45.59
-49.78
-54.99
-61.71
-70.01
-79.25
-88.09
-94.64
-96.94
-93.63
-84.35
-69.95
-52.17
-33.14
-14.73
1.77
15.71
26.95
35.63
41.96
46.13
48.35
48.9
48.14
46.54
44.62
42.8
41.28
40.06
38.95
37.75
36.4
35.06
33.93
33.13
32.51
31.65
30.06
27.35
23.44
18.58
13.19
7.69
2.35
-2.81
-7.97
-13.4
-19.31
-25.75
-32.44
-38.92
-44.67
-49.33
-52.91
-55.79
-58.66
-62.33
-67.46
-74.36
-82.7
-91.47
-98.88
-102.86
-101.48
-93.66
-79.56
-60.57
-38.88
-16.87
3.57
21.33
36.05
47.89
57.16
64.2
69.2
72.35
73.85
74.02
73.31
72.15
70.88
69.6
68.24
66.62
64.71
62.64
60.69
59.13
58.02
57.09
55.84
53.64
50.01
44.75
38.06
30.46
22.7
15.49
9.3
4.16
-0.36
-4.91
-10.1
-16.17
-22.96
-29.94
-36.53
-42.36
-47.33
-51.78
-56.23
-61.29
-67.47
-74.89
-83.19
-91.48
-98.36
-102.23
-101.62
-95.63
-84.15
-68.09
-49.15
-29.42
-10.85
5.22
18.31
28.65
36.84
43.42
48.66
52.55
54.99
55.98
55.74
54.7
53.25
51.7
50.21
48.81
47.52
46.39
45.56
45.15
45.18
45.45
45.49
44.66
42.43
38.58
33.44
27.65
21.94
16.77
12.1
7.49
2.45
-3.33
-9.74
-16.35
-22.51
-27.8
-32.09
-35.68
-39.16
-43.33
-48.85
-56.05
-64.76
-74.18
-82.99
-89.52
-92.16
-89.66
-81.52
-68.23
-51.15
-32.25
-13.58
3.28
17.55
29.2
38.68
46.46
52.66
57.16
59.8
60.59
59.94
58.45
56.78
55.34
54.25
53.4
52.59
51.63
50.33
48.49
45.92
42.52
38.28
33.33
27.9
22.26
16.72
11.5
6.69
2.19
-2.25
-6.97
-12.14
-17.73
-23.48
-29.0
-34.06
-38.67
-43.08
-47.71
-52.98
-59.15
-66.19
-73.66
-80.62
-85.69
-87.39
-84.55
-76.7
-64.28
-48.53
-31.11
-13.66
2.5
16.52
27.95
36.64
42.64
46.12
47.4
46.91
45.11
42.57
39.79
37.2
35.02
33.28
31.86
30.66
29.6
28.67
27.82
26.88
25.56
23.53
20.6
16.83
12.55
8.18
4.07
0.33
-3.22
-6.95
-11.26
-16.34
-22.1
-28.18
-34.09
-39.47
-44.27
-48.89
-53.92
-60.02
-67.48
-76.01
-84.69
-92.07
-96.45
-96.31
-90.71
-79.63
-63.99
-45.49
-26.13
-7.66
8.8
22.88
34.75
44.74
53.0
59.49
64.05
66.68
67.57
67.11
65.71
63.68
61.19
58.38
55.46
52.77
50.61
49.19
48.41
47.92
47.11
45.44
42.58
38.5
33.48
27.92
22.18
16.39
10.51
4.44
-1.87
-8.31
-14.73
-20.9
-26.71
-32.14
-37.25
-42.27
-47.67
-54.04
-61.89
-71.25
-81.26
-90.26
-96.1
-96.88
-91.65
-80.77
-65.69
-48.41
-30.77
-13.99
1.39
15.31
27.77
38.63
47.52
54.1
58.24
60.18
60.46
59.71
58.41
56.73
54.63
52.08
49.3
46.7
44.75
43.68
43.29
43.01
42.15
40.18
36.89
32.52
27.51
22.41
17.61
13.19
9.01
4.62
-0.37
-6.17
-12.69
-19.48
-25.95
-31.54
-36.01
-39.46
-42.41
-45.62
-49.95
-56.11
-64.32
-74.06
-83.95
-91.95
-95.91
-94.16
-86.11
-72.38
-54.62
-35.01
-15.57
2.23
17.73
30.88
41.98
51.28
58.83
64.49
68.14
69.84
69.96
69.04
67.59
65.92
64.15
62.25
60.32
58.55
57.2
56.37
55.9
55.38
54.29
52.16
48.76
44.17
38.72
32.92
27.27
22.07
17.28
12.55
7.38
1.41
-5.33
-12.48
-19.37
-25.43
-30.36
-34.31
-37.8
-41.59
-46.44
-52.89
-60.98
-70.04
-78.67
-85.01
-87.18
-83.92
-74.99
-61.23
-44.38
-26.46
-9.26
6.04
18.98
29.61
38.27
45.21
50.47
53.95
55.53
55.33
53.74
51.37
48.88
46.7
45.01
43.76
42.79
41.97
41.2
40.44
39.59
38.56
37.16
35.16
32.38
28.69
24.21
19.32
14.53
10.32
6.86
3.91
0.86
-2.9
-7.71
-13.46
-19.68
-25.76
-31.23
-35.95
-40.1
-44.08
-48.43
-53.7
-60.26
-68.15
-76.83
-85.08
-91.23
-93.57
-90.89
-82.86
-70.21
-54.4
-37.19
-20.14
-4.33
9.76
22.02
32.48
41.16
47.97
52.79
55.63
56.68
56.34
55.1
53.43
51.67
50.02
48.52
47.17
45.96
44.86
43.83
42.75
41.5
39.97
38.05
35.73
33.05
30.04
26.83
23.48
20.07
16.65
13.2
9.72
6.1
2.25
-1.98
-6.68
-11.85
-17.31
-22.75
-27.81
-32.26
-36.11
-39.59
-43.15
-47.24
-52.21
-58.12
-64.79
-71.68
-77.94
-82.44
-83.99
-81.64
-74.95
-64.25
-50.64
-35.61
-20.74
-7.18
4.48
14.17
22.1
28.55
33.7
37.57
40.18
41.66
42.24
42.22
41.83
41.21
40.34
39.2
37.82
36.41
35.25
34.54
34.32
34.34
34.22
33.62
32.36
30.45
28.03
25.25
22.18
18.79
15.05
10.92
6.43
1.62
-3.41
-8.57
-13.76
-18.85
-23.73
-28.28
-32.47
-36.29
-39.83
-43.19
-46.54
-49.99
-53.58
-57.3
-61.11
-64.92
-68.53
-71.6
-73.47
-73.37
-70.51
-64.48
-55.44
-44.13
-31.64
-19.02
-7.03
3.91
13.62
21.93
28.65
33.6
36.74
38.28
38.54
37.92
36.76
35.3
33.71
32.15
30.71
29.4
28.15
26.88
25.58
24.4
23.5
22.97
22.69
22.31
21.48
19.92
17.61
14.71
11.5
8.26
5.11
2.06
-1.01
-4.23
-7.66
-11.24
-14.84
-18.27
-21.45
-24.38
-27.14
-29.78
-32.34
-34.87
-37.51
-40.57
-44.39
-49.13
-54.49
-59.62
-63.31
-64.36
-61.97
-56.02
-47.01
-35.88
-23.72
-11.57
-0.26
9.61
17.66
23.75
27.91
30.3
31.21
30.94
29.87
28.3
26.55
24.83
23.32
22.13
21.25
20.66
20.27
19.99
19.72
19.39
18.87
18.01
16.66
14.69
12.1
9.08
5.9
2.83
0.04
-2.55
-5.14
-7.98
-11.25
-15.01
-19.17
-23.52
-27.75
-31.6
-34.87
-37.58
-40.02
-42.69
-46.1
-50.51
-55.76
-61.21
-65.89
-68.67
-68.52
-64.74
-57.19
-46.35
-33.25
-19.2
-5.51
6.85
17.33
25.84
32.44
37.3
40.5
42.23
42.71
42.4
41.7
41.01
40.45
40.04
39.66
39.22
38.71
38.12
37.5
36.87
36.14
35.15
33.69
31.56
28.67
25.17
21.27
17.31
13.54
10.1
6.92
3.82
0.53
-3.17
-7.39
-12.1
-17.07
-21.98
-26.5
-30.41
-33.73
-36.71
-39.78
-43.4
-47.87
-53.24
-59.15
-64.88
-69.36
-71.47
-70.27
-65.36
-56.93
-45.86
-33.32
-20.52
-8.44
2.41
11.84
19.9
26.69
32.25
36.54
39.49
41.14
41.67
41.46
40.96
40.6
40.64
41.07
41.68
42.14
42.27
42.02
41.51
40.84
40.02
38.92
37.4
35.39
32.97
30.33
27.56
24.68
21.59
18.2
14.54
10.8
7.13
3.62
0.21
-3.21
-6.71
-10.25
-13.72
-17.04
-20.24
-23.53
-27.18
-31.44
-36.49
-42.27
-48.57
-55.02
-61.05
-65.98
-69.09
-69.66
-67.18
-61.51
-52.9
-42.07
-30.05
-17.85
-6.27
4.2
13.44
21.46
28.21
33.56
37.37
39.59
40.44
40.33
39.72
39.14
38.91
39.2
39.92
40.81
41.56
41.89
41.71
41.14
40.36
39.51
38.56
37.37
35.81
33.8
31.44
28.82
25.94
22.77
19.27
15.52
11.71
8.09
4.75
1.69
-1.23
-4.17
-7.17
-10.22
-13.23
-16.23
-19.3
-22.59
-26.3
-30.62
-35.63
-41.32
-47.45
-53.53
-58.85
-62.6
-64.0
-62.49
-57.84
-50.24
-40.37
-29.23
-17.99
-7.65
1.19
8.42
14.31
19.16
23.17
26.27
28.27
29.05
28.76
27.74
26.49
25.36
24.57
24.09
23.82
23.67
23.68
23.88
24.35
24.98
25.49
25.5
24.66
22.85
20.2
17.15
14.14
11.45
9.07
6.7
3.99
0.65
-3.34
-7.72
-12.12
-16.16
-19.58
-22.33
-24.57
-26.68
-29.11
-32.21
-36.06
-40.29
-44.24
-47.03
-47.85
-46.24
-42.09
-35.75
-27.82
-19.08
-10.27
-1.98
5.4
11.74
17.06
21.47
25.03
27.77
29.66
30.71
31.02
30.74
30.07
29.14
28.05
26.95
25.94
25.16
24.7
24.52
24.48
24.32
23.82
22.83
21.32
19.37
17.05
14.44
11.56
8.44
5.05
1.49
-2.22
-5.95
-9.66
-13.27
-16.77
-20.16
-23.44
-26.71
-30.16
-34.05
-38.61
-43.82
-49.3
-54.25
-57.68
-58.7
-56.82
-52.09
-45.01
-36.34
-26.91
-17.37
-8.25
0.16
7.7
14.28
19.87
24.43
27.97
30.5
32.11
32.94
33.18
33.06
32.75
32.4
32.13
32.03
32.1
32.25
32.3
32.0
31.18
29.75
27.7
25.09
22.04
18.71
15.35
12.22
9.49
7.15
5.0
2.74
0.17
-2.78
-5.98
-9.23
-12.38
-15.36
-18.17
-20.9
-23.67
-26.69
-30.28
-34.73
-40.02
-45.73
-51.05
-54.89
-56.27
-54.56
-49.7
-42.13
-32.65
-22.22
-11.75
-1.93
6.84
14.41
20.79
26.06
30.21
33.19
34.98
35.69
35.62
35.15
34.62
34.18
33.81
33.4
32.88
32.26
31.66
31.14
30.71
30.11
29.09
27.34
24.81
21.67
18.29
15.1
12.31
9.92
7.65
5.09
1.89
-2.0
-6.34
-10.74
-14.74
-18.05
-20.69
-22.9
-25.11
-27.82
-31.46
-36.28
-42.22
-48.8
-55.16
-60.13
-62.59
-61.74
-57.32
-49.73
-39.92
-29.08
-18.32
-8.52
-0.11
6.82
12.45
17.07
20.89
23.95
26.15
27.32
27.39
26.43
24.84
23.12
21.78
21.13
21.19
21.68
22.18
22.33
21.97
21.1
19.86
18.34
16.52
14.3
11.59
8.42
4.91
1.19
-2.65
-6.63
-10.82
-15.2
-19.62
-23.82
-27.6
-30.97
-34.17
-37.64
-41.84
-46.99
-52.87
-58.76
-63.59
-66.11
-65.34
-60.81
-52.75
-42.0
-29.68
-16.92
-4.54
6.99
17.5
26.91
35.11
41.89
46.96
50.15
51.45
51.13
49.72
47.79
45.84
44.19
42.94
42.05
41.48
41.14
40.88
40.46
39.49
37.57
34.44
30.14
25.04
19.66
14.48
9.74
5.39
1.13
-3.41
-8.5
-14.19
-20.25
-26.27
-31.82
-36.66
-40.96
-45.21
-50.1
-56.17
-63.45
-71.36
-78.72
-84.01
-85.77
-82.96
-75.29
-63.26
-48.09
-31.39
-14.76
0.61
14.14
25.83
35.93
44.68
52.04
57.73
61.5
63.35
63.61
62.95
61.99
61.21
60.7
60.32
59.76
58.83
57.45
55.69
53.72
51.63
49.38
46.81
43.7
39.88
35.38
30.35
25.08
19.86
14.88
10.17
5.62
1.0
-3.94
-9.36
-15.25
-21.37
-27.29
-32.49
-36.63
-39.68
-42.11
-44.74
-48.48
-53.97
-61.34
-70.0
-78.83
-86.28
-90.71
-90.8
-85.79
-75.68
-61.31
-44.15
-25.97
-8.42
7.33
20.79
32.08
41.62
49.87
56.92
62.58
66.47
68.4
68.51
67.32
65.52
63.7
62.09
60.68
59.35
58.07
56.96
56.15
55.62
55.08
54.1
52.28
49.43
45.66
41.32
36.82
32.5
28.53
24.8
21.09
17.12
12.71
7.92
2.94
-1.93
-6.55
-10.97
-15.43
-20.2
-25.34
-30.72
-35.97
-40.76
-44.89
-48.42
-51.62
-54.92
-58.74
-63.37
-68.86
-74.94
-80.94
-85.86
-88.55
-87.92
-83.24
-74.35
-61.76
-46.58
-30.21
-14.11
0.66
13.53
24.48
33.72
41.46
47.7
52.17
54.67
55.22
54.22
52.28
50.07
48.05
46.4
45.11
44.09
43.24
42.46
41.61
40.46
38.78
36.48
33.56
30.23
26.73
23.28
19.92
16.61
13.23
9.68
5.97
2.12
-1.75
-5.58
-9.37
-13.13
-16.93
-20.76
-24.61
-28.37
-31.97
-35.35
-38.6
-42.05
-46.03
-50.92
-56.87
-63.66
-70.6
-76.6
-80.37
-80.74
-76.89
-68.68
-56.69
-42.13
-26.51
-11.25
2.55
14.36
24.05
31.69
37.45
41.42
43.69
44.45
44.03
42.88
41.41
39.97
38.74
37.82
37.22
36.98
37.02
37.18
37.24
36.95
36.09
34.53
32.26
29.36
25.91
22.0
17.76
13.3
8.79
4.3
-0.13
-4.53
-8.96
-13.44
-17.9
-22.31
-26.56
-30.57
-34.28
-37.64
-40.72
-43.67
-46.76
-50.34
-54.64
-59.66
-65.08
-70.24
-74.3
-76.35
-75.61
-71.64
-64.42
-54.44
-42.56
-29.82
-17.16
-5.25
5.67
15.51
24.24
31.76
37.84
42.25
44.88
45.82
45.41
44.06
42.28
40.45
38.86
37.6
36.63
35.83
35.12
34.48
33.91
33.36
32.69
31.65
30.06
27.79
24.9
21.58
17.95
14.18
10.37
6.62
3.01
-0.48
-3.88
-7.38
-11.11
-15.16
-19.44
-23.72
-27.69
-31.05
-33.68
-35.72
-37.56
-39.76
-42.93
-47.46
-53.29
-59.79
-65.87
-70.18
-71.56
-69.3
-63.38
-54.35
-43.12
-30.76
-18.26
-6.4
4.19
13.13
20.28
25.76
29.84
32.92
35.3
37.14
38.42
39.02
38.9
38.12
36.85
35.33
33.74
32.22
30.85
29.7
28.79
28.08
27.47
26.78
25.79
24.3
22.19
19.44
16.09
12.31
8.34
4.51
1.11
-1.66
-3.76
-5.35
-6.67
-7.98
-9.46
-11.24
-13.36
-15.82
-18.58
-21.47
-24.33
-27.1
-29.94
-33.26
-37.48
-42.77
-48.77
-54.55
-58.8
-60.35
-58.52
-53.33
-45.4
-35.65
-24.98
-14.13
-3.69
5.91
14.23
21.0
26.1
29.65
31.87
33.02
33.32
32.87
31.75
30.1
28.13
26.12
24.27
22.73
21.53
20.67
20.1
19.83
19.76
19.73
19.42
18.5
16.69
13.93
10.4
6.54
2.67
-1.0
-4.58
-8.27
-12.17
-16.19
-20.0
-23.27
-25.86
-28.03
-30.34
-33.41
-37.75
-43.31
-49.55
-55.41
-59.67
-61.27
-59.57
-54.56
-46.76
-37.03
-26.31
-15.39
-4.89
4.85
13.62
21.35
27.99
33.55
37.95
41.15
43.1
43.84
43.51
42.33
40.62
38.68
36.74
35.02
33.64
32.65
31.98
31.51
30.99
30.19
28.88
26.91
24.26
20.98
17.15
12.86
8.22
3.33
-1.69
-6.72
-11.6
-16.2
-20.42
-24.26
-27.85
-31.43
-35.32
-39.76
-44.76
-50.07
-55.16
-59.36
-61.95
-62.33
-60.02
-54.83
-46.8
-36.39
-24.35
-11.65
0.82
12.37
22.65
31.5
38.86
44.61
48.56
50.61
50.89
49.8
47.9
45.81
43.9
42.33
41.03
39.79
38.41
36.81
35.05
33.32
31.78
30.48
29.24
27.76
25.7
22.95
19.65
16.08
12.58
9.31
6.24
3.19
-0.03
-3.5
-7.17
-10.91
-14.53
-17.93
-21.08
-24.06
-26.99
-30.03
-33.37
-37.21
-41.77
-47.09
-52.98
-58.87
-63.85
-66.84
-66.94
-63.64
-56.99
-47.53
-36.15
-23.86
-11.64
-0.32
9.49
17.52
23.8
28.66
32.47
35.51
37.83
39.32
39.91
39.66
38.86
37.83
36.83
35.95
35.16
34.42
33.66
32.78
31.57
29.71
26.89
23.0
18.22
12.95
7.75
3.04
-0.97
-4.33
-7.19
-9.82
-12.4
-15.04
-17.78
-20.62
-23.56
-26.66
-30.09
-34.07
-38.77
-44.17
-49.98
-55.61
-60.19
-62.77
-62.5
-58.88
-51.88
-41.94
-29.98
-17.04
-4.09
8.18
19.39
29.31
37.73
44.44
49.24
52.05
53.05
52.64
51.31
49.53
47.64
45.81
44.12
42.58
41.17
39.85
38.51
37.02
35.23
33.03
30.33
27.16
23.62
19.9
16.14
12.45
8.79
5.03
1.01
-3.37
-8.1
-13.04
-18.01
-22.72
-26.93
-30.47
-33.4
-36.07
-39.06
-43.09
-48.67
-55.78
-63.71
-71.21
-76.76
-79.06
-77.36
-71.52
-61.97
-49.55
-35.33
-20.39
-5.74
7.83
19.85
30.09
38.52
45.18
50.08
53.2
54.61
54.5
53.26
51.4
49.43
47.72
46.4
45.36
44.36
43.11
41.46
39.48
37.41
35.49
33.85
32.33
30.58
28.3
25.4
22.04
18.53
15.19
12.09
9.07
5.91
2.39
-1.51
-5.73
-10.12
-14.63
-19.31
-24.21
-29.32
-34.46
-39.44
-44.19
-48.87
-53.86
-59.62
-66.32
-73.51
-80.11
-84.62
-85.61
-82.19
-74.35
-62.91
-49.14
-34.43
-19.87
-6.16
6.33
17.38
26.87
34.73
40.9
45.45
48.54
50.46
51.5
51.97
52.07
51.94
51.56
50.95
50.16
49.36
48.74
48.4
48.27
48.01
47.19
45.43
42.67
39.11
35.17
31.24
27.52
23.98
20.42
16.69
12.83
8.97
5.36
2.08
-0.92
-3.93
-7.24
-11.1
-15.53
-20.36
-25.26
-29.93
-34.18
-38.01
-41.6
-45.22
-49.16
-53.66
-58.9
-64.94
-71.59
-78.3
-84.16
-87.98
-88.58
-85.19
-77.73
-66.81
-53.56
-39.21
-24.85
-11.25
1.13
12.03
21.34
29.03
35.18
39.91
43.34
45.54
46.52
46.35
45.21
43.48
41.61
40.07
39.14
38.78
38.79
38.82
38.6
37.96
36.88
35.4
33.53
31.26
28.54
25.4
21.95
18.34
14.78
11.42
8.29
5.32
2.36
-0.76
-4.19
-7.97
-11.98
-15.93
-19.54
-22.59
-25.07
-27.19
-29.36
-32.1
-35.86
-40.95
-47.34
-54.63
-61.95
-68.09
-71.78
-72.08
-68.56
-61.48
-51.6
-39.99
-27.67
-15.47
-4.04
6.14
14.77
21.75
27.16
31.25
34.36
36.76
38.57
39.82
40.45
40.45
39.95
39.09
38.09
37.12
36.33
35.66
35.01
34.21
33.08
31.58
29.72
27.63
25.38
22.96
20.28
17.3
14.05
10.71
7.51
4.59
1.99
-0.52
-3.14
-6.13
-9.63
-13.64
-18.08
-22.76
-27.52
-32.12
-36.37
-40.17
-43.59
-46.88
-50.47
-54.76
-59.92
-65.67
-71.26
-75.59
-77.52
-76.18
-71.21
-62.88
-51.87
-39.2
-25.89
-12.84
-0.73
10.09
19.5
27.55
34.33
39.85
44.11
47.13
49.01
49.93
50.12
49.79
49.1
48.23
47.3
46.47
45.87
45.56
45.53
45.62
45.62
45.2
44.05
41.99
39.02
35.4
31.55
27.84
24.48
21.39
18.3
14.97
11.32
7.56
4.0
0.89
-1.78
-4.28
-6.98
-10.17
-13.95
-18.19
-22.6
-26.92
-30.95
-34.68
-38.32
-42.16
-46.59
-51.88
-58.13
-65.07
-72.0
-77.86
-81.45
-81.68
-77.97
-70.39
-59.67
-47.02
-33.75
-20.92
-9.14
1.46
10.97
19.46
26.88
33.07
37.91
41.41
43.78
45.33
46.29
46.78
46.82
46.44
45.82
45.19
44.88
45.02
45.59
46.35
46.89
46.84
45.84
43.78
40.72
36.98
33.01
29.24
26.01
23.35
21.09
18.88
16.38
13.32
9.65
5.5
1.17
-3.04
-6.94
-10.47
-13.67
-16.68
-19.57
-22.4
-25.19
-27.98
-30.78
-33.72
-36.96
-40.75
-45.32
-50.79
-56.91
-63.03
-68.17
-71.25
-71.39
-68.25
-61.95
-53.16
-42.71
-31.44
-20.11
-9.28
0.69
9.6
17.43
24.23
30.01
34.71
38.2
40.4
41.38
41.41
40.87
40.09
39.25
38.38
37.45
36.46
35.47
34.55
33.72
32.88
31.82
30.37
28.41
25.94
23.08
20.0
16.87
13.85
11.02
8.43
6.02
3.66
1.17
-1.67
-5.02
-8.89
-13.13
-17.43
-21.43
-24.91
-27.83
-30.4
-32.96
-35.83
-39.27
-43.41
-48.27
-53.69
