0
-23.95
-27.34
-30.53
-33.89
-37.89
-42.83
-48.65
-54.73
-59.98
-63.03
-62.65
-58.21
-49.88
-38.7
-26.22
-14.1
-3.59
4.69
10.73
14.87
17.56
19.16
19.96
20.31
20.64
21.41
22.91
25.18
27.96
30.82
33.4
35.48
37.04
38.13
38.82
39.09
38.95
38.33
37.17
35.4
32.98
29.94
26.42
22.69
19.02
15.65
12.72
10.29
8.38
6.94
5.82
4.73
3.22
0.91
-2.49
-6.92
-12.09
-17.5
-22.7
-27.37
-31.39
-34.85
-38.06
-41.47
-45.58
-50.78
-56.99
-63.53
-69.1
-72.06
-71.01
-65.26
-55.16
-42.09
-28.0
-14.84
-3.96
4.18
9.84
13.76
16.71
19.18
21.38
23.32
24.99
26.44
27.77
29.11
30.54
32.09
33.7
35.34
36.9
38.3
39.41
40.16
40.43
40.13
39.19
37.52
35.12
32.13
28.84
25.65
22.9
20.7
18.9
17.2
15.32
13.15
10.76
8.32
5.96
3.62
1.1
-1.89
-5.55
-9.86
-14.63
-19.5
-24.15
-28.31
-31.99
-35.46
-39.18
-43.66
-49.22
-55.77
-62.68
-68.82
-72.79
-73.3
-69.59
-61.73
-50.62
-37.71
-24.69
-12.94
-3.32
3.98
9.2
12.87
15.49
17.49
19.16
20.76
22.55
24.68
27.19
29.92
32.58
34.83
36.44
37.41
37.93
38.29
38.72
39.21
39.51
39.23
38.04
35.81
32.75
29.27
25.86
22.85
20.33
18.18
16.21
14.27
12.32
10.41
8.56
6.75
4.82
2.55
-0.27
-3.81
-8.02
-12.67
-17.36
-21.66
-25.28
-28.23
-30.83
-33.62
-37.21
-42.08
-48.46
-56.09
-64.08
-70.92
-74.82
-74.18
-68.27
-57.59
-43.75
-28.97
-15.29
-4.07
4.32
10.18
14.09
16.58
18.05
18.81
19.16
19.47
20.05
21.12
22.75
24.87
27.29
29.75
32.02
33.89
35.28
36.23
36.78
36.93
36.6
35.59
33.77
31.17
28.0
24.64
21.38
18.39
15.68
13.15
10.71
8.31
5.98
3.64
1.15
-1.69
-5.03
-8.84
-12.92
-16.95
-20.66
-23.96
-27.03
-30.25
-34.15
-39.18
-45.52
-52.89
-60.46
-66.89
-70.7
-70.64
-66.13
-57.42
-45.57
-32.13
-18.69
-6.56
3.46
11.11
16.5
20.0
21.99
22.91
23.18
23.22
23.45
24.18
25.63
27.77
30.38
33.11
35.61
37.65
39.09
39.91
40.14
39.8
38.93
37.58
35.79
33.6
31.02
28.09
24.9
21.63
18.46
15.52
12.9
10.55
8.38
6.31
4.21
1.93
-0.74
-3.96
-7.82
-12.24
-16.95
-21.54
-25.68
-29.22
-32.38
-35.65
-39.72
-45.16
-52.15
-60.35
-68.7
-75.68
-79.66
-79.32
-74.09
-64.36
-51.41
-37.05
-23.12
-11.04
-1.54
5.36
10.18
13.61
16.27
18.53
20.55
22.41
24.21
26.08
28.16
30.46
32.85
35.13
37.07
38.6
39.78
40.72
41.51
42.06
42.17
41.62
40.29
38.22
35.68
32.97
30.4
28.1
25.99
23.91
21.66
19.17
16.51
13.85
11.34
8.95
6.41
3.35
-0.53
-5.29
-10.65
-16.07
-20.99
-25.13
-28.61
-31.88
-35.62
-40.45
-46.7
-54.24
-62.34
-69.73
-74.83
-76.14
-72.73
-64.57
-52.68
-38.78
-24.84
-12.5
-2.69
4.45
9.37
12.8
15.43
17.77
20.07
22.42
24.75
26.98
29.06
30.94
32.64
34.18
35.62
36.97
38.14
39.01
39.42
39.27
38.55
37.37
35.83
34.04
32.05
29.85
27.49
25.03
22.52
20.0
17.47
14.91
12.37
9.93
7.62
5.39
3.07
0.42
-2.71
-6.28
-10.09
-13.83
-17.27
-20.37
-23.31
-26.45
-30.27
-35.22
-41.58
-49.17
-57.2
-64.27
-68.63
-68.76
-63.9
-54.35
-41.5
-27.28
-13.6
-1.79
7.53
14.39
19.1
22.04
23.55
23.95
23.67
23.23
23.17
23.88
25.44
27.64
30.04
32.22
33.89
35.0
35.64
35.93
35.91
35.51
34.61
33.12
31.08
28.61
25.9
23.12
20.4
17.79
15.32
13.0
10.82
8.76
6.69
4.49
1.98
-0.94
-4.26
-7.86
-11.56
-15.18
-18.61
-21.89
-25.21
-28.83
-33.08
-38.28
-44.63
-52.03
-59.9
-67.11
-72.18
-73.64
-70.55
-62.87
-51.54
-38.16
-24.57
-12.28
-2.22
5.39
10.82
14.63
17.36
19.43
21.06
22.38
23.5
24.59
25.9
27.63
29.81
32.24
34.58
36.49
37.8
38.54
38.84
38.81
38.39
37.44
35.82
33.58
30.92
28.19
25.64
23.36
21.25
19.07
16.64
13.95
11.15
8.46
6.03
3.84
1.73
-0.63
-3.49
-7.01
-11.15
-15.66
-20.24
-24.55
-28.45
-32.0
-35.49
-39.45
-44.39
-50.63
-58.03
-65.81
-72.54
-76.45
-76.01
-70.42
-60.1
-46.48
-31.69
-17.76
-6.08
2.84
9.28
13.86
17.23
19.81
21.84
23.51
25.07
26.75
28.7
30.93
33.23
35.33
36.99
38.11
38.74
39.06
39.23
39.36
39.38
39.12
38.33
36.83
34.66
32.03
29.33
26.86
24.74
22.81
20.77
18.39
15.6
12.57
9.59
6.86
4.4
2.02
-0.54
-3.56
-7.14
-11.21
-15.57
-19.88
-23.88
-27.46
-30.75
-34.15
-38.19
-43.32
-49.67
-56.84
-63.87
-69.35
-71.81
-70.13
-63.97
-53.88
-41.21
-27.72
-15.12
-4.64
3.2
8.5
11.82
13.89
15.35
16.65
18.0
19.48
21.09
22.84
24.74
26.79
28.87
30.79
32.33
33.33
33.82
33.93
33.82
33.53
32.99
32.06
30.63
28.7
26.38
23.81
21.15
18.55
16.13
14.02
12.24
10.69
9.11
7.24
4.85
1.91
-1.45
-4.97
-8.42
-11.68
-14.71
-17.56
-20.37
-23.36
-26.88
-31.33
-36.98
-43.72
-50.9
-57.33
-61.51
-62.1
-58.31
-50.23
-38.85
-25.82
-12.98
-1.85
6.67
12.41
15.77
17.34
17.77
17.51
16.89
16.23
15.89
16.2
17.38
19.44
22.13
25.03
27.72
29.86
31.3
32.05
32.25
32.04
31.51
30.61
29.21
27.16
24.41
21.1
17.54
14.13
11.18
8.8
6.91
5.23
3.44
1.27
-1.44
-4.72
-8.46
-12.43
-16.38
-20.11
-23.52
-26.68
-29.91
-33.61
-38.25
-44.15
-51.28
-59.03
-66.27
-71.47
-73.16
-70.38
-63.08
-52.13
-39.06
-25.61
-13.21
-2.83
5.19
10.94
14.76
17.16
18.69
19.87
21.1
22.64
24.54
26.71
28.97
31.11
32.99
34.53
35.71
36.59
37.21
37.56
37.61
37.31
36.56
35.31
33.53
31.21
28.44
25.41
22.33
19.45
16.85
14.46
12.15
9.76
7.25
4.69
2.17
-0.39
-3.18
-6.44
-10.33
-14.7
-19.23
-23.53
-27.34
-30.69
-33.96
-37.69
-42.46
-48.57
-55.78
-63.22
-69.41
-72.66
-71.58
-65.69
-55.56
-42.74
-29.19
-16.59
-6.01
2.3
8.58
13.33
16.96
19.73
21.82
23.37
24.63
25.87
27.35
29.22
31.5
34.03
36.55
38.85
40.71
42.05
42.86
43.11
42.75
41.76
40.13
38.03
35.71
33.44
31.41
29.6
27.82
25.82
23.39
20.46
17.17
13.77
10.54
7.73
5.42
3.49
1.63
-0.56
-3.44
-7.18
-11.63
-16.46
-21.16
-25.39
-29.05
-32.35
-35.79
-39.93
-45.2
-51.63
-58.65
-65.13
-69.51
-70.28
-66.45
-57.99
-45.93
-32.1
-18.54
-6.93
1.9
7.96
11.87
14.45
16.33
17.83
19.01
19.89
20.58
21.39
22.66
24.57
27.06
29.76
32.19
33.94
34.82
34.89
34.39
33.6
32.69
31.71
30.54
29.01
26.95
24.28
21.11
17.68
14.35
11.44
9.14
7.41
6.0
4.52
2.6
-0.02
-3.39
-7.33
-11.49
-15.48
-19.01
-21.99
-24.63
-27.31
-30.53
-34.73
-40.15
-46.64
-53.53
-59.71
-63.74
-64.28
-60.54
-52.6
-41.44
-28.68
-16.07
-4.96
3.94
10.58
15.32
18.63
20.87
22.22
22.83
22.88
22.69
22.62
23.06
24.19
25.98
28.21
30.5
32.54
34.07
34.97
35.22
34.86
33.96
32.62
30.9
28.83
26.41
23.6
20.43
17.01
13.55
10.27
7.37
4.98
3.04
1.34
-0.46
-2.73
-5.72
-9.48
-13.81
-18.32
-22.54
-26.19
-29.25
-32.0
-34.91
-38.52
-43.25
-49.31
-56.53
-64.25
-71.22
-75.85
-76.51
-72.14
-62.7
-49.34
-34.08
-19.18
-6.44
3.22
9.84
14.07
16.78
18.7
20.26
21.7
23.12
24.6
26.2
27.95
29.85
31.83
33.79
35.61
37.16
38.38
39.24
39.75
39.91
39.62
38.74
37.12
34.76
31.82
28.63
25.54
22.78
20.37
18.16
15.97
13.69
11.29
8.86
6.35
3.69
0.7
-2.76
-6.71
-10.99
-15.4
-19.71
-23.74
-27.45
-30.92
-34.36
-38.11
-42.62
-48.22
-54.98
-62.37
-69.27
-74.09
-75.25
-71.7
-63.38
-51.32
-37.33
-23.48
-11.41
-1.95
4.92
9.76
13.29
15.99
18.06
19.57
20.6
21.43
22.4
23.83
25.79
28.07
30.32
32.22
33.58
34.41
34.82
34.95
34.86
34.48
33.73
32.47
30.68
28.4
25.76
22.96
20.15
17.43
14.87
12.55
10.54
8.86
7.42
5.91
3.93
1.14
-2.56
-6.93
-11.47
-15.73
-19.44
-22.69
-25.86
-29.44
-33.87
-39.42
-46.05
-53.31
-60.34
-65.87
-68.49
-67.06
-61.08
-51.01
-38.07
-24.01
-10.56
0.98
9.92
16.12
19.84
21.56
21.81
21.14
20.16
19.45
19.48
20.56
22.73
25.74
29.17
32.46
35.16
36.91
37.62
37.41
36.51
35.24
33.77
32.2
30.41
28.22
25.46
22.09
18.27
14.31
10.6
7.47
5.01
3.08
1.34
-0.62
-3.18
-6.51
-10.58
-15.16
-19.9
-24.41
-28.44
-31.9
-34.99
-38.12
-41.88
-46.79
-53.1
-60.56
-68.27
-74.76
-78.35
-77.55
-71.69
-61.2
-47.59
-32.89
-19.12
-7.58
1.31
7.85
12.71
16.45
19.4
21.65
23.27
24.49
25.68
27.27
29.51
32.33
35.42
38.3
40.58
42.04
42.72
42.82
42.56
42.03
41.19
39.88
38.01
35.59
32.81
29.9
27.04
24.26
21.5
18.68
15.83
13.05
10.51
8.25
6.13
3.85
1.08
-2.4
-6.6
-11.3
-16.1
-20.64
-24.66
-28.15
-31.35
-34.69
-38.77
-44.09
-50.84
-58.67
-66.54
-72.79
-75.57
-73.44
-65.94
-53.85
-38.99
-23.66
-9.9
1.08
9.02
14.4
18.01
20.56
22.53
24.16
25.59
27.0
28.53
30.31
32.32
34.41
36.35
37.94
39.05
39.68
39.95
39.92
39.68
39.14
38.18
36.7
34.66
32.21
29.54
26.91
24.45
22.12
19.77
17.22
14.4
11.43
8.5
5.81
3.41
1.15
-1.21
-3.87
-6.95
-10.46
-14.3
-18.33
-22.38
-26.25
-29.85
-33.26
-36.85
-41.17
-46.65
-53.25
-60.23
-66.2
-69.5
-68.73
-63.29
-53.54
-40.72
-26.62
-13.01
-1.34
7.63
13.8
17.6
19.67
20.63
20.91
20.8
20.55
20.49
21.03
22.47
24.86
27.88
30.97
33.52
35.13
35.71
35.47
34.74
33.79
32.73
31.47
29.83
27.67
24.96
21.9
18.8
15.99
13.69
11.88
10.36
8.78
6.85
4.35
1.22
-2.41
-6.3
-10.14
-13.66
-16.77
-19.6
-22.58
-26.26
-31.18
-37.58
-45.22
-53.27
-60.36
-64.9
-65.48
-61.35
-52.73
-40.79
-27.32
-14.18
-2.82
6.08
12.51
16.87
19.69
21.37
22.22
22.46
22.35
22.25
22.46
23.21
24.58
26.5
28.77
31.14
33.36
35.25
36.66
37.47
37.57
36.84
35.28
33.02
30.27
27.31
24.33
21.36
18.38
15.37
12.44
9.78
7.49
5.47
3.37
0.78
-2.58
-6.63
-11.03
-15.36
-19.34
-22.94
-26.29
-29.61
-33.17
-37.25
-42.21
-48.34
-55.68
-63.67
-71.1
-76.34
-77.73
-74.2
-65.69
-53.21
-38.63
-24.09
-11.4
-1.56
5.38
10.05
13.4
16.16
18.69
20.98
22.93
24.55
25.97
27.41
29.01
30.75
32.51
34.21
35.83
37.4
38.89
40.12
40.82
40.76
39.77
37.91
35.35
32.36
29.23
26.22
23.5
21.12
18.97
16.85
14.58
12.08
9.38
6.56
3.6
0.44
-3.02
-6.74
-10.54
-14.11
-17.23
-19.95
-22.52
-25.46
-29.27
-34.36
-40.9
-48.7
-57.07
-64.83
-70.42
-72.33
-69.57
-62.08
-50.89
-37.72
-24.5
-12.76
-3.28
3.85
9.08
12.98
16.05
18.57
20.67
22.46
24.08
25.67
27.38
29.27
31.23
33.07
34.59
35.71
36.5
37.06
37.47
37.65
37.42
36.57
35.0
32.8
30.16
27.33
24.51
21.8
19.21
16.73
14.31
11.98
9.76
7.61
5.42
3.0
0.14
-3.19
-6.91
-10.73
-14.31
-17.46
-20.24
-22.93
-25.98
-29.79
-34.62
-40.58
-47.5
-54.84
-61.64
-66.57
-68.24
-65.63
-58.53
-47.67
-34.57
-21.03
-8.71
1.31
8.63
13.38
16.06
17.26
17.55
17.4
17.15
17.06
17.36
18.27
19.87
22.1
24.68
27.19
29.25
30.61
31.28
31.41
31.23
30.84
30.19
29.13
27.41
24.91
21.66
17.95
14.15
10.7
7.88
5.67
3.78
1.76
-0.8
-4.02
-7.73
-11.54
-15.02
-18.01
-20.61
-23.14
-26.04
-29.63
-34.19
-39.87
-46.61
-53.95
-60.96
-66.25
-68.28
-65.89
-58.84
-47.94
-34.87
-21.59
-9.75
-0.27
6.71
11.58
14.9
17.16
18.65
19.61
20.2
20.69
21.41
22.66
24.57
27.07
29.88
32.57
34.75
36.17
36.74
36.55
35.8
34.71
33.4
31.92
30.17
28.0
25.28
22.05
18.54
15.11
12.09
9.61
7.58
5.73
3.75
1.43
-1.3
-4.34
-7.6
-10.92
-14.21
-17.43
-20.58
-23.73
-27.08
-30.94
-35.68
-41.58
-48.67
-56.47
-63.93
-69.55
-71.78
-69.5
-62.51
-51.63
-38.5
-25.02
-12.81
-2.83
4.72
10.15
14.04
16.96
19.36
21.53
23.62
25.65
27.62
29.49
31.26
32.97
34.63
36.24
37.67
38.81
39.53
39.8
39.65
39.17
38.41
37.34
35.89
33.98
31.57
28.72
25.54
22.24
18.99
15.94
13.17
10.7
8.45
6.24
3.89
1.2
-1.92
-5.45
-9.23
-13.06
-16.73
-20.16
-23.38
-26.55
-30.0
-34.12
-39.24
-45.43
-52.3
-58.96
-64.12
-66.39
-64.78
-59.01
-49.68
-38.06
-25.74
-14.17
-4.33
3.43
9.24
13.52
16.72
19.15
20.96
22.25
23.19
24.03
25.11
26.68
28.78
31.22
33.65
35.7
37.11
37.81
37.87
37.49
36.76
35.68
34.14
31.98
29.15
25.79
22.25
18.94
16.2
14.11
12.49
10.97
9.19
6.95
4.22
1.11
-2.17
-5.41
-8.46
-11.22
-13.7
-16.02
-18.48
-21.45
-25.31
-30.33
-36.43
-43.11
-49.37
-53.92
-55.47
-53.16
-46.89
-37.4
-26.09
-14.55
-4.11
4.48
11.02
15.74
18.96
20.98
22.03
22.32
22.12
21.79
21.68
22.03
23.01
24.62
26.76
29.24
31.75
33.95
35.52
36.23
36.02
34.96
33.2
30.89
28.1
24.86
21.24
17.4
13.66
10.39
7.89
6.26
5.3
4.59
3.54
1.69
-1.16
-4.82
-8.83
-12.68
-16.04
-18.9
-21.56
-24.43
-27.91
-32.29
-37.7
-44.14
-51.29
-58.43
-64.36
-67.63
-66.95
-61.71
-52.35
-40.18
-27.12
-14.98
-4.99
2.42
7.56
11.12
13.8
16.07
18.15
20.03
21.68
23.16
24.62
26.24
28.09
30.07
31.9
33.36
34.31
34.82
35.12
35.32
35.39
35.07
34.04
32.09
29.31
26.04
22.79
19.95
17.69
15.93
14.4
12.87
11.19
9.4
7.6
5.87
4.18
2.31
0.01
-2.95
-6.61
-10.79
-15.08
-19.0
-22.27
-24.89
-27.22
-29.91
-33.65
-38.96
-45.95
-54.1
-62.31
-69.04
-72.69
-72.08
-66.76
-57.25
-44.88
-31.4
-18.5
-7.43
1.24
7.53
11.88
14.9
17.11
18.93
20.57
22.12
23.62
25.12
26.7
28.41
30.21
31.99
33.6
34.89
35.79
36.28
36.36
36.03
35.27
34.04
32.35
30.29
28.04
25.77
23.69
21.86
20.21
18.57
16.71
14.53
11.99
9.24
6.42
3.58
0.67
-2.41
-5.72
-9.21
-12.72
-16.08
-19.26
-22.33
-25.46
-28.88
-32.79
-37.36
-42.78
-49.05
-55.86
-62.43
-67.52
-69.75
-68.03
-61.94
-51.99
-39.49
-26.15
-13.65
-3.19
4.75
10.28
13.99
16.5
18.28
19.51
20.18
20.35
20.2
20.16
20.65
21.95
23.97
26.32
28.52
30.23
31.34
31.97
32.29
32.36
32.08
31.24
29.63
27.16
23.98
20.41
16.94
14.0
11.76
10.19
8.96
7.66
5.93
3.56
0.54
-2.97
-6.75
-10.53
-14.08
-17.26
-20.07
-22.74
-25.6
-29.1
-33.61
-39.31
-46.08
-53.33
-60.01
-64.71
-66.02
-62.95
-55.37
-44.18
-31.07
-17.96
-6.48
2.51
8.91
13.16
15.8
17.31
18.07
18.43
18.77
19.45
20.66
22.39
24.45
26.55
28.49
30.16
31.55
32.63
33.35
33.63
33.41
32.62
31.25
29.33
26.92
24.12
21.06
17.9
14.79
11.9
9.38
7.32
5.74
4.47
3.23
1.61
-0.7
-3.8
-7.63
-11.85
-16.16
-20.28
-24.07
-27.5
-30.62
-33.65
-36.95
-41.05
-46.39
-53.13
-60.88
-68.53
-74.48
-77.03
-74.88
-67.73
-56.38
-42.58
-28.5
-16.05
-6.37
0.33
4.62
7.46
9.7
11.87
14.19
16.64
19.22
21.9
24.7
27.53
30.24
32.62
34.52
35.89
36.84
37.48
37.94
38.22
38.22
37.72
36.51
34.52
31.88
28.89
25.97
23.4
21.23
19.27
17.2
14.81
12.09
9.27
6.68
4.5
2.72
1.05
-0.92
-3.52
-6.86
-10.79
-14.96
-18.99
-22.66
-25.98
-29.23
-32.82
-37.19
-42.67
-49.32
-56.75
-64.14
-70.18
-73.4
-72.52
-66.97
-57.17
-44.46
-30.76
-17.94
-7.29
0.72
6.38
10.34
13.25
15.57
17.5
19.14
20.59
22.01
23.6
25.48
27.6
29.79
31.82
33.49
34.72
35.6
36.23
36.71
36.98
36.85
36.09
34.58
32.44
29.97
27.53
25.37
23.51
21.75
19.91
17.82
15.57
13.28
11.08
8.99
6.87
4.51
1.69
-1.66
-5.53
-9.73
-13.96
-17.91
-21.32
-24.11
-26.48
-28.85
-31.78
-35.77
-41.12
-47.72
-54.96
-61.67
-66.34
-67.47
-64.08
-56.11
-44.51
-30.99
-17.51
-5.67
3.64
10.28
14.61
17.25
18.77
19.64
20.18
20.62
21.15
21.93
23.09
24.73
26.84
29.28
31.75
33.94
35.59
36.6
37.05
37.11
36.82
36.09
34.66
32.32
29.05
25.1
20.97
17.24
14.33
12.35
11.07
10.08
8.86
7.0
4.28
0.72
-3.4
-7.72
-11.83
-15.5
-18.71
-21.66
-24.68
-28.14
-32.33
-37.47
-43.53
-50.18
-56.61
-61.6
-63.75
-61.91
-55.65
-45.53
-32.98
-19.78
-7.62
2.45
10.09
15.53
19.25
21.73
23.3
24.19
24.63
24.91
25.33
26.15
27.43
29.03
30.72
32.24
33.47
34.43
35.18
35.68
35.85
35.48
34.46
32.81
30.74
28.5
26.31
24.21
22.13
19.93
17.54
15.0
12.47
10.12
7.97
5.93
3.71
1.02
-2.3
-6.19
-10.41
-14.61
-18.5
-22.01
-25.22
-28.37
-31.76
-35.71
-40.57
-46.51
-53.42
-60.69
-67.21
-71.51
-72.26
-68.62
-60.65
-49.31
-36.18
-23.0
-11.21
-1.67
5.46
10.47
13.91
16.34
18.14
19.64
21.0
22.37
23.86
25.54
27.4
29.34
31.26
33.05
34.7
36.22
37.58
38.74
39.58
39.92
39.62
38.59
36.83
34.46
31.73
28.92
26.29
23.95
21.87
19.88
17.81
15.56
13.17
10.78
8.48
6.23
3.81
0.93
-2.61
-6.79
-11.39
-16.02
-20.32
-24.12
-27.44
-30.47
-33.54
-37.05
-41.41
-46.9
-53.39
-60.22
-66.15
-69.61
-69.27
-64.54
-55.84
-44.48
-32.24
-20.75
-11.08
-3.57
1.99
6.04
9.07
11.47
13.51
15.39
17.26
19.21
21.29
23.53
25.88
28.22
30.4
32.27
33.72
34.76
35.48
35.94
36.12
35.86
34.93
33.16
30.56
27.36
23.92
20.59
17.56
14.91
12.62
10.68
9.05
7.65
6.27
4.6
2.34
-0.71
-4.46
-8.6
-12.59
-15.98
-18.47
-20.14
-21.42
-22.93
-25.36
-29.22
-34.68
-41.4
-48.58
-54.97
-59.18
-59.95
-56.58
-49.17
-38.7
-26.75
-14.99
-4.77
3.24
8.99
12.88
15.35
16.76
17.38
17.45
17.33
17.37
17.86
18.93
20.49
22.35
24.35
26.38
28.32
30.04
31.33
32.05
32.07
31.43
30.2
28.43
26.09
23.12
19.61
15.79
12.11
9.01
6.81
5.49
4.72
4.02
2.92
1.1
-1.46
-4.6
-8.12
-11.79
-15.56
-19.37
-23.16
-26.81
-30.14
-33.19
-36.27
-40.0
-45.02
-51.59
-59.17
-66.4
-71.42
-72.49
-68.68
-60.12
-48.03
-34.23
-20.58
-8.56
1.03
8.01
12.63
15.4
16.84
17.44
17.65
17.83
18.31
19.29
20.86
22.92
25.26
27.66
29.92
31.97
33.74
35.15
36.09
36.44
36.11
35.1
33.54
31.54
29.24
26.74
24.13
21.5
18.87
16.25
13.59
10.91
8.3
5.92
3.92
2.25
0.69
-1.15
-3.63
-6.92
-10.91
-15.25
-19.5
-23.31
-26.61
-29.63
-32.91
-37.1
-42.7
-49.82
-57.91
-65.81
-71.94
-74.71
-73.04
-66.69
-56.4
-43.62
-30.12
-17.48
-6.76
1.66
7.89
12.37
15.55
17.84
19.58
21.08
22.58
24.23
26.07
27.98
29.84
31.55
33.15
34.74
36.39
38.07
39.58
40.68
41.14
40.86
39.83
38.16
36.01
33.51
30.83
28.12
25.49
23.01
20.7
18.5
16.32
14.04
11.59
9.01
6.39
3.81
1.21
-1.56
-4.78
-8.63
-13.09
-17.89
-22.62
-26.94
-30.81
-34.52
-38.56
-43.42
-49.3
-55.99
-62.78
-68.53
-71.88
-71.63
-67.05
-58.28
-46.29
-32.74
-19.47
-7.95
1.06
7.49
11.75
14.4
16.01
17.02
17.8
18.68
19.88
21.53
23.6
26.0
28.56
31.11
33.46
35.4
36.75
37.4
37.35
36.72
35.67
34.34
32.79
31.05
29.08
26.9
24.55
22.07
19.58
17.13
14.82
12.69
10.7
8.69
6.45
3.74
0.45
-3.42
-7.7
-12.12
-16.39
-20.29
-23.82
-27.22
-30.97
-35.57
-41.4
-48.36
-55.74
-62.24
-66.31
-66.58
-62.38
-53.91
-42.26
-29.02
-15.87
-4.14
5.42
12.63
17.7
20.97
22.78
23.4
23.12
22.34
21.6
21.41
22.16
23.95
26.57
29.58
32.52
34.98
36.76
37.8
38.1
37.7
36.65
35.01
32.87
30.32
27.48
24.45
21.37
18.35
15.53
12.96
10.62
8.36
5.96
3.19
-0.12
-3.98
-8.28
-12.75
-17.11
-21.14
-24.79
-28.17
-31.6
-35.48
-40.25
-46.25
-53.47
-61.46
-69.08
-74.74
-76.74
-73.92
-66.07
-54.13
-39.87
-25.3
-12.07
-1.09
7.42
13.73
18.27
21.45
23.61
25.05
26.07
26.98
28.04
29.4
31.12
33.1
35.14
36.98
38.4
39.3
39.69
39.66
39.29
38.62
37.64
36.33
34.67
32.67
30.32
27.6
24.49
21.15
17.79
14.66
11.94
9.6
7.44
5.11
2.33
-1.04
-4.94
-9.14
-13.34
-17.31
-20.96
-24.43
-27.97
-31.94
-36.63
-42.3
-48.98
-56.39
-63.79
-70.02
-73.59
-73.19
-68.12
-58.66
-46.06
-32.09
-18.54
-6.63
3.06
10.56
16.18
20.23
23.03
24.84
26.02
26.93
27.9
29.09
30.49
31.96
33.34
34.55
35.59
36.54
37.46
38.38
39.16
39.61
39.5
38.64
37.03
34.8
32.19
29.44
26.77
24.23
21.85
19.57
17.3
14.96
12.45
9.72
6.73
3.52
0.12
-3.41
-7.01
-10.66
-14.25
-17.67
-20.83
-23.82
-26.91
-30.59
-35.31
-41.33
-48.41
-55.76
-62.12
-65.99
-66.15
-61.97
-53.71
-42.47
-29.85
-17.51
-6.68
2.02
8.56
13.25
16.44
18.43
19.38
19.56
19.34
19.2
19.62
20.86
22.98
25.76
28.86
31.88
34.47
36.37
37.47
37.76
37.33
36.28
34.68
32.56
29.91
26.8
23.42
20.01
16.85
14.09
11.75
9.6
7.38
4.8
1.72
-1.8
-5.52
-9.16
-12.48
-15.45
-18.25
-21.17
-24.5
-28.5
-33.38
-39.26
-46.08
-53.4
-60.24
-65.22
-66.89
-64.3
-57.45
-47.33
-35.51
-23.53
-12.47
-2.75
5.63
12.72
18.55
22.99
26.03
27.85
28.86
29.54
30.3
31.41
32.88
34.64
36.5
38.28
39.8
40.96
41.68
41.87
41.46
40.34
38.51
36.05
33.12
29.9
26.53
23.1
19.68
16.39
13.36
10.71
8.45
6.44
4.37
1.9
-1.28
-5.27
-9.94
-14.95
-19.86
-24.28
-28.05
-31.38
-34.79
-38.96
-44.51
-51.68
-60.05
-68.55
-75.58
-79.41
-78.62
-72.69
-62.13
-48.42
-33.58
-19.55
-7.7
1.38
7.85
12.33
15.52
17.98
20.08
22.03
23.97
26.06
28.38
30.93
33.57
36.05
38.07
39.46
40.14
40.24
40.0
39.63
39.24
38.77
38.06
36.82
34.86
32.14
28.77
25.04
21.3
17.88
15.0
12.71
10.92
9.35
7.65
5.47
2.52
-1.31
-5.9
-10.98
-16.16
-21.11
-25.54
-29.41
-32.94
-36.61
-41.03
-46.74
-53.81
-61.73
-69.24
-74.7
-76.5
-73.65
-66.09
-54.74
-41.23
-27.44
-14.95
-4.74
2.96
8.45
12.4
15.44
18.01
20.33
22.45
24.43
26.34
28.4
30.72
33.33
36.07
38.63
40.64
41.87
42.24
41.85
40.96
39.81
38.55
37.18
35.52
33.35
30.53
27.13
23.41
19.8
16.63
14.06
12.0
10.19
8.21
5.73
2.54
-1.36
-5.74
-10.25
-14.5
-18.3
-21.71
-25.04
-28.75
-33.29
-38.94
-45.68
-53.1
-60.36
-66.18
-69.12
-67.91
-61.98
-51.75
-38.63
-24.56
-11.39
-0.34
8.18
14.39
18.73
21.6
23.26
23.88
23.78
23.4
23.29
23.93
25.52
27.96
30.88
33.77
36.12
37.63
38.26
38.19
37.69
36.93
35.89
34.39
32.2
29.23
25.67
21.88
18.32
15.34
12.99
11.06
9.08
6.6
3.31
-0.84
-5.58
-10.49
-15.1
-19.14
-22.56
-25.6
-28.67
-32.24
-36.74
-42.46
-49.41
-57.18
-64.83
-70.97
-74.04
-72.81
-66.83
-56.65
-43.66
-29.68
-16.39
-4.91
4.37
11.52
16.88
20.75
23.4
25.03
25.98
26.69
27.65
29.22
31.48
34.23
37.07
39.52
41.29
42.3
42.65
42.54
42.07
41.25
40.01
38.31
36.16
33.63
30.82
27.76
24.43
20.85
17.16
13.59
10.4
7.74
5.52
3.47
1.2
-1.63
-5.11
-9.2
-13.67
-18.28
-22.77
-27.02
-31.02
-34.89
-38.95
-43.59
-49.22
-55.97
-63.49
-70.81
-76.44
-78.8
-76.67
-69.72
-58.64
-44.99
-30.68
-17.37
-6.13
2.73
9.43
14.42
18.12
20.86
22.89
24.5
25.99
27.6
29.48
31.61
33.86
36.08
38.16
40.0
41.58
42.88
43.88
44.49
44.62
44.15
42.94
41.0
38.42
35.48
32.46
29.56
26.84
24.22
21.62
18.98
16.37
13.86
11.52
9.35
7.28
5.16
2.77
-0.23
-4.13
-9.02
-14.72
-20.69
-26.25
-30.89
-34.53
-37.57
-40.71
-44.71
-50.02
-56.68
-64.21
-71.59
-77.4
-80.09
-78.39
-71.74
-60.66
-46.61
-31.58
-17.46
-5.56
3.61
10.17
14.64
17.66
19.8
21.52
23.17
24.96
26.97
29.18
31.48
33.76
35.85
37.58
38.85
39.67
40.16
40.47
40.72
40.81
40.52
39.57
37.82
35.36
32.49
29.57
26.89
24.51
22.33
20.14
17.73
15.02
12.08
9.14
6.43
4.06
1.88
-0.53
-3.62
-7.66
-12.54
-17.74
-22.6
-26.55
-29.47
-31.64
-33.71
-36.38
-40.25
-45.64
-52.38
-59.83
-66.79
-71.72
-73.11
-69.97
-62.15
-50.51
-36.64
-22.35
-9.24
1.67
9.97
15.79
19.5
21.56
22.38
22.36
21.94
21.57
21.68
22.63
24.53
27.22
30.35
33.47
36.2
38.3
39.64
40.2
39.95
38.89
37.04
34.54
31.59
28.46
25.39
22.52
19.9
17.43
14.98
12.43
9.79
7.16
4.66
2.37
0.19
-2.16
-4.99
-8.54
-12.76
-17.38
-21.93
-26.06
-29.57
-32.64
-35.71
-39.39
-44.28
-50.75
-58.67
-67.22
-74.97
-80.05
-80.82
-76.32
-66.72
-53.27
-37.95
-22.79
-9.46
1.14
8.8
13.82
16.81
18.45
19.39
20.17
21.19
22.71
24.79
27.34
30.15
32.97
35.54
37.7
39.38
40.59
41.38
41.72
41.57
40.83
39.46
37.47
34.93
31.99
28.84
25.7
22.78
20.18
17.86
15.61
13.21
10.53
7.67
4.83
2.18
-0.27
-2.77
-5.64
-9.11
-13.21
-17.71
-22.28
-26.6
-30.48
-33.95
-37.24
-40.88
-45.49
-51.63
-59.37
-68.06
-76.23
-81.93
-83.33
-79.4
-70.25
-57.17
-42.11
-27.11
-13.77
-2.94
5.24
11.1
15.19
18.08
20.24
22.08
23.91
25.88
28.06
30.35
32.61
34.73
36.61
38.17
39.43
40.44
41.24
41.89
42.37
42.52
42.07
40.67
38.12
34.55
30.44
26.5
23.31
21.13
19.69
18.4
16.66
14.2
11.17
7.99
5.08
2.59
0.34
-2.13
-5.25
-9.22
-13.88
-18.82
-23.55
-27.68
-31.18
-34.3
-37.59
-41.62
-46.84
-53.39
-60.95
-68.72
-75.43
-79.57
-79.71
-75.01
-65.53
-52.38
-37.43
-22.79
-10.19
-0.52
6.17
10.52
13.37
15.41
17.03
18.35
19.43
20.3
21.08
21.99
23.26
25.02
27.28
29.87
32.52
34.87
36.66
37.77
38.21
38.01
37.16
35.59
33.25
30.18
26.62
22.98
19.68
17.0
14.96
13.38
11.94
10.3
8.25
5.66
2.55
-1.03
-4.95
-9.06
-13.19
-17.14
-20.8
-24.14
-27.28
-30.55
-34.46
-39.58
-46.16
-53.98
-62.03
-68.72
-72.25
-71.18
-64.96
-54.19
-40.41
-25.7
-11.97
-0.49
8.28
14.58
18.94
21.85
23.61
24.36
24.29
23.79
23.41
23.68
24.87
26.98
29.68
32.57
35.33
37.72
39.59
40.8
41.22
40.76
39.46
37.41
34.73
31.54
27.96
24.1
20.14
16.34
12.94
10.07
7.73
5.73
3.77
1.46
-1.55
-5.45
-10.14
-15.29
-20.4
-24.98
-28.8
-31.95
-34.81
-37.91
-41.73
-46.68
-52.93
-60.25
-67.9
-74.58
-78.61
-78.38
-72.95
-62.49
-48.29
-32.47
-17.23
-4.36
5.27
11.65
15.48
17.71
19.2
20.51
21.84
23.23
24.69
26.33
28.35
30.82
33.62
36.36
38.64
40.19
41.05
41.46
41.67
41.69
41.33
40.26
38.34
35.6
32.28
28.66
24.97
21.27
17.63
14.12
10.86
7.95
5.43
3.14
0.8
-1.93
-5.35
-9.52
-14.25
-19.1
-23.63
-27.51
-30.75
-33.69
-36.9
-41.03
-46.57
-53.73
-62.15
-70.84
-78.2
-82.31
-81.49
-74.96
-63.19
-47.9
-31.5
-16.26
-3.67
5.78
12.43
16.98
20.11
22.34
24.01
25.39
26.75
28.32
30.21
32.41
34.81
37.2
39.37
41.13
42.36
43.07
43.41
43.54
43.59
43.46
42.91
41.59
39.28
35.98
31.94
27.54
23.19
19.18
15.69
12.76
10.32
8.19
6.14
3.87
1.17
-2.09
-5.92
-10.16
-14.6
-18.98
-23.09
-26.86
-30.42
-34.1
-38.37
-43.74
-50.44
-58.22
-66.19
-72.86
-76.47
-75.52
-69.29
-58.22
-43.8
-28.18
-13.47
-1.18
8.05
14.4
18.47
20.96
22.35
22.98
23.15
23.17
23.44
24.32
26.03
28.59
31.76
35.08
38.02
40.11
41.07
40.97
40.14
39.01
37.83
36.54
34.82
32.33
28.93
24.92
20.88
17.39
14.71
12.66
10.72
8.3
5.04
1.0
-3.46
-7.86
-11.8
-15.17
-18.16
-21.16
-24.65
-29.09
-34.78
-41.72
-49.56
-57.44
-64.07
-67.92
-67.66
-62.63
-53.13
-40.49
-26.55
-13.2
-1.7
7.43
14.3
19.28
22.68
24.68
25.42
25.25
24.7
24.41
24.89
26.41
28.86
31.93
35.18
38.14
40.43
41.76
42.07
41.46
40.19
38.53
36.62
34.37
31.6
28.18
24.16
19.86
15.74
12.21
9.41
7.16
5.04
2.56
-0.6
-4.47
-8.78
-13.11
-17.1
-20.63
-23.89
-27.27
-31.22
-36.13
-42.27
-49.69
-58.15
-66.9
-74.67
-79.78
-80.6
-76.18
-66.67
-53.36
-38.24
-23.38
-10.23
0.51
8.85
15.16
19.86
23.33
25.83
27.65
29.06
30.34
31.72
33.36
35.32
37.54
39.81
41.9
43.52
44.52
44.86
44.66
44.09
43.26
42.18
40.79
38.98
36.68
33.87
30.6
26.99
23.26
19.66
16.4
13.58
11.11
8.73
6.1
2.94
-0.86
-5.26
-10.06
-14.99
-19.8
-24.36
