0
-37.57
-33.72
-32.83
-34.7
-38.83
-44.25
-49.35
-51.99
-50.0
-41.93
-27.79
-9.05
11.85
32.4
50.82
66.38
79.08
89.1
96.4
100.67
101.57
99.17
94.05
87.29
80.11
73.53
68.13
64.01
60.78
57.91
54.85
51.26
47.07
42.38
37.33
31.97
26.23
20.0
13.08
5.33
-3.39
-13.16
-23.84
-34.91
-45.23
-53.17
-56.94
-55.13
-47.32
-34.31
-17.98
-0.72
15.26
28.45
38.19
44.45
47.45
47.43
44.63
39.52
32.89
25.87
19.67
15.2
12.84
12.32
12.86
13.53
13.49
12.33
10.05
7.0
3.71
0.56
-2.32
-5.17
-8.46
-12.74
-18.45
-25.75
-34.45
-43.86
-52.83
-59.8
-63.1
-61.36
-54.0
-41.57
-25.68
-8.56
7.62
21.21
31.35
37.84
40.82
40.47
37.12
31.29
23.95
16.44
10.14
6.14
4.78
5.58
7.47
9.24
9.99
9.36
7.57
5.18
2.67
0.31
-2.0
-4.59
-7.87
-12.18
-17.74
-24.64
-32.68
-41.29
-49.33
-55.22
-57.3
-54.34
-46.06
-33.33
-17.9
-1.91
12.8
24.94
33.86
39.28
41.09
39.35
34.38
26.98
18.44
10.32
3.97
0.14
-1.22
-0.88
0.01
0.37
-0.42
-2.37
-5.06
-7.95
-10.72
-13.39
-16.3
-19.9
-24.59
-30.57
-37.82
-45.96
-54.19
-61.18
-65.33
-65.16
-59.8
-49.38
-35.09
-18.79
-2.51
12.04
23.71
31.84
36.15
36.68
33.74
28.13
21.03
13.91
8.13
4.54
3.23
3.53
4.34
4.54
3.45
1.0
-2.39
-6.07
-9.59
-12.88
-16.23
-20.17
-25.26
-31.88
-39.98
-48.95
-57.52
-63.86
-66.04
-62.62
-53.25
-38.9
-21.56
-3.72
12.49
25.69
35.24
41.02
43.05
41.46
36.65
29.5
21.45
14.09
8.69
5.74
4.84
5.0
5.11
4.43
2.81
0.57
-1.81
-4.02
-6.12
-8.54
-11.9
-16.88
-23.91
-33.0
-43.48
-53.94
-62.39
-66.68
-65.12
-57.06
-43.18
-25.35
-6.05
12.31
27.96
39.96
48.03
52.27
52.89
50.26
45.0
38.13
30.94
24.72
20.34
17.93
16.88
16.15
14.69
11.96
8.03
3.51
-0.85
-4.56
-7.65
-10.67
-14.49
-19.96
-27.57
-37.2
-47.92
-58.09
-65.54
-68.13
-64.33
-53.77
-37.51
-17.74
2.75
21.42
36.58
47.54
54.44
57.81
58.12
55.73
50.94
44.32
36.82
29.7
24.1
20.63
19.15
18.74
18.24
16.65
13.63
9.48
4.9
0.58
-3.15
-6.47
-9.9
-14.09
-19.61
-26.77
-35.58
-45.54
-55.56
-63.9
-68.47
-67.42
-59.74
-45.78
-27.26
-6.76
13.0
29.93
42.88
51.62
56.47
57.96
56.62
53.02
47.83
41.87
36.06
31.15
27.62
25.52
24.52
24.0
23.27
21.74
19.09
15.32
10.76
5.85
1.01
-3.57
-7.98
-12.51
-17.54
-23.34
-30.14
-38.0
-46.85
-56.25
-65.21
-72.07
-74.85
-71.8
-62.14
-46.49
-26.87
-6.06
13.23
29.1
40.71
48.18
52.05
52.95
51.47
48.16
43.71
38.98
34.79
31.71
29.87
28.96
28.45
27.78
26.68
25.13
23.2
20.96
18.26
14.82
10.37
4.84
-1.53
-8.22
-14.64
-20.31
-25.06
-29.13
-33.12
-37.8
-43.87
-51.57
-60.35
-68.72
-74.49
-75.37
-69.82
-57.67
-40.37
-20.47
-0.83
16.25
29.54
38.88
44.75
47.74
48.26
46.61
43.15
38.58
33.93
30.33
28.55
28.7
30.2
32.0
33.02
32.64
30.87
28.24
25.38
22.72
20.22
17.43
13.79
9.0
3.1
-3.48
-10.12
-16.25
-21.56
-26.0
-29.78
-33.28
-36.99
-41.38
-46.85
-53.53
-61.08
-68.5
-74.17
-76.2
-72.96
-63.73
-49.08
-30.74
-11.2
7.15
22.53
34.12
41.84
46.11
47.43
46.26
43.15
38.74
33.92
29.63
26.72
25.63
26.26
28.03
30.06
31.51
31.81
30.85
28.9
26.41
23.76
21.07
18.18
14.79
10.6
5.53
-0.29
-6.5
-12.66
-18.43
-23.53
-27.88
-31.55
-34.75
-37.84
-41.27
-45.57
-51.1
-57.79
-64.93
-71.08
-74.34
-72.97
-65.99
-53.66
-37.43
-19.53
-2.25
12.72
24.45
32.75
37.78
39.76
38.95
35.83
31.19
26.18
22.07
19.77
19.58
21.11
23.47
25.64
26.91
27.01
26.13
24.72
23.15
21.5
19.58
16.98
13.35
8.6
3.0
-2.9
-8.5
-13.33
-17.24
-20.39
-23.19
-26.14
-29.8
-34.63
-40.89
-48.38
-56.28
-63.06
-66.8
-65.69
-58.75
-46.25
-29.68
-11.35
6.29
21.28
32.44
39.39
42.26
41.56
38.01
32.53
26.18
20.05
15.06
11.67
9.9
9.35
9.42
9.61
9.66
9.52
9.26
8.83
7.99
6.38
3.69
-0.12
-4.73
-9.59
-14.12
-18.02
-21.32
-24.43
-27.92
-32.41
-38.27
-45.45
-53.3
-60.45
-65.04
-65.18
-59.64
-48.35
-32.61
-14.69
2.88
18.02
29.61
37.38
41.65
42.86
41.42
37.7
32.23
25.82
19.47
14.15
10.51
8.73
8.5
9.21
10.12
10.59
10.16
8.63
6.01
2.53
-1.54
-5.92
-10.41
-14.97
-19.62
-24.46
-29.69
-35.59
-42.55
-50.74
-59.8
-68.54
-74.94
-76.72
-72.1
-60.63
-43.46
-23.09
-2.51
15.72
30.11
40.31
46.75
50.08
50.77
49.11
45.38
40.08
34.04
28.26
23.63
20.66
19.31
19.13
19.39
19.39
18.58
16.67
13.61
9.54
4.75
-0.4
-5.61
-10.71
-15.68
-20.67
-26.0
-32.1
-39.37
-47.95
-57.45
-66.69
-73.73
-76.31
-72.58
-61.87
-45.11
-24.63
-3.48
15.56
30.66
41.17
47.43
50.13
50.0
47.6
43.42
38.07
32.37
27.27
23.53
21.55
21.15
21.76
22.58
22.88
22.19
20.33
17.4
13.62
9.28
4.63
-0.17
-5.12
-10.35
-16.04
-22.39
-29.64
-37.94
-47.17
-56.72
-65.22
-70.67
-70.93
-64.49
-51.21
-32.59
-11.35
9.39
27.13
40.52
49.43
54.38
56.08
55.06
51.71
46.49
40.16
33.68
28.08
24.09
21.99
21.49
21.95
22.56
22.56
21.44
19.04
15.51
11.21
6.58
1.96
-2.52
-6.93
-11.52
-16.6
-22.49
-29.46
-37.56
-46.37
-54.79
-61.05
-63.11
-59.29
-49.01
-33.17
-13.97
5.77
23.46
37.43
47.09
52.69
54.83
54.15
51.13
46.29
40.31
34.13
28.73
24.95
23.16
23.11
24.05
25.0
25.07
23.74
20.96
17.06
12.51
7.75
3.08
-1.42
-5.83
-10.32
-15.25
-21.01
-28.02
-36.42
-45.73
-54.73
-61.48
-63.9
-60.37
-50.51
-35.35
-17.09
1.62
18.43
31.86
41.38
47.12
49.55
49.13
46.33
41.71
36.02
30.17
25.09
21.48
19.62
19.3
19.9
20.59
20.63
19.55
17.3
14.17
10.63
7.05
3.56
-0.01
-3.98
-8.74
-14.54
-21.54
-29.76
-38.96
-48.41
-56.74
-62.1
-62.57
-56.95
-45.26
-28.98
-10.62
7.09
22.1
33.42
41.03
45.44
47.15
46.47
43.57
38.8
32.89
26.86
21.75
18.27
16.55
16.14
16.18
15.83
14.51
12.11
8.9
5.35
1.91
-1.25
-4.3
-7.63
-11.73
-17.03
-23.69
-31.64
-40.45
-49.28
-56.84
-61.47
-61.52
-55.91
-44.66
-29.05
-11.34
5.91
20.66
31.87
39.47
43.94
45.78
45.24
42.38
37.44
31.12
24.61
19.22
15.9
14.84
15.38
16.39
16.74
15.77
13.47
10.34
7.02
3.91
1.07
-1.86
-5.38
-9.99
-16.0
-23.44
-31.98
-40.87
-48.91
-54.59
-56.39
-53.24
-44.96
-32.36
-17.11
-1.35
13.01
24.58
32.72
37.38
38.84
37.53
33.96
28.77
22.85
17.26
13.01
10.76
10.55
11.8
13.49
14.51
14.17
12.32
9.38
6.0
2.73
-0.26
-3.22
-6.68
-11.25
-17.33
-25.06
-34.1
-43.62
-52.21
-58.08
-59.49
-55.31
-45.5
-31.27
-14.75
1.71
16.25
27.8
36.13
41.45
43.96
43.78
40.96
35.83
29.22
22.4
16.75
13.28
12.23
13.08
14.73
15.96
15.95
14.47
11.77
8.36
4.69
0.98
-2.84
-6.98
-11.76
-17.52
-24.61
-33.23
-43.19
-53.58
-62.76
-68.61
-69.18
-63.35
-51.34
-34.72
-15.94
2.38
18.24
30.55
39.15
44.47
47.05
47.28
45.46
41.95
37.32
32.45
28.25
25.41
24.12
23.99
24.21
23.93
22.51
19.71
15.73
10.96
5.83
0.69
-4.32
-9.22
-14.12
-19.21
-24.71
-30.84
-37.82
-45.69
-54.03
-61.76
-67.22
-68.51
-64.11
-53.62
-37.97
-19.29
-0.28
16.65
29.92
39.03
44.26
46.35
46.07
44.11
41.02
37.31
33.49
30.05
27.33
25.51
24.51
24.04
23.67
23.04
21.85
20.01
17.52
14.48
10.95
6.96
2.56
-2.17
-7.11
-12.2
-17.46
-23.1
-29.47
-36.86
-45.28
-54.07
-61.93
-67.02
-67.53
-62.26
-51.19
-35.6
-17.77
-0.21
14.99
26.74
34.89
39.93
42.58
43.36
42.64
40.72
37.98
34.95
32.17
30.0
28.48
27.37
26.31
25.04
23.5
21.85
20.26
18.73
16.97
14.52
10.94
6.09
0.25
-5.93
-11.72
-16.68
-20.74
-24.37
-28.34
-33.48
-40.35
-48.9
-58.25
-66.68
-72.04
-72.32
-66.39
-54.48
-38.19
-19.96
-2.26
13.06
25.13
33.88
39.64
42.79
43.61
42.43
39.79
36.48
33.36
31.16
30.19
30.28
30.87
31.29
31.01
29.81
27.86
25.54
23.2
20.97
18.6
15.61
11.51
6.06
-0.47
-7.47
-14.15
-19.9
-24.47
-28.07
-31.24
-34.67
-39.05
-44.83
-51.99
-59.89
-67.13
-71.77
-71.89
-66.23
-54.77
-38.87
-20.81
-3.09
12.38
24.62
33.54
39.49
42.87
43.94
42.91
40.13
36.3
32.31
29.05
27.06
26.41
26.7
27.3
27.59
27.18
26.04
24.39
22.53
20.71
18.95
17.09
14.78
11.69
7.64
2.65
-2.97
-8.76
-14.22
-18.96
-22.88
-26.15
-29.16
-32.35
-36.18
-41.02
-47.04
-54.04
-61.25
-67.29
-70.37
-68.86
-61.9
-49.81
-34.06
-16.83
-0.3
13.95
25.13
33.13
38.14
40.43
40.27
38.11
34.65
30.81
27.56
25.58
25.08
25.8
27.18
28.7
30.02
31.08
31.93
32.54
32.7
32.06
30.27
27.24
23.18
18.55
13.86
9.48
5.49
1.73
-2.12
-6.29
-10.86
-15.66
-20.37
-24.66
-28.28
-31.22
-33.69
-36.1
-38.93
-42.62
-47.38
-53.06
-59.02
-64.11
-66.91
-66.02
-60.52
-50.29
-36.17
-19.79
-3.12
12.02
24.35
33.28
38.83
41.36
41.38
39.37
35.96
31.87
28.01
25.19
23.95
24.31
25.78
27.58
29.01
29.76
29.96
29.98
30.13
30.42
30.49
29.84
28.04
25.0
20.97
16.39
11.76
7.5
3.81
0.65
-2.17
-5.03
-8.31
-12.26
-16.84
-21.73
-26.4
-30.38
-33.48
-35.82
-37.81
-40.01
-42.93
-46.91
-51.93
-57.54
-62.7
-65.91
-65.64
-60.82
-51.32
-38.11
-23.01
-8.01
5.29
15.97
23.8
28.88
31.37
31.37
29.13
25.21
20.5
16.14
13.05
11.74
12.13
13.69
15.67
17.39
18.46
18.81
18.61
18.04
17.26
16.22
14.75
12.62
9.6
5.66
0.95
-4.15
-9.16
-13.67
-17.5
-20.75
-23.74
-26.94
-30.72
-35.38
-40.98
-47.31
-53.8
-59.54
-63.29
-63.76
-60.04
-51.97
-40.25
-26.34
-11.97
1.29
12.43
20.97
26.84
30.12
30.96
29.6
26.49
22.35
18.09
14.64
12.6
12.11
12.85
14.14
15.31
15.93
15.87
15.25
14.29
13.12
11.67
9.73
7.09
3.58
-0.71
-5.58
-10.69
-15.73
-20.54
-25.16
-29.84
-34.87
-40.56
-47.1
-54.45
-62.2
-69.49
-75.04
-77.33
-75.09
-67.72
-55.64
-40.21
-23.34
-6.91
7.73
19.85
29.23
35.81
39.54
40.38
38.54
34.68
29.83
25.24
21.91
20.31
20.31
21.31
22.6
23.63
24.23
24.46
24.52
24.42
23.98
22.82
20.51
16.85
11.94
6.17
0.1
-5.74
-11.03
-15.72
-20.01
-24.25
-28.85
-34.23
-40.77
-48.62
-57.47
-66.3
-73.42
-76.73
-74.43
-65.68
-51.06
-32.38
-12.23
6.92
23.33
36.23
45.63
51.9
55.32
56.05
54.25
50.36
45.27
40.19
36.3
34.34
34.37
35.78
37.63
39.08
39.7
39.53
38.87
38.0
36.98
35.58
33.4
30.05
25.3
19.18
12.01
4.38
-3.05
-9.7
-15.34
-20.08
-24.4
-28.89
-34.08
-40.3
-47.61
-55.75
-63.99
-71.04
-75.12
-74.4
-67.56
-54.47
-36.43
-15.83
4.53
22.37
36.49
46.71
53.48
57.35
58.68
57.63
54.52
50.01
45.18
41.17
38.8
38.3
39.23
40.75
42.01
42.48
42.03
40.89
39.41
37.82
36.15
34.16
31.48
27.74
22.72
16.47
9.42
2.2
-4.45
-10.06
-14.53
-18.2
-21.72
-25.7
-30.67
-36.88
-44.23
-52.3
-60.07
-66.02
-68.26
-65.13
-55.84
-40.98
-22.41
-2.76
15.41
30.36
41.38
48.52
52.22
52.87
50.82
46.57
40.94
35.09
30.22
27.2
26.25
26.94
28.38
29.61
30.01
29.44
28.24
26.87
25.63
24.4
22.69
19.81
15.31
9.25
2.21
-4.85
-11.04
-15.84
-19.34
-22.13
-25.07
-28.98
-34.39
-41.42
-49.7
-58.31
-65.81
-70.44
-70.49
-64.83
-53.42
-37.4
-18.93
-0.48
15.85
28.83
38.15
44.13
47.26
47.92
46.38
43.03
38.55
33.95
30.29
28.31
28.13
29.23
30.69
31.63
31.56
30.49
28.79
26.9
25.04
23.05
20.58
17.22
12.72
7.14
0.79
-5.81
-12.13
-17.77
-22.55
-26.59
-30.27
-34.15
-38.83
-44.81
-52.21
-60.55
-68.68
-74.85
-77.09
-73.85
-64.51
-49.73
-31.32
-11.74
6.65
22.13
33.89
41.93
46.68
48.66
48.38
46.33
43.17
39.64
36.5
34.27
33.08
32.72
32.73
32.71
32.43
31.81
30.89
29.6
27.87
25.56
22.62
19.12
15.17
10.9
6.38
1.58
-3.47
-8.69
-13.84
-18.65
-22.89
-26.47
-29.51
-32.32
-35.38
-39.21
-44.26
-50.75
-58.39
-66.23
-72.63
-75.64
-73.51
-65.4
-51.75
-34.21
-15.15
3.09
18.77
31.04
39.79
45.32
48.01
48.23
46.45
43.32
39.7
36.52
34.49
33.88
34.52
35.82
37.09
37.78
37.67
36.92
35.83
34.71
33.65
32.44
30.71
28.09
24.43
19.93
15.04
10.29
6.04
2.4
-0.88
-4.17
-7.83
-11.96
-16.43
-20.93
-25.08
-28.64
-31.56
-34.02
-36.37
-39.13
-42.89
-48.16
-55.11
-63.27
-71.43
-77.73
-80.16
-77.18
-68.32
-54.38
-37.19
-19.01
-1.93
12.63
24.02
32.16
37.27
39.69
39.8
38.1
35.23
31.97
29.03
26.98
26.07
26.28
27.36
28.9
30.52
31.84
32.6
32.61
31.72
29.89
27.17
23.73
19.84
15.8
11.85
8.07
4.38
0.59
-3.47
-7.86
-12.47
-17.05
-21.41
-25.39
-29.03
-32.48
-36.04
-40.09
-45.05
-51.12
-57.98
-64.63
-69.41
-70.49
-66.5
-57.13
-43.32
-26.96
-10.24
5.05
17.79
27.58
34.41
38.46
39.95
39.23
36.89
33.7
30.45
27.79
26.1
25.47
25.8
26.88
28.45
30.17
31.66
32.51
32.37
31.02
28.46
24.86
20.55
15.93
11.33
6.97
2.83
-1.25
-5.51
-10.15
-15.14
-20.24
-25.11
-29.41
-33.05
-36.21
-39.25
-42.74
-47.15
-52.83
-59.73
-67.29
-74.29
-79.0
-79.6
-74.77
-64.22
-48.96
-31.04
-12.87
3.47
16.77
26.71
33.6
37.92
40.06
40.31
39.08
36.96
34.71
33.01
32.23
32.34
33.08
34.09
35.16
36.22
37.22
38.03
38.36
37.84
36.22
33.46
29.8
25.62
21.32
17.09
12.95
8.75
4.28
-0.57
-5.77
-11.13
-16.35
-21.16
-25.38
-29.02
-32.38
-35.95
-40.35
-46.14
-53.47
-61.82
-69.91
-75.82
-77.63
-73.95
-64.51
-50.29
-33.22
-15.6
0.53
13.88
23.94
30.82
34.94
36.74
36.64
35.06
32.45
29.44
26.69
24.78
24.02
24.4
25.52
26.82
27.78
28.15
27.98
27.53
27.04
26.53
25.79
24.43
22.08
18.56
13.95
8.52
2.75
-2.88
-7.96
-12.3
-15.91
-19.11
-22.34
-26.13
-30.92
-36.91
-43.93
-51.3
-57.88
-62.16
-62.66
-58.38
-49.17
-35.92
-20.33
-4.45
9.94
21.65
30.22
35.73
38.52
38.91
37.26
34.0
29.72
25.22
21.28
18.42
16.76
16.0
15.63
15.23
14.67
14.14
13.92
14.07
14.28
13.89
12.2
8.81
3.84
-2.11
-8.23
-13.75
-18.25
-21.71
-24.42
-26.89
-29.74
-33.53
-38.63
-45.01
-51.96
-58.13
-61.74
-61.19
-55.54
-44.96
-30.74
-14.89
0.48
13.69
23.79
30.55
34.26
35.41
34.54
32.23
29.06
25.61
22.46
20.0
18.44
17.68
17.47
17.45
17.32
16.92
16.2
15.15
13.75
11.89
9.44
6.29
2.46
-1.9
-6.49
-11.04
-15.43
-19.8
-24.55
-30.22
-37.16
-45.22
-53.47
-60.37
-64.03
-62.9
-56.3
-44.72
-29.71
-13.43
2.03
15.15
25.21
32.18
36.5
38.72
39.31
38.65
37.07
34.95
32.68
30.63
29.03
27.91
27.14
26.55
25.99
25.38
24.6
23.45
21.61
18.79
14.88
10.02
4.64
-0.73
-5.66
-10.0
-13.94
-17.93
-22.55
-28.34
-35.56
-43.88
-52.28
-59.11
-62.48
-60.86
-53.66
-41.5
-26.07
-9.56
5.96
19.06
29.08
36.0
40.13
41.93
41.85
40.42
38.23
35.89
33.9
32.53
31.75
31.31
30.88
30.21
29.23
28.0
26.67
25.3
23.75
21.77
19.01
15.21
10.36
4.72
-1.23
-6.92
-11.9
-16.04
-19.62
-23.2
-27.48
-32.99
-39.85
-47.54
-54.94
-60.51
-62.64
-60.14
-52.61
-40.68
-25.86
-10.08
4.76
17.33
26.95
33.56
37.45
39.02
38.69
36.91
34.27
31.43
29.04
27.54
27.04
27.28
27.82
28.21
28.19
27.83
27.3
26.74
26.03
24.76
22.45
18.8
13.94
8.39
2.81
-2.23
-6.58
-10.48
-14.42
-18.92
-24.38
-30.96
-38.48
-46.27
-53.19
-57.7
-58.28
-53.96
-44.76
-31.8
-16.96
-2.36
10.37
20.29
27.2
31.38
33.24
33.21
31.68
29.11
26.09
23.25
21.11
19.97
19.81
20.3
21.01
21.52
21.65
21.38
20.78
19.86
18.52
16.49
13.53
9.58
4.78
-0.46
-5.69
-10.59
-15.03
-19.19
-23.51
-28.51
-34.48
-41.26
-47.96
-53.12
-55.02
-52.32
-44.59
-32.57
-17.98
-2.97
10.52
21.2
28.61
32.88
34.48
33.94
31.74
28.43
24.6
20.88
17.85
15.89
15.09
15.28
16.08
17.08
17.91
18.29
18.02
16.93
14.87
11.76
7.68
2.92
-2.09
-6.86
-11.09
-14.73
-17.99
-21.3
-25.16
-30.02
-36.11
-43.18
-50.41
-56.38
-59.4
-58.02
-51.6
-40.66
-26.79
-12.08
1.49
12.71
21.17
27.08
30.88
32.91
33.36
32.43
30.52
28.23
26.18
24.81
24.16
23.94
23.71
23.14
22.18
20.99
19.84
18.83
17.81
16.38
14.1
10.7
6.21
0.95
-4.5
-9.58
-13.87
-17.28
-20.13
-23.08
-26.99
-32.53
-39.83
-48.22
-56.27
-62.1
-63.99
-60.89
-52.86
-40.97
-26.94
-12.62
0.46
11.36
19.73
25.64
29.37
31.22
31.52
30.57
28.81
26.82
25.24
24.62
25.16
26.65
28.49
29.93
30.38
29.65
27.94
25.74
23.55
21.61
19.86
17.98
15.56
12.27
8.07
3.2
-1.87
-6.65
-10.79
-14.25
-17.32
-20.53
-24.5
-29.73
-36.44
-44.34
-52.54
-59.54
-63.56
-63.11
-57.45
-47.03
-33.28
-18.25
-3.86
8.49
18.23
25.35
30.18
33.02
34.07
33.49
31.53
28.68
25.71
23.4
22.35
22.77
24.37
26.43
28.1
28.76
28.24
26.81
24.99
23.24
21.68
20.09
18.04
15.21
11.5
7.14
2.52
-1.95
-6.04
-9.73
-13.15
-16.46
-19.83
-23.43
-27.47
-32.23
-37.95
-44.55
-51.41
-57.31
-60.65
-59.99
-54.58
-44.73
-31.72
-17.45
-3.79
7.9
17.04
23.58
27.82
30.06
30.5
29.33
26.85
23.65
20.51
18.22
17.28
17.69
19.03
20.58
21.71
22.14
22.01
21.64
21.3
20.97
20.29
18.76
16.02
12.02
7.09
1.75
-3.46
-8.16
-12.25
-15.84
-19.23
-22.79
-26.91
-31.91
-37.9
-44.66
-51.45
-57.06
-60.03
-59.12
-53.75
-44.3
-31.98
-18.46
-5.36
6.17
15.56
22.67
27.56
30.29
30.94
29.72
27.09
23.78
20.65
18.43
17.62
18.22
19.81
21.68
23.05
23.46
22.8
21.44
19.85
18.41
17.12
15.56
13.16
9.48
4.52
-1.27
-7.13
-12.32
-16.51
-19.74
-22.46
-25.34
-29.01
-33.91
-40.08
-47.03
-53.68
-58.56
-60.1
-57.26
-49.8
-38.54
-25.04
-11.07
1.88
12.92
21.73
28.31
32.69
34.86
34.87
32.98
29.77
26.08
22.79
20.57
19.73
20.09
21.18
22.36
23.08
23.01
22.13
20.65
18.89
17.05
15.16
12.98
10.19
6.52
1.96
-3.18
-8.38
-13.06
-16.87
-19.74
-21.98
-24.1
-26.68
-30.23
-35.1
-41.39
-48.82
-56.53
-63.15
-67.03
-66.68
-61.33
-51.22
-37.64
-22.45
-7.54
5.68
16.52
24.86
30.85
34.71
36.56
36.58
35.13
32.86
30.5
28.78
28.11
28.53
29.68
31.04
32.14
32.65
32.57
32.05
31.28
30.32
29.0
26.98
23.88
19.54
14.13
8.15
2.23
-3.1
-7.68
-11.73
-15.64
-19.86
-24.67
-30.24
-36.65
-43.86
-51.44
-58.42
-63.31
-64.41
-60.58
-51.66
-38.75
-23.79
-8.84
4.51
15.44
23.77
29.57
32.93
33.93
32.72
29.78
25.86
21.83
18.41
15.98
14.61
14.12
14.21
14.62
15.16
15.69
16.04
16.03
15.43
14.01
11.64
8.33
4.33
0.04
-4.08
-7.66
-10.55
-12.92
-15.31
-18.41
-22.89
-28.96
-36.16
-43.2
-48.28
-49.59
-46.02
-37.53
-25.22
-10.93
3.32
15.91
25.84
32.78
36.77
38.05
36.93
33.81
29.21
23.79
18.31
13.54
10.03
8.1
7.67
8.31
9.36
10.13
10.07
8.96
6.86
4.07
0.88
-2.51
-6.08
-9.87
-13.96
-18.41
-23.25
-28.58
-34.6
-41.37
-48.62
-55.39
-60.18
-61.25
-57.31
-48.06
-34.46
-18.46
-2.37
11.84
22.99
30.77
35.45
37.53
37.49
35.73
32.67
28.85
24.9
21.46
19.03
17.81
17.68
18.21
18.8
18.82
17.91
15.91
12.95
9.32
5.31
1.14
-3.08
-7.34
-11.71
-16.32
-21.44
-27.37
-34.32
-42.2
-50.33
-57.38
-61.58
-61.26
-55.39
-44.1
-28.68
-11.25
5.82
20.58
31.89
39.44
43.56
44.91
44.21
42.09
39.1
35.78
32.6
29.95
28.01
26.79
26.11
25.69
25.23
24.56
23.54
22.04
19.92
17.01
13.19
8.52
3.25
-2.26
-7.66
-12.77
-17.64
-22.58
-28.04
-34.46
-41.94
-50.14
-58.01
-63.94
-66.14
-63.11
-54.35
-40.56
-23.6
-5.9
10.27
23.41
33.01
39.33
42.99
44.58
44.52
43.11
40.74
37.95
35.33
33.35
32.14
31.54
31.17
30.77
30.21
29.59
28.96
28.15
26.82
24.43
20.63
15.45
9.34
3.01
-2.9
-8.06
-12.53
-16.75
-21.29
-26.68
-33.27
-41.03
-49.41
-57.2
-62.71
-64.12
-60.15
-50.58
-36.46
-19.79
-2.89
12.29
24.6
33.72
39.81
43.23
44.29
43.35
40.93
37.77
34.72
32.47
31.32
31.13
31.37
31.45
31.0
29.96
28.56
27.08
25.68
24.17
22.12
19.07
14.79
9.45
3.53
-2.31
-7.58
-12.05
-15.87
-19.46
-23.38
-28.22
-34.34
-41.74
-49.82
-57.28
-62.4
-63.46
-59.32
-49.92
-36.35
-20.55
-4.73
9.31
20.46
28.43
33.46
35.99
36.4
34.99
32.13
28.37
24.5
21.37
19.62
19.41
20.34
21.75
22.96
23.56
23.46
22.76
21.53
19.72
17.16
13.77
9.6
4.95
0.17
-4.43
-8.7
-12.71
-16.73
-21.25
-26.78
-33.6
-41.44
-49.31
-55.53
-58.19
-55.84
-48.06
-35.73
-20.71
-5.32
8.45
19.37
27.05
31.71
33.81
33.82
32.16
29.3
25.77
22.21
19.25
17.27
16.4
16.46
17.11
17.92
18.51
18.56
17.88
16.35
13.98
10.86
7.12
2.93
-1.56
-6.15
-10.66
-14.93
-18.92
-22.91
-27.41
-33.07
-40.19
-48.33
-56.1
-61.42
-62.29
-57.44
-47.03
-32.54
-16.25
-0.54
12.88
23.17
30.22
34.33
35.93
35.39
33.19
29.91
26.3
23.1
20.87
19.81
19.69
20.03
20.23
19.88
18.88
17.43
15.81
14.18
12.41
10.14
6.93
2.6
-2.66
-8.31
-13.67
-18.29
-22.1
-25.54
-29.35
-34.33
-40.93
-48.9
-57.17
-63.98
-67.34
-65.64
-58.29
-45.97
-30.4
-13.83
1.68
14.82
25.1
32.66
37.84
40.89
41.94
41.15
38.91
35.94
33.12
31.2
30.5
30.85
31.66
32.22
32.09
31.19
29.83
28.41
27.12
25.82
24.03
21.16
16.84
11.1
4.42
-2.47
-8.81
-14.17
-18.47
-22.03
-25.4
-29.25
-34.2
-40.63
-48.41
-56.68
-63.85
-67.93
-67.18
-60.77
-49.21
-34.18
-17.98
-2.66
10.43
20.8
28.5
33.75
36.66
37.32
36.03
33.43
30.46
28.08
26.89
26.99
27.93
28.98
29.41
28.82
27.2
24.86
22.25
19.68
17.12
14.27
10.7
6.15
0.72
-5.13
-10.74
-15.54
-19.31
-22.18
-24.55
-26.94
-29.83
-33.65
-38.62
-44.64
-51.01
-56.49
-59.45
-58.37
-52.37
-41.65
-27.44
-11.63
3.74
17.12
27.59
34.83
38.92
40.08
38.61
35.03
30.15
24.99
20.62
17.81
16.79
17.23
18.45
19.74
20.61
20.89
20.65
20.01
18.99
17.48
15.29
12.28
8.41
3.87
-1.05
-5.97
-10.62
-14.91
-19.03
-23.43
-28.67
-35.18
-42.98
-51.36
-58.96
-63.94
-64.57
-59.8
-49.72
-35.62
-19.53
-3.63
10.35
21.44
29.42
34.43
36.77
36.74
34.69
31.18
27.0
23.06
20.08
18.47
18.18
18.8
19.79
20.71
21.35
21.66
21.72
21.49
20.76
19.16
16.32
12.08
6.68
0.67
-5.18
-10.27
-14.36
-17.65
-20.73
-24.33
-29.12
-35.45
-43.2
-51.6
-59.23
-64.22
-64.8
-59.91
-49.66
-35.43
-19.41
-3.88
9.51
19.97
27.49
32.45
35.25
36.12
35.25
32.96
29.85
26.73
24.39
23.39
23.84
25.33
27.14
28.54
29.01
28.43
27.09
25.4
23.71
22.08
20.29
17.94
14.64
10.22
4.8
-1.2
-7.2
-12.67
-17.22
-20.86
-23.93
-27.02
-30.79
-35.77
-42.19
-49.83
-57.86
-64.9
-69.23
-69.19
-63.76
-52.97
-38.02
-20.9
-3.85
11.3
23.45
32.27
37.93
40.81
41.35
40.02
37.41
34.24
31.29
29.17
28.21
28.39
29.42
30.87
32.34
33.52
34.24
34.4
33.88
32.65
30.7
28.13
25.11
21.82
18.34
14.62
10.51
5.93
0.9
-4.44
-9.79
-14.87
-19.47
-23.54
-27.17
-30.64
-34.31
-38.69
-44.2
-51.04
-58.78
-66.21
-71.53
-72.78
-68.58
-58.69
-44.22
-27.29
-10.31
4.69
16.52
24.84
29.88
32.1
31.98
30.05
26.9
23.31
20.07
17.87
17.07
17.63
19.14
21.02
22.74
23.97
24.62
24.75
24.5
23.9
22.94
21.41
19.11
15.85
11.54
6.29
0.46
-5.47
-10.98
-15.71
-19.56
-22.65
-25.33
-27.98
-31.07
-35.07
-40.33
-46.84
-53.93
-60.24
-63.94
-63.3
-57.41
-46.53
-32.08
-16.16
-0.87
12.25
22.45
29.65
34.13
36.26
36.39
34.89
32.22
28.97
25.83
23.44
22.21
22.23
23.23
24.68
26.02
26.8
26.83
26.23
25.22
24.02
22.64
20.92
18.5
15.1
10.59
5.16
-0.75
-6.59
-11.92
-16.55
-20.57
-24.28
-28.02
-32.1
-36.81
-42.36
-48.9
-56.29
-63.86
-70.31
-73.91
-73.04
-66.74
-55.22
-39.78
-22.54
-5.68
9.07
20.78
29.22
34.67
37.6
38.48
37.76
35.97
33.74
31.73
30.47
30.29
31.12
32.6
34.23
35.53
36.19
36.15
35.52
34.48
33.11
31.4
29.3
26.75
23.75
20.32
16.5
12.25
7.52
2.32
-3.21
-8.82
-14.18
-19.07
-23.43
-27.43
-31.37
-35.63
-40.62
-46.68
-53.88
-61.75
-69.15
-74.35
-75.47
-71.15
-61.19
-46.75
-29.96
-13.24
1.47
13.21
21.91
28.02
32.08
34.42
35.2
34.58
32.95
30.91
29.15
28.25
28.44
29.57
31.18
32.75
33.91
34.45
34.37
33.77
32.67
31.05
28.8
25.82
22.02
17.42
12.13
6.38
0.52
-5.06
-10.08
-14.36
-17.89
-20.81
-23.36
-25.87
-28.77
-32.56
-37.67
-44.17
-51.53
-58.46
-63.22
-64.06
-59.93
-50.82
-37.81
-22.68
-7.36
6.58
18.14
26.88
32.73
35.8
36.32
34.68
31.45
27.38
23.37
20.2
18.36
17.95
18.63
19.8
20.87
21.46
21.49
21.1
20.46
19.54
18.09
15.7
12.06
7.17
1.36
-4.72
-10.42
-15.28
-19.2
-22.48
-25.64
-29.26
-33.82
-39.51
-46.17
-53.13
-59.21
-62.94
-62.9
-58.21
-48.87
-35.89
-20.96
-5.95
7.6
18.71
26.97
32.37
35.06
35.31
33.6
30.62
27.3
24.53
22.94
22.63
23.27
24.27
25.09
25.5
25.58
25.6
25.72
25.79
25.31
23.65
20.31
15.22
8.73
1.6
-5.37
-11.51
-16.57
-20.71
-24.43
-28.41
-33.3
-39.43
-46.66
-54.14
-60.48
-64.01
-63.25
-57.45
-46.9
-32.85
-17.19
-1.87
11.59
22.35
30.21
35.39
38.22
39.05
38.21
36.17
33.57
31.16
29.59
29.23
29.98
31.31
32.51
32.99
32.53
31.27
29.57
27.76
25.88
23.7
20.79
16.83
11.82
6.06
0.16
-5.25
-9.75
-13.29
-16.21
-19.16
-22.91
-28.11
-35.02
-43.31
-51.94
-59.29
-63.56
-63.32
-57.96
-47.95
-34.65
-19.91
-5.46
7.43
18.12
26.42
32.37
36.06
37.59
37.21
35.41
32.9
30.46
28.73
28.02
28.22
28.95
29.7
30.04
29.79
29.02
27.93
26.67
25.22
23.35
20.73
17.09
12.45
7.14
1.72
-3.25
-7.43
-10.84
-13.83
-17.0
-20.93
-26.1
-32.7
-40.41
-48.38
-55.16
-59.03
-58.47
-52.7
-42.07
-28.0
-12.55
2.21
14.74
24.31
30.8
34.45
35.61
34.66
32.06
28.5
24.73
21.45
19.04
17.55
16.73
16.32
16.11
16.11
16.4
16.96
17.54
17.68
16.86
14.7
11.16
6.55
1.46
-3.48
-7.77
-11.24
-14.08
-16.82
-20.15
-24.69
-30.66
-37.7
-44.72
-50.14
-52.29
-49.95
-42.8
-31.57
-17.84
-3.61
9.28
19.57
26.7
30.79
32.31
31.86
30.02
27.29
24.13
21.03
18.47
16.84
16.3
16.75
17.83
19.02
19.85
19.98
19.26
17.68
15.28
12.08
8.14
3.57
-1.39
-6.4
-11.13
-15.42
-19.45
-23.64
-28.58
-34.66
-41.79
-49.14
-55.26
-58.38
-56.99
-50.43
-39.13
-24.55
-8.77
6.12
18.58
27.84
33.9
37.18
38.23
37.55
35.59
32.82
29.81
27.07
24.95
23.53
22.63
21.95
21.27
20.56
19.94
19.51
19.11
18.37
16.76
13.93
9.84
4.85
-0.5
-5.71
-10.54
-15.06
-19.54
-24.34
-29.81
-36.18
-43.4
-50.95
-57.74
-62.18
-62.64
-58.04
-48.38
-34.85
-19.44
-4.3
9.0
19.71
27.81
33.59
37.3
39.06
38.93
37.25
34.66
32.0
30.0
28.98
28.79
28.9
28.79
28.23
27.31
26.33
25.55
24.89
23.96
22.21
19.2
14.91
9.66
4.02
-1.42
-6.32
-10.7
-14.84
-19.24
-24.42
-30.78
-38.36
-46.66
-54.57
-60.5
-62.76
-60.14
-52.38
-40.32
-25.68
-10.57
3.18
14.36
22.61
28.14
31.45
33.0
33.05
31.83
29.61
26.84
24.03
21.67
20.07
19.28
19.15
19.42
19.84
20.16
20.16
19.57
18.14
15.67
12.14
7.74
2.87
-1.98
-6.35
-10.0
-13.0
-15.79
-19.01
-23.37
-29.26
-36.39
-43.72
-49.57
-52.18
-50.22
-43.4
-32.55
-19.37
-5.89
6.21
15.91
22.93
27.52
30.04
30.76
29.82
27.37
23.77
19.63
15.73
12.78
11.19
10.93
11.57
12.42
12.79
12.21
10.46
7.64
4.02
-0.07
-4.39
-8.77
-13.16
-17.59
-22.1
-26.83
-31.91
-37.53
-43.73
-50.2
-56.1
-60.16
-60.92
-57.25
-48.83
-36.41
-21.62
-6.6
6.73
17.08
24.04
27.88
29.22
28.69
26.77
23.87
20.5
17.33
15.14
14.53
15.67
18.18
21.29
24.17
26.2
27.18
27.15
26.22
24.37
21.5
17.53
12.55
6.79
