0
9.45
9.24
9.4
10.3
12.04
14.47
17.2
19.78
21.84
23.25
24.1
24.6
24.93
25.07
24.89
24.23
22.98
21.23
19.21
17.11
15.08
13.13
11.14
9.02
6.67
4.07
1.24
-1.79
-4.97
-8.2
-11.37
-14.36
-17.17
-19.9
-22.72
-25.86
-29.58
-34.0
-39.04
-44.3
-49.04
-52.31
-53.24
-51.31
-46.49
-39.34
-30.74
-21.67
-12.96
-5.15
1.46
6.77
10.77
13.52
15.23
16.19
16.74
17.22
17.87
18.8
20.01
21.39
22.8
24.04
24.98
25.48
25.48
24.95
23.87
22.27
20.18
17.72
15.07
12.5
10.22
8.34
6.8
5.39
3.86
2.05
-0.02
-2.19
-4.26
-6.13
-7.83
-9.56
-11.6
-14.17
-17.39
-21.33
-25.91
-30.98
-36.22
-41.16
-45.11
-47.34
-47.21
-44.43
-39.12
-31.83
-23.35
-14.56
-6.21
1.17
7.27
11.96
15.25
17.23
18.14
18.27
18.02
17.81
17.92
18.45
19.34
20.37
21.34
22.1
22.58
22.71
22.41
21.6
20.21
18.27
15.89
13.26
10.57
7.96
5.54
3.37
1.46
-0.24
-1.81
-3.41
-5.17
-7.14
-9.27
-11.44
-13.48
-15.37
-17.23
-19.32
-21.93
-25.22
-29.1
-33.11
-36.49
-38.39
-38.16
-35.53
-30.7
-24.28
-17.05
-9.76
-2.97
2.97
7.87
11.63
14.24
15.78
16.42
16.47
16.3
16.28
16.67
17.58
18.95
20.58
22.21
23.59
24.5
24.83
24.56
23.81
22.68
21.25
19.54
17.46
14.98
12.12
9.04
5.94
2.99
0.22
-2.42
-5.06
-7.72
-10.37
-12.93
-15.45
-18.16
-21.35
-25.16
-29.38
-33.37
-36.2
-37.06
-35.49
-31.56
-25.79
-18.89
-11.58
-4.4
2.2
7.88
12.35
15.39
16.96
17.29
16.83
16.15
15.79
16.14
17.28
19.06
21.17
23.23
24.93
26.05
26.47
26.15
25.11
23.46
21.39
19.2
17.16
15.39
13.86
12.37
10.65
8.52
5.93
3.05
0.09
-2.74
-5.36
-7.76
-10.0
-12.23
-14.64
-17.56
-21.31
-26.14
-31.95
-38.17
-43.84
-47.85
-49.28
-47.71
-43.33
-36.86
-29.22
-21.24
-13.52
-6.4
-0.08
5.25
9.41
12.29
13.99
14.85
15.37
16.06
17.26
19.01
21.08
23.1
24.74
25.76
26.09
25.76
24.86
23.5
21.81
19.94
18.01
16.04
13.98
11.7
9.11
6.23
3.2
0.22
-2.57
-5.16
-7.62
-10.14
-12.83
-15.75
-18.91
-22.3
-25.9
-29.59
-33.07
-35.82
-37.2
-36.7
-34.09
-29.56
-23.66
-17.06
-10.35
-3.93
1.99
7.3
11.86
15.47
17.98
19.33
19.72
19.59
19.42
19.65
20.47
21.75
23.14
24.25
24.74
24.51
23.63
22.29
20.67
18.9
17.04
15.11
13.1
11.03
8.88
6.64
4.29
1.82
-0.76
-3.46
-6.2
-8.96
-11.67
-14.36
-17.16
-20.23
-23.75
-27.72
-31.85
-35.5
-37.8
-38.0
-35.65
-30.91
-24.47
-17.29
-10.27
-4.0
1.31
5.68
9.19
11.88
13.74
14.84
15.42
15.83
16.44
17.48
18.97
20.76
22.55
24.05
25.08
25.6
25.7
25.54
25.29
25.01
24.58
23.83
22.53
20.62
18.2
15.5
12.77
10.22
7.93
5.84
3.83
1.71
-0.75
-3.8
-7.62
-12.22
-17.34
-22.43
-26.69
-29.33
-29.75
-27.74
-23.52
-17.69
-10.98
-4.11
2.33
7.97
12.53
15.86
17.93
18.91
19.1
18.97
18.93
19.23
19.91
20.79
21.62
22.19
22.39
22.21
21.71
20.94
19.93
18.72
17.31
15.69
13.87
11.86
9.69
7.43
5.14
2.86
0.57
-1.75
-4.13
-6.51
-8.79
-10.94
-12.96
-15.03
-17.4
-20.3
-23.91
-28.25
-33.15
-38.2
-42.78
-46.13
-47.49
-46.3
-42.44
-36.31
-28.7
-20.58
-12.76
-5.76
0.23
5.19
9.13
12.09
14.16
15.48
16.35
17.03
17.73
18.51
19.35
20.15
20.86
21.43
21.83
22.02
22.01
21.83
21.56
21.24
20.81
20.1
18.91
17.13
14.84
12.33
9.94
7.9
6.23
4.73
3.11
1.14
-1.27
-3.99
-6.8
-9.46
-11.87
-14.14
-16.54
-19.42
-23.01
-27.36
-32.2
-36.99
-41.09
-43.84
-44.74
-43.54
-40.27
-35.21
-28.81
-21.67
-14.4
-7.55
-1.57
3.21
6.7
8.9
10.05
10.47
10.57
10.72
11.16
11.98
13.09
14.36
15.57
16.6
17.35
17.79
17.92
17.72
17.14
16.11
14.61
12.75
10.72
8.76
7.05
5.61
4.28
2.78
0.86
-1.57
-4.43
-7.49
-10.51
-13.35
-15.95
-18.36
-20.66
-22.99
-25.56
-28.6
-32.23
-36.36
-40.54
-44.06
-46.15
-46.22
-44.1
-40.07
-34.68
-28.57
-22.27
-16.13
-10.42
-5.39
-1.29
1.69
3.52
4.41
4.77
5.07
5.7
6.85
8.54
10.59
12.8
14.91
16.69
17.98
18.69
18.85
18.54
17.92
17.14
16.27
15.32
14.26
13.1
11.84
10.52
9.17
7.82
6.48
5.15
3.81
2.38
0.79
-1.1
-3.44
-6.33
-9.8
-13.78
-18.0
-22.05
-25.41
-27.49
-27.87
-26.36
-23.03
-18.24
-12.45
-6.2
0.02
5.83
10.89
15.01
18.08
20.17
21.44
22.08
22.33
22.32
22.19
22.06
22.01
22.09
22.24
22.29
22.02
21.27
20.0
18.3
16.36
14.34
12.31
10.25
8.07
5.74
3.26
0.7
-1.8
-4.09
-6.05
-7.67
-9.04
-10.39
-12.07
-14.34
-17.41
-21.31
-25.91
-30.96
-36.04
-40.57
-43.86
-45.31
-44.5
-41.48
-36.67
-30.8
-24.55
-18.47
-12.79
-7.58
-2.94
1.04
4.22
6.53
8.08
9.08
9.83
10.54
11.4
12.48
13.82
15.4
17.08
18.69
20.04
20.97
21.47
21.62
21.49
21.11
20.43
19.32
17.75
15.76
13.55
11.26
9.0
6.74
4.38
1.79
-1.08
-4.22
-7.54
-10.9
-14.17
-17.24
-20.09
-22.77
-25.4
-28.17
-31.29
-34.9
-38.99
-43.29
-47.34
-50.4
-51.73
-50.72
-47.16
-41.32
-33.87
-25.65
-17.44
-9.77
-2.93
2.92
7.7
11.26
13.59
14.85
15.39
15.72
16.29
17.31
18.74
20.33
21.82
23.03
23.92
24.55
24.99
25.23
25.17
24.66
23.57
21.91
19.8
17.5
15.27
13.29
11.63
10.21
8.9
7.57
6.13
4.5
2.58
0.23
-2.65
-6.07
-9.9
-13.93
-17.98
-22.06
-26.36
-31.15
-36.46
-41.95
-46.85
-50.18
-51.1
-49.26
-44.84
-38.49
-31.05
-23.24
-15.61
-8.54
-2.28
2.91
6.84
9.48
10.97
11.68
12.02
12.37
12.93
13.76
14.77
15.84
16.94
18.08
19.27
20.49
21.58
22.33
22.54
22.09
21.03
19.49
17.68
15.7
13.62
11.43
9.11
6.68
4.16
1.58
-1.02
-3.67
-6.4
-9.25
-12.34
-15.79
-19.7
-23.94
-28.11
-31.52
-33.4
-33.12
-30.38
-25.37
-18.59
-10.75
-2.56
5.38
12.6
18.73
23.47
26.67
28.4
28.92
28.68
28.19
27.86
27.88
28.22
28.7
29.09
29.22
29.02
28.49
27.67
26.56
25.13
23.32
21.13
18.6
15.78
12.79
9.69
6.56
3.46
0.47
-2.39
-5.13
-7.77
-10.46
-13.35
-16.63
-20.47
-24.89
-29.71
-34.5
-38.64
-41.43
-42.3
-40.94
-37.36
-31.9
-25.12
-17.6
-9.99
-2.81
3.5
8.61
12.35
14.7
15.85
16.15
16.03
15.93
16.13
16.75
17.73
18.89
20.03
20.98
21.67
22.02
22.0
21.6
20.83
19.72
18.28
16.55
14.54
12.22
9.6
6.72
3.7
0.72
-2.08
-4.59
-6.81
-8.87
-10.98
-13.41
-16.4
-20.06
-24.34
-28.9
-33.25
-36.76
-38.84
-39.05
-37.21
-33.43
-28.02
-21.46
-14.27
-6.99
-0.08
6.05
11.06
14.71
16.94
17.9
17.94
17.57
17.27
17.36
17.88
18.69
19.53
20.17
20.51
20.51
20.25
19.73
18.96
17.92
16.57
14.89
12.87
10.53
7.94
5.25
2.66
0.37
-1.52
-3.1
-4.59
-6.27
-8.44
-11.29
-14.87
-19.04
-23.47
-27.63
-30.87
-32.59
-32.38
-30.15
-26.12
-20.8
-14.79
-8.68
-2.97
1.97
5.96
8.88
10.82
11.92
12.44
12.67
12.91
13.42
14.31
15.6
17.09
18.51
19.56
20.04
19.92
19.24
18.11
16.52
14.42
11.78
8.72
5.49
2.42
-0.26
-2.51
-4.52
-6.56
-8.86
-11.61
-14.85
-18.52
-22.41
-26.13
-29.14
-30.81
-30.66
-28.46
-24.37
-18.86
-12.56
-6.09
0.06
5.49
9.86
12.96
14.68
15.11
14.53
13.34
11.93
10.64
9.62
8.97
8.71
8.79
9.13
9.58
9.95
10.06
9.82
9.25
8.47
7.61
6.74
5.8
4.64
3.11
1.11
-1.39
-4.34
-7.73
-11.53
-15.77
-20.3
-24.77
-28.52
-30.81
-30.98
-28.8
-24.49
-18.69
-12.22
-5.73
0.29
5.62
10.08
13.53
15.82
16.92
16.98
16.33
15.38
14.47
13.83
13.5
13.47
13.7
14.12
14.62
15.04
15.21
14.96
14.19
12.92
11.24
9.28
7.15
4.96
2.73
0.46
-1.93
-4.55
-7.55
-11.06
-15.06
-19.31
-23.33
-26.45
-27.99
-27.47
-24.75
-20.14
-14.28
-7.96
-1.9
3.39
7.6
10.64
12.51
13.29
13.14
12.35
11.3
10.37
9.9
9.99
10.62
11.58
12.69
13.79
14.77
15.48
15.77
15.48
14.47
12.75
10.44
7.72
4.73
1.62
-1.57
-4.81
-8.12
-11.54
-15.17
-19.15
-23.57
-28.32
-33.09
-37.32
-40.27
-41.29
-39.98
-36.34
-30.73
-23.77
-16.15
-8.47
-1.17
5.39
10.89
15.02
17.58
18.59
18.35
17.45
16.57
16.26
16.75
17.96
19.55
21.12
22.35
23.07
23.24
22.87
21.99
20.64
18.84
16.66
14.19
11.55
8.82
6.12
3.5
0.99
-1.47
-4.03
-6.87
-10.12
-13.84
-17.98
-22.43
-27.01
-31.39
-35.13
-37.62
-38.26
-36.6
-32.61
-26.73
-19.7
-12.38
-5.46
0.65
5.78
9.89
12.93
14.9
15.82
15.86
15.35
14.72
14.41
14.71
15.71
17.3
19.17
20.99
22.47
23.45
23.93
24.0
23.79
23.37
22.75
21.84
20.57
18.85
16.63
13.94
10.88
7.57
4.2
0.92
-2.2
-5.22
-8.36
-11.9
-16.05
-20.77
-25.73
-30.27
-33.64
-35.17
-34.49
-31.54
-26.6
-20.19
-12.97
-5.63
1.17
6.93
11.31
14.21
15.74
16.16
15.85
15.25
14.78
14.73
15.22
16.15
17.27
18.3
19.01
19.31
19.22
18.85
18.23
17.34
16.11
14.49
12.45
10.06
7.46
4.81
2.23
-0.16
-2.34
-4.33
-6.3
-8.42
-10.93
-13.99
-17.67
-21.81
-26.08
-29.93
-32.72
-33.86
-32.97
-30.01
-25.28
-19.34
-12.87
-6.47
-0.62
4.41
8.43
11.33
13.04
13.54
12.97
11.68
10.21
9.12
8.89
9.68
11.35
13.45
15.49
17.1
18.14
18.65
18.72
18.42
17.7
16.51
14.93
13.16
11.47
10.06
8.97
8.02
6.93
5.4
3.22
0.28
-3.43
-7.8
-12.56
-17.29
-21.38
-24.21
-25.32
-24.51
-21.9
-17.89
-12.99
-7.71
-2.49
2.3
6.36
9.5
11.59
12.68
12.95
12.67
12.2
11.83
11.73
12.01
12.62
13.4
14.15
14.67
14.77
14.4
13.58
12.39
10.94
9.32
7.58
5.74
3.81
1.79
-0.3
-2.45
-4.65
-6.84
-8.92
-10.84
-12.61
-14.37
-16.37
-18.86
-22.03
-25.86
-30.08
-34.15
-37.35
-38.94
-38.4
-35.57
-30.75
-24.6
-17.89
-11.28
-5.23
0.06
4.48
7.93
10.28
11.55
11.93
11.8
11.6
11.65
12.05
12.75
13.61
14.54
15.52
16.48
17.29
17.76
17.71
17.05
15.85
14.26
12.45
10.55
8.65
6.77
4.95
3.17
1.41
-0.34
-2.09
-3.78
-5.29
-6.61
-7.78
-9.0
-10.48
-12.39
-14.83
-17.84
-21.43
-25.44
-29.55
-33.19
-35.63
-36.25
-34.72
-31.18
-26.13
-20.24
-14.09
-8.06
-2.41
2.58
6.65
9.56
11.26
11.95
12.03
11.96
12.09
12.55
13.31
14.26
15.27
16.24
17.09
17.77
18.2
18.27
17.85
16.84
15.24
13.15
10.78
8.38
6.09
3.94
1.81
-0.43
-2.84
-5.34
-7.79
-10.06
-12.17
-14.23
-16.4
-18.78
-21.37
-24.14
-27.09
-30.26
-33.63
-36.99
-39.81
-41.4
-41.1
-38.55
-33.87
-27.6
-20.5
-13.36
-6.8
-1.21
3.23
6.47
8.56
9.59
9.72
9.16
8.23
7.34
6.86
7.07
8.02
9.51
11.18
12.65
13.68
14.19
14.28
14.06
13.57
12.82
11.76
10.37
8.64
6.63
4.38
1.98
-0.45
-2.8
-4.98
-7.01
-8.95
-10.97
-13.23
-15.86
-18.82
-21.94
-24.81
-26.9
-27.64
-26.61
-23.72
-19.24
-13.73
-7.86
-2.21
2.83
7.09
10.48
12.96
14.47
15.02
14.74
13.94
13.03
12.44
12.47
13.22
14.57
16.25
17.9
19.19
19.89
19.92
19.29
18.1
16.48
14.58
12.55
10.48
8.45
6.39
4.21
1.78
-0.99
-4.07
-7.3
-10.48
-13.44
-16.14
-18.72
-21.38
-24.41
-27.97
-32.07
-36.49
-40.7
-44.04
-45.76
-45.25
-42.3
-37.12
-30.33
-22.75
-15.19
-8.25
-2.29
2.5
5.98
8.08
8.93
8.84
8.41
8.34
9.16
11.04
13.75
16.79
19.64
21.94
23.59
24.63
25.16
25.27
24.95
24.22
23.06
21.47
19.47
17.15
14.7
12.34
10.27
8.52
6.92
5.19
3.03
0.41
-2.53
-5.44
-8.09
-10.44
-12.69
-15.17
-18.14
-21.77
-26.01
-30.75
-35.81
-40.86
-45.47
-49.0
-50.79
-50.26
-47.1
-41.42
-33.72
-24.78
-15.5
-6.72
0.95
7.21
11.99
15.49
17.96
19.68
20.9
21.88
22.9
24.25
26.16
28.62
31.36
33.93
35.88
36.96
37.19
36.83
36.14
35.3
34.29
33.02
31.42
29.54
27.52
25.52
23.68
21.94
20.23
18.4
16.28
13.81
10.94
7.76
4.39
0.94
-2.51
-5.97
-9.49
-13.15
-17.0
-21.1
-25.56
-30.48
-35.93
-41.72
-47.32
-51.89
-54.43
-54.14
-50.68
-44.34
-35.92
-26.48
-17.08
-8.49
-1.22
4.5
8.67
11.42
12.92
13.46
13.35
12.99
12.8
13.18
14.37
16.38
18.93
21.58
23.87
25.54
26.56
27.09
27.28
27.18
26.72
25.78
24.33
22.4
20.11
17.51
14.62
11.48
8.18
4.91
1.87
-0.85
-3.31
-5.68
-8.19
-10.98
-14.19
-17.89
-22.03
-26.38
-30.4
-33.32
-34.27
-32.66
-28.33
-21.65
-13.41
-4.55
4.03
11.61
17.7
22.07
24.7
25.8
25.74
24.97
23.95
23.13
22.84
23.28
24.43
26.05
27.74
29.09
29.84
29.89
29.34
28.3
26.83
24.88
22.37
19.29
15.75
11.96
8.12
4.41
0.91
-2.33
-5.27
-7.92
-10.35
-12.71
-15.26
-18.29
-22.07
-26.75
-32.19
-37.95
-43.25
-47.12
-48.64
-47.22
-42.81
-35.86
-27.25
-17.96
-8.89
-0.68
6.2
11.51
15.19
17.36
18.32
18.47
18.24
17.93
17.77
17.89
18.38
19.28
20.58
22.15
23.76
25.13
26.0
26.2
25.68
24.52
22.84
20.8
18.55
16.18
13.73
11.19
8.51
5.75
2.99
0.37
-1.96
-3.97
-5.81
-7.74
-10.09
-13.18
-17.17
-22.07
-27.68
-33.55
-39.05
-43.41
-45.87
-45.86
-43.15
-37.99
-30.96
-22.92
-14.7
-6.97
-0.12
5.65
10.26
13.65
15.81
16.89
17.23
17.35
17.74
18.72
20.3
22.21
24.13
25.81
27.21
28.34
29.22
29.78
29.83
29.2
27.81
25.75
23.25
20.54
17.88
15.35
12.89
10.36
7.6
4.54
1.29
-1.87
-4.72
-7.15
-9.32
-11.56
-14.26
-17.72
-22.04
-27.14
-32.72
-38.28
-43.09
-46.34
-47.28
-45.44
-40.84
-33.97
-25.66
-16.8
-8.18
-0.38
6.2
11.28
14.74
16.63
17.22
16.96
16.39
15.95
15.92
16.39
17.35
18.7
20.32
22.01
23.49
24.5
24.81
24.34
23.2
21.57
19.67
17.63
15.51
13.31
11.0
8.57
6.06
3.53
1.01
-1.45
-3.8
-6.0
-8.05
-9.96
-11.83
-13.83
-16.2
-19.22
-23.11
-27.91
-33.35
-38.79
-43.29
-45.86
-45.71
-42.59
-36.8
-29.09
-20.46
-11.78
-3.69
3.48
9.57
14.49
18.15
20.48
21.54
21.53
20.9
20.18
19.88
20.3
21.45
23.07
24.76
26.19
27.14
27.55
27.44
26.89
25.92
24.55
22.81
20.75
18.42
15.86
13.13
10.24
7.22
4.11
0.93
-2.38
-5.85
-9.55
-13.5
-17.74
-22.27
-27.09
-32.03
-36.73
-40.57
-42.8
-42.77
-40.13
-34.99
-27.88
-19.56
-10.89
-2.54
4.92
11.07
15.62
18.39
19.47
19.22
18.25
17.28
16.88
17.33
18.58
20.28
21.95
23.21
23.84
23.83
23.35
22.59
21.7
20.76
19.75
18.61
17.33
15.9
14.37
12.82
11.25
9.6
7.81
5.8
3.54
1.07
-1.56
-4.32
-7.2
-10.2
-13.35
-16.62
-20.0
-23.56
-27.4
-31.67
-36.42
-41.44
-46.2
-49.96
-51.98
-51.71
-48.96
-43.95
-37.19
-29.31
-20.99
-12.83
-5.36
1.0
5.92
9.31
11.29
12.23
12.69
13.2
14.19
15.83
18.02
20.53
23.06
25.4
27.38
28.91
29.85
30.13
29.74
28.8
27.43
25.81
23.97
21.89
19.51
16.9
14.21
11.62
9.29
7.22
5.3
3.37
1.28
-1.04
-3.57
-6.28
-9.11
-12.0
-14.9
-17.74
-20.49
-23.2
-25.95
-28.94
-32.32
-36.15
-40.33
-44.53
-48.17
-50.56
-51.0
-49.03
-44.56
-37.89
-29.75
-21.03
-12.61
-5.18
0.85
5.35
8.36
10.06
10.71
10.65
10.26
9.98
10.12
10.81
11.94
13.29
14.59
15.67
16.5
17.09
17.46
17.59
17.37
16.76
15.78
14.51
13.03
11.4
9.66
7.84
5.99
4.12
2.2
0.14
-2.08
-4.44
-6.78
-8.94
-10.85
-12.66
-14.69
-17.29
-20.64
-24.6
-28.66
-32.14
-34.3
-34.61
-32.82
-29.02
-23.54
-16.91
-9.74
-2.57
4.1
9.93
14.68
18.21
20.51
21.69
22.02
21.86
21.6
21.56
21.87
22.57
23.52
24.62
25.74
26.72
27.37
27.47
26.84
25.47
23.53
21.33
19.17
17.21
15.41
13.61
11.64
9.36
6.81
4.05
1.18
-1.73
-4.7
-7.73
-10.88
-14.17
-17.68
-21.49
-25.66
-30.12
-34.58
-38.49
-41.11
-41.77
-39.98
-35.69
-29.29
-21.55
-13.36
-5.56
1.22
6.61
10.48
12.86
13.92
13.97
13.47
12.9
12.74
13.26
14.54
16.41
18.6
20.82
22.81
24.4
25.51
26.07
26.03
25.37
24.1
22.27
19.96
17.29
14.45
11.65
9.04
6.63
4.33
1.9
-0.84
-3.92
-7.17
-10.25
-12.87
-14.87
-16.43
-17.94
-19.88
-22.66
-26.49
-31.36
-36.99
-42.93
-48.52
-52.97
-55.46
-55.37
-52.41
-46.73
-38.89
-29.72
-20.18
-11.13
-3.26
3.05
7.71
10.87
12.83
13.94
14.54
14.96
15.48
16.34
17.69
19.54
21.73
24.03
26.17
27.97
29.34
30.23
30.58
30.24
29.14
27.28
24.82
22.02
19.14
16.35
13.75
11.35
9.13
7.07
5.04
2.9
0.47
-2.37
-5.57
-8.94
-12.22
-15.25
-18.0
-20.61
-23.3
-26.25
-29.62
-33.48
-37.78
-42.33
-46.66
-50.09
-51.85
-51.31
-48.18
-42.62
-35.22
-26.75
-18.01
-9.65
-2.18
4.05
8.84
12.13
14.02
14.8
14.89
14.75
14.84
15.47
16.81
18.74
21.01
23.26
25.18
26.56
27.33
27.52
27.18
26.33
25.02
23.35
21.46
19.54
17.79
16.29
15.01
13.82
12.52
10.94
8.99
6.67
4.12
1.52
-0.95
-3.21
-5.37
-7.73
-10.65
-14.44
-19.12
-24.35
-29.46
-33.6
-35.98
-36.07
-33.69
-29.04
-22.61
-15.09
-7.23
0.3
7.01
12.58
16.89
19.98
21.99
23.09
23.53
23.56
23.41
23.3
23.33
23.49
23.7
23.86
23.91
23.91
23.93
24.06
24.23
24.26
23.84
22.72
20.81
18.21
15.22
12.18
9.34
6.76
4.36
1.96
-0.6
-3.36
-6.3
-9.28
-12.14
-14.75
-17.08
-19.18
-21.22
-23.49
-26.33
-29.99
-34.51
-39.66
-44.84
-49.23
-51.93
-52.23
-49.78
-44.72
-37.59
-29.24
-20.48
-12.02
-4.33
2.35
7.87
12.16
15.23
17.18
18.27
18.89
19.44
20.31
21.69
23.59
25.8
27.98
29.76
30.85
31.12
30.62
29.52
28.08
26.54
24.99
23.45
21.85
20.09
18.16
16.09
13.98
11.96
10.12
8.47
6.99
5.57
4.09
2.49
0.68
-1.36
-3.67
-6.25
-9.1
-12.16
-15.39
-18.77
-22.37
-26.29
-30.67
-35.49
-40.55
-45.34
-49.19
-51.41
-51.45
-49.09
-44.45
-37.98
-30.3
-22.11
-14.06
-6.64
-0.18
5.14
9.25
12.13
13.83
14.5
14.43
14.05
13.82
14.1
15.1
16.8
18.99
21.35
23.57
25.37
26.53
26.95
26.66
25.79
24.54
23.18
21.83
20.55
19.28
17.92
16.37
14.54
12.38
9.87
7.05
4.01
0.91
-2.1
-4.89
-7.4
-9.61
-11.54
-13.24
-14.86
-16.61
-18.77
-21.6
-25.24
-29.65
-34.55
-39.46
-43.73
-46.7
-47.81
-46.72
-43.41
-38.2
-31.65
-24.43
-17.14
-10.2
-3.86
1.73
6.46
10.16
12.77
14.34
15.12
15.52
15.98
16.83
18.21
20.04
22.07
24.07
25.84
27.3
28.39
29.09
29.28
28.85
27.75
25.99
23.77
21.39
19.14
17.29
15.9
14.89
14.03
13.06
11.79
10.14
8.16
5.94
3.63
1.32
-0.97
-3.28
-5.74
-8.52
-11.79
-15.74
-20.36
-25.52
-30.77
-35.44
-38.8
-40.16
-39.14
-35.72
-30.21
-23.18
-15.42
-7.69
-0.68
5.15
9.59
12.66
14.53
15.44
15.66
15.44
15.1
14.93
15.16
15.88
17.0
18.31
19.57
20.69
21.66
22.49
23.23
23.81
24.17
24.2
23.85
23.07
21.8
19.98
17.66
14.99
12.19
9.47
6.87
4.31
1.63
-1.25
-4.27
-7.22
-9.93
-12.31
-14.5
-16.75
-19.31
-22.29
-25.76
-29.71
-34.1
-38.8
-43.57
-47.92
-51.19
-52.74
-52.05
-48.96
-43.68
-36.73
-28.78
-20.53
-12.49
-5.03
1.58
7.11
11.33
14.1
15.4
15.56
15.17
14.89
15.27
16.54
18.56
20.96
23.35
25.43
27.04
28.12
28.62
28.54
27.87
26.71
25.17
23.36
21.37
19.22
16.95
14.67
12.52
10.61
8.97
7.5
6.02
4.31
2.24
-0.27
-3.16
-6.28
-9.47
-12.54
-15.42
-18.17
-20.98
-24.18
-28.06
-32.77
-38.16
-43.77
-48.88
-52.68
-54.49
-53.92
-50.87
-45.63
-38.67
-30.6
-22.06
-13.68
-6.01
0.47
5.45
8.85
10.84
11.76
12.06
12.14
12.25
12.54
13.04
13.79
14.84
16.21
17.91
19.81
21.65
23.05
23.65
23.28
22.01
20.14
18.01
15.97
14.16
12.58
11.17
9.82
8.48
7.09
5.57
3.84
1.84
-0.4
-2.8
-5.27
-7.78
-10.37
-13.2
-16.43
-20.17
-24.39
-28.83
-32.98
-36.17
-37.63
-36.76
-33.33
-27.52
-19.94
-11.41
-2.77
5.28
12.22
17.73
21.66
24.02
25.05
25.11
24.74
24.39
24.4
24.93
25.93
27.24
28.61
29.79
30.55
30.73
30.25
29.12
27.39
25.16
22.59
19.91
17.34
15.08
13.21
11.64
10.17
8.56
6.64
4.39
1.92
-0.63
-3.14
-5.63
-8.15
-10.83
-13.77
-17.09
-20.86
-25.19
-30.09
-35.46
-40.96
-46.05
-50.03
-52.16
-51.83
-48.78
-43.18
-35.62
-26.93
-18.05
-9.74
-2.5
3.45
8.12
11.64
14.16
15.89
17.02
17.79
18.48
19.3
20.42
21.88
23.6
25.4
27.04
28.28
28.99
29.09
28.62
27.67
26.28
24.48
22.29
19.79
17.16
14.68
12.6
11.04
9.92
9.04
8.08
6.8
5.11
3.06
0.75
-1.66
-4.1
-6.56
-9.09
-11.73
-14.53
-17.58
-21.0
-24.99
-29.65
-34.9
-40.32
-45.16
-48.46
-49.39
-47.51
-42.9
-36.13
-28.01
-19.39
-10.95
-3.19
3.53
8.94
12.91
15.45
16.79
17.38
17.69
18.18
19.12
20.56
22.36
24.28
26.05
27.51
28.68
29.58
30.31
30.88
31.21
31.13
30.53
29.36
27.67
25.6
23.27
20.78
18.18
15.47
12.62
9.59
6.4
3.05
-0.42
-3.94
-7.4
-10.69
-13.72
-16.45
-18.95
-21.42
-24.13
-27.41
-31.43
-36.09
-40.9
-45.12
-47.85
-48.38
-46.39
-42.04
-35.88
-28.63
-20.99
-13.47
-6.36
0.17
5.93
10.69
14.21
16.35
17.25
17.27
16.93
16.74
17.0
17.72
18.76
19.87
20.88
21.77
22.54
23.13
23.42
23.25
22.57
21.48
20.17
18.84
17.56
16.3
14.94
13.38
11.61
9.63
7.51
5.28
3.0
0.72
-1.52
-3.76
-6.16
-9.0
-12.49
-16.62
-21.01
-24.99
-27.76
-28.69
-27.5
-24.27
-19.37
-13.28
-6.53
0.34
6.8
12.35
16.61
19.4
20.82
21.17
20.82
20.14
19.39
18.74
18.32
18.16
18.22
18.45
18.77
19.08
19.3
19.35
19.07
18.34
17.06
15.21
12.9
10.33
7.66
5.02
2.43
-0.15
-2.71
-5.22
-7.56
-9.69
-11.65
-13.68
-16.06
-19.08
-22.88
-27.34
-32.09
-36.56
-40.15
-42.27
-42.52
-40.68
-36.75
-31.03
-23.99
-16.29
-8.62
-1.53
4.54
9.39
13.0
15.5
17.06
17.96
18.43
18.71
18.93
19.15
19.36
19.54
19.68
19.77
19.87
19.93
19.88
19.62
19.08
18.23
17.13
15.9
14.61
13.33
12.08
10.81
9.45
7.95
6.21
4.14
1.63
-1.35
-4.74
-8.31
-11.76
-14.84
-17.43
-19.69
-21.98
-24.74
-28.34
-32.88
-38.1
-43.41
-47.99
-51.01
-51.8
-50.07
-46.0
-40.09
-33.07
-25.61
-18.21
-11.15
-4.58
1.32
6.31
10.18
12.83
14.36
15.14
15.6
16.14
16.91
17.89
18.92
19.88
20.73
21.54
22.38
23.22
23.89
24.15
23.81
22.78
21.12
19.0
16.64
14.21
11.81
9.47
7.17
4.9
2.65
0.45
-1.71
-3.89
-6.17
-8.63
-11.26
-13.95
-16.6
-19.15
-21.74
-24.64
-28.17
-32.44
-37.23
-42.04
-46.1
-48.71
-49.33
-47.72
-43.91
-38.22
-31.1
-23.13
-14.93
-7.1
-0.14
5.56
9.8
12.6
14.18
14.96
15.42
15.99
16.98
18.48
20.39
22.45
24.42
26.08
27.29
27.97
28.07
27.6
26.62
25.24
23.65
21.97
20.23
18.37
16.26
13.81
11.04
8.13
5.29
2.72
0.51
-1.37
-3.07
-4.79
-6.76
-9.18
-12.24
-15.94
-20.04
-24.02
-27.17
-28.77
-28.37
-25.84
-21.42
-15.62
-9.02
-2.22
4.16
9.57
13.6
16.05
17.07
17.07
16.59
16.14
16.05
16.38
17.03
17.8
18.52
19.09
19.46
19.68
19.79
19.79
19.66
19.34
18.78
17.95
16.86
15.52
13.98
12.3
10.57
8.86
7.17
5.43
3.5
1.23
-1.48
-4.53
-7.7
-10.77
-13.6
-16.24
-18.89
-21.83
-25.32
-29.46
-34.14
-39.03
-43.53
-46.88
-48.38
-47.5
-44.14
-38.61
-31.58
-23.83
-16.07
-8.8
-2.32
3.16
7.51
10.64
12.63
13.77
14.49
15.25
16.31
17.72
19.28
20.68
21.7
22.29
22.54
22.67
22.85
23.08
23.27
23.19
22.63
21.5
19.88
17.98
16.08
14.36
12.88
11.52
10.11
8.49
6.57
4.34
1.82
-0.95
-3.94
-7.09
-10.37
-13.77
-17.35
-21.27
-25.65
-30.53
-35.69
-40.61
-44.55
-46.76
-46.68
-44.17
-39.49
-33.26
-26.17
-18.9
-11.89
-5.45
0.25
5.05
8.83
11.51
13.15
14.01
14.53
15.14
16.18
17.73
19.62
21.51
23.04
23.97
24.23
23.92
23.22
22.3
21.24
20.05
18.69
17.11
15.29
13.24
11.05
8.82
6.64
4.51
2.34
-0.02
-2.7
-5.62
-8.62
-11.41
-13.83
-15.88
-17.78
-19.87
-22.49
-25.82
-29.85
-34.37
-38.99
-43.2
-46.4
-47.98
-47.52
-44.84
-40.11
-33.8
-26.55
-19.0
-11.7
-5.02
0.82
5.7
9.62
12.67
15.0
16.82
18.31
19.6
20.74
21.77
22.7
23.51
24.18
24.69
25.03
25.25
25.4
25.51
25.54
25.38
24.88
23.96
22.63
21.06
19.4
17.78
16.21
14.62
12.93
11.06
8.99
6.73
4.3
1.72
-0.98
-3.7
-6.44
-9.23
-12.23
-15.63
-19.54
-23.87
-28.27
-32.12
-34.71
-35.37
-33.7
-29.72
-23.83
-16.77
-9.38
-2.36
3.82
9.01
13.22
16.54
19.02
20.7
21.68
22.17
22.52
23.03
23.93
25.23
26.74
28.19
29.33
30.02
30.26
30.11
29.65
28.92
27.92
26.63
25.01
23.08
20.85
18.45
15.97
13.59
11.42
9.48
7.66
5.81
3.81
1.59
-0.88
-3.6
-6.56
-9.71
-12.98
-16.2
-19.18
-21.89
-24.39
-26.95
-29.91
-33.5
-37.74
-42.32
-46.66
-50.02
-51.66
-51.01
-47.86
-42.39
-35.18
-27.04
-18.82
-11.22
-4.73
0.44
4.25
6.86
8.57
9.76
10.82
12.06
13.62
15.52
17.66
19.93
22.2
24.35
26.23
27.65
28.46
28.64
28.25
27.4
26.18
24.62
22.68
20.36
17.74
14.96
12.21
9.67
7.45
5.67
4.33
3.43
2.84
2.39
1.84
1.0
-0.31
-2.2
-4.62
-7.46
-10.46
-13.31
-15.84
-18.08
-20.32
-23.03
-26.6
-31.12
-36.3
-41.47
-45.81
-48.52
-49.08
-47.26
-43.18
-37.25
-30.1
-22.49
-15.12
-8.54
-3.06
1.25
4.45
6.65
8.0
8.7
9.0
9.25
9.76
10.74
12.24
14.14
16.19
18.14
19.77
20.98
21.74
22.07
22.06
21.8
21.33
20.7
19.86
18.78
17.4
15.76
13.91
11.97
9.98
7.94
5.82
3.55
1.14
-1.32
-3.76
-6.12
-8.47
-10.98
-13.76
-16.88
-20.27
-23.85
-27.57
-31.39
-35.22
-38.77
-41.49
-42.69
-41.76
-38.4
-32.8
-25.59
-17.6
-9.69
-2.46
3.72
8.74
12.63
15.48
17.39
18.5
19.0
19.22
19.54
20.3
21.67
23.53
25.51
27.19
28.27
28.7
28.62
28.21
27.57
26.67
25.41
23.72
21.68
19.42
17.09
14.75
12.44
10.2
8.08
6.09
4.18
2.2
-0.0
-2.5
-5.18
-7.86
-10.32
-12.53
-14.63
-16.9
-19.6
-22.93
-26.97
-31.65
-36.77
-41.95
-46.61
-49.98
-51.35
-50.21
-46.49
-40.56
-33.09
-24.91
-16.72
-9.05
-2.23
3.55
8.14
11.47
13.59
14.7
15.14
15.34
15.66
16.3
17.26
18.41
19.52
20.44
21.12
21.6
21.96
22.24
22.43
22.45
22.29
21.88
21.23
20.32
19.07
17.49
15.6
13.52
11.39
9.37
7.49
5.71
3.88
1.84
-0.45
-2.99
-5.67
-8.39
-11.12
-13.83
-16.5
-19.12
-21.71
-24.36
-27.28
-30.81
-35.1
-40.06
-45.14
-49.46
-52.04
-52.16
-49.49
-44.29
-37.19
-29.01
-20.53
-12.39
-5.04
1.25
6.38
10.35
13.29
15.37
16.83
17.93
18.89
19.91
21.1
22.43
23.79
25.06
26.13
27.02
27.73
28.31
28.74
28.9
28.74
28.2
27.32
26.13
24.62
22.78
20.65
18.32
15.94
13.7
11.71
9.95
8.29
6.62
4.81
2.82
0.61
-1.86
-4.61
-7.6
-10.72
-13.82
-16.82
-19.74
-22.78
-26.2
-30.25
-35.05
-40.47
-46.08
-51.17
-54.87
-56.36
-55.1
-51.05
-44.65
-36.69
-28.03
-19.37
-11.23
-3.98
2.09
6.73
9.82
11.51
12.21
12.54
13.11
14.33
16.3
18.91
21.83
24.71
27.23
29.16
30.37
30.86
30.76
30.25
29.48
28.58
27.53
26.34
24.95
23.36
21.57
19.63
17.56
15.46
13.4
11.48
9.71
7.97
6.09
3.92
1.4
-1.35
-4.12
-6.7
-9.06
-11.33
-13.75
-16.6
-20.04
-24.08
-28.53
-32.96
-36.77
-39.2
-39.53
-37.3
-32.43
-25.35
-16.84
-7.85
0.79
8.44
14.71
19.43
22.54
24.13
24.42
23.78
22.71
21.76
21.31
21.59
22.55
23.94
25.41
26.65
27.46
27.79
27.77
27.53
27.17
26.68
25.92
24.72
23.0
20.83
18.4
15.96
13.6
11.35
9.12
6.81
4.37
1.84
-0.74
-3.33
-5.9
-8.45
-10.96
-13.44
-15.95
-18.66
-21.8
-25.58
-30.06
-35.11
-40.38
-45.29
-49.2
-51.42
-51.41
-48.89
-43.96
-37.1
-29.04
-20.59
-12.41
-4.99
1.35
6.44
10.2
12.67
14.04
14.67
14.95
15.24
15.71
16.47
17.5
18.83
20.48
22.42
24.52
26.51
28.09
