0
-19.14
-26.63
-32.98
-38.38
-43.48
-49.37
-57.12
-67.44
-80.2
-94.25
-107.4
-116.91
-120.24
-115.77
-103.39
-84.54
-61.73
-37.73
-14.86
5.48
22.8
37.21
48.93
58.13
64.82
69.06
71.13
71.61
71.27
70.82
70.67
70.84
71.05
70.95
70.36
69.41
68.44
67.73
67.33
66.89
65.77
63.27
58.97
52.97
45.83
38.43
31.64
25.92
21.15
16.71
11.74
5.6
-1.83
-10.02
-18.15
-25.44
-31.56
-36.77
-41.78
-47.41
-54.4
-63.19
-73.87
-86.04
-98.63
-109.78
-117.13
-118.37
-112.03
-98.13
-78.26
-55.12
-31.62
-10.01
8.52
23.74
35.92
45.34
52.12
56.24
57.84
57.4
55.76
53.92
52.69
52.5
53.29
54.65
56.07
57.17
57.77
57.8
57.22
55.8
53.25
49.4
44.33
38.48
32.5
26.94
21.98
17.39
12.58
7.04
0.55
-6.68
-14.09
-21.05
-27.14
-32.33
-36.97
-41.71
-47.32
-54.48
-63.53
-74.18
-85.3
-94.96
-100.81
-100.74
-93.61
-79.69
-60.67
-39.07
-17.5
2.04
18.51
31.73
41.96
49.57
54.83
57.92
59.09
58.82
57.78
56.63
55.87
55.69
55.96
56.4
56.75
56.89
56.87
56.75
56.47
55.74
54.08
51.03
46.32
40.09
32.89
25.47
18.52
12.42
7.06
1.97
-3.48
-9.67
-16.6
-23.81
-30.64
-36.54
-41.36
-45.45
-49.54
-54.5
-61.12
-69.84
-80.6
-92.54
-104.01
-112.74
-116.32
-113.0
-102.38
-85.59
-65.02
-43.45
-23.18
-5.45
9.55
22.25
33.12
42.32
49.64
54.84
57.86
59.03
58.95
58.3
57.61
57.11
56.73
56.3
55.65
54.78
53.87
53.11
52.54
51.98
50.97
48.99
45.64
40.89
35.09
28.86
22.88
17.63
13.19
9.27
5.29
0.67
-4.98
-11.61
-18.75
-25.75
-32.03
-37.39
-42.15
-46.95
-52.6
-59.73
-68.67
-79.22
-90.65
-101.54
-109.96
-113.77
-111.26
-101.77
-86.06
-66.21
-44.87
-24.48
-6.56
8.46
20.89
31.2
39.6
45.95
50.05
52.0
52.32
51.86
51.49
51.68
52.43
53.38
54.07
54.18
53.7
52.85
51.92
51.1
50.35
49.41
47.87
45.32
41.54
36.57
30.79
24.77
19.06
14.04
9.76
5.98
2.27
-1.82
-6.63
-12.28
-18.61
-25.19
-31.53
-37.18
-42.04
-46.43
-50.97
-56.43
-63.41
-72.12
-82.28
-92.98
-102.77
-109.79
-112.16
-108.47
-98.41
-82.85
-63.83
-43.75
-24.73
-8.06
5.9
17.35
26.6
33.77
38.8
41.67
42.65
42.36
41.6
41.06
41.12
41.8
42.85
43.98
44.95
45.71
46.22
46.45
46.2
45.14
42.92
39.32
34.44
28.72
22.83
17.38
12.66
8.48
4.27
-0.58
-6.47
-13.28
-20.54
-27.54
-33.77
-39.06
-43.66
-48.19
-53.44
-60.14
-68.74
-79.02
-89.98
-99.78
-106.1
-106.83
-100.78
-88.15
-70.53
-50.32
-29.97
-11.31
4.76
18.09
28.92
37.52
44.0
48.38
50.83
51.7
51.59
51.16
50.91
51.1
51.65
52.27
52.62
52.52
52.03
51.38
50.85
50.48
50.02
48.93
46.68
42.97
37.9
31.97
25.89
20.28
15.4
11.12
6.9
2.09
-3.84
-11.01
-19.04
-27.21
-34.73
-41.13
-46.49
-51.39
-56.71
-63.31
-71.74
-82.05
-93.74
-105.62
-115.8
-122.02
-122.12
-114.83
-100.34
-80.4
-57.77
-35.34
-15.2
1.79
15.76
27.33
36.95
44.75
50.57
54.37
56.38
57.18
57.47
57.88
58.76
60.06
61.5
62.66
63.24
63.18
62.65
61.93
61.23
60.5
59.35
57.3
53.84
48.85
42.59
35.71
28.99
23.05
18.13
13.93
9.81
4.99
-1.02
-8.23
-16.1
-23.81
-30.68
-36.44
-41.42
-46.38
-52.21
-59.62
-68.95
-80.09
-92.4
-104.68
-115.12
-121.51
-121.76
-114.57
-100.04
-79.76
-56.42
-32.95
-11.66
6.27
20.68
32.03
40.83
47.41
51.89
54.39
55.27
55.15
54.79
54.86
55.71
57.29
59.18
60.86
61.89
62.18
61.97
61.61
61.32
60.97
60.05
57.9
54.09
48.61
41.98
35.06
28.65
23.2
18.66
14.47
9.87
4.24
-2.64
-10.47
-18.52
-26.0
-32.34
-37.51
-42.03
-46.84
-52.93
-61.08
-71.51
-83.77
-96.62
-108.18
-116.15
-118.36
-113.27
-100.59
-81.45
-58.18
-33.7
-10.69
9.07
24.85
36.81
45.5
51.45
55.01
56.46
56.2
54.86
53.19
51.88
51.37
51.73
52.81
54.28
55.82
57.06
57.67
57.33
55.79
52.99
49.05
44.2
38.77
33.04
27.18
21.21
15.02
8.41
1.22
-6.63
-14.94
-23.33
-31.33
-38.56
-44.93
-50.77
-56.82
-64.0
-73.13
-84.46
-97.27
-109.77
-119.33
-123.2
-119.39
-107.44
-88.6
-65.5
-41.21
-18.34
1.53
17.9
30.98
41.18
48.76
53.88
56.77
57.81
57.63
56.87
56.04
55.41
55.06
54.98
55.17
55.62
56.3
57.02
57.48
57.25
55.92
53.16
48.9
43.35
36.98
30.38
24.05
18.16
12.5
6.59
-0.06
-7.66
-15.95
-24.35
-32.21
-39.1
-45.07
-50.62
-56.58
-63.91
-73.32
-85.03
-98.37
-111.6
-122.15
-127.21
-124.57
-113.46
-94.89
-71.39
-46.17
-22.13
-1.1
16.35
30.6
42.32
51.98
59.66
65.21
68.58
70.06
70.27
69.97
69.74
69.81
70.06
70.2
70.01
69.51
68.87
68.25
67.6
66.55
64.51
61.01
55.85
49.35
42.24
35.36
29.27
24.07
19.28
14.12
7.9
0.35
-8.25
-17.18
-25.61
-32.95
-39.1
-44.52
-50.06
-56.76
-65.49
-76.64
-89.84
-103.72
-115.98
-123.83
-124.74
-117.28
-101.72
-80.04
-55.3
-30.68
-8.51
10.1
25.18
37.34
47.14
54.75
60.14
63.32
64.66
64.89
64.83
65.06
65.7
66.49
66.99
66.95
66.43
65.75
65.26
65.1
65.01
64.42
62.66
59.21
54.01
47.46
40.35
33.54
27.57
22.49
17.82
12.82
6.89
-0.11
-7.8
-15.47
-22.4
-28.27
-33.23
-37.93
-43.24
-50.07
-59.04
-70.28
-83.11
-95.95
-106.48
-112.12
-110.78
-101.58
-85.26
-63.95
-40.57
-18.02
1.65
17.49
29.57
38.5
44.91
49.23
51.62
52.19
51.24
49.39
47.46
46.24
46.13
47.09
48.65
50.18
51.18
51.39
50.77
49.32
47.04
43.86
39.76
34.87
29.42
23.67
17.81
11.82
5.57
-1.07
-8.07
-15.23
-22.2
-28.72
-34.74
-40.53
-46.64
-53.74
-62.42
-72.88
-84.69
-96.55
-106.41
-111.86
-110.82
-102.3
-86.81
-66.33
-43.65
-21.51
-1.84
14.55
27.7
38.04
45.94
51.54
54.87
56.16
55.9
54.86
53.78
53.18
53.17
53.55
54.0
54.25
54.25
54.06
53.71
53.04
51.68
49.14
45.14
39.78
33.58
27.22
21.2
15.61
10.09
4.11
-2.66
-10.19
-18.03
-25.6
-32.44
-38.43
-43.84
-49.26
-55.44
-63.15
-72.84
-84.44
-96.98
-108.61
-116.82
-119.18
-114.13
-101.58
-83.04
-61.07
-38.52
-17.64
0.34
15.23
27.47
37.64
46.06
52.76
57.61
60.59
61.94
62.19
61.94
61.69
61.66
61.8
61.92
61.87
61.71
61.57
61.59
61.58
61.04
59.27
55.74
50.36
43.61
36.38
29.57
23.75
18.86
14.38
9.55
3.76
-3.11
-10.7
-18.35
-25.37
-31.4
-36.6
-41.57
-47.17
-54.23
-63.28
-74.3
-86.63
-98.83
-108.85
-114.39
-113.52
-105.34
-90.41
-70.65
-48.78
-27.44
-8.43
7.55
20.72
31.64
40.7
47.86
52.91
55.74
56.64
56.35
55.75
55.53
55.95
56.77
57.5
57.69
57.2
56.23
55.19
54.39
53.83
53.14
51.72
49.04
44.91
39.57
33.56
27.54
21.97
16.98
12.35
7.67
2.49
-3.39
-9.92
-16.76
-23.43
-29.44
-34.53
-38.79
-42.69
-47.03
-52.71
-60.43
-70.36
-81.87
-93.45
-102.91
-107.88
-106.49
-98.01
-83.16
-63.9
-42.89
-22.59
-4.66
10.21
22.14
31.54
38.69
43.7
46.61
47.66
47.4
46.54
45.72
45.29
45.29
45.61
46.09
46.71
47.45
48.21
48.72
48.6
47.44
44.99
41.22
36.33
30.68
24.74
18.88
13.33
8.07
2.87
-2.59
-8.48
-14.71
-21.0
-26.94
-32.29
-37.1
-41.79
-47.02
-53.5
-61.72
-71.67
-82.57
-92.84
-100.32
-102.81
-98.81
-88.1
-71.87
-52.38
-32.19
-13.4
2.85
16.26
27.09
35.65
42.08
46.42
48.81
49.64
49.53
49.2
49.21
49.72
50.57
51.39
51.83
51.73
51.21
50.52
49.87
49.2
48.16
46.21
42.88
38.05
32.07
25.65
19.56
14.21
9.55
5.06
0.11
-5.77
-12.56
-19.85
-26.99
-33.42
-38.9
-43.57
-47.94
-52.71
-58.66
-66.42
-76.23
-87.74
-99.73
-110.22
-116.78
-117.16
-110.1
-95.78
-75.89
-53.19
-30.63
-10.46
6.25
19.59
30.32
39.29
46.91
53.13
57.69
60.48
61.78
62.13
62.15
62.24
62.44
62.6
62.54
62.18
61.58
60.81
59.84
58.52
56.65
54.07
50.69
46.54
41.69
36.28
30.51
24.6
18.82
13.37
8.33
3.61
-1.0
-5.76
-10.95
-16.73
-23.09
-29.81
-36.52
-42.77
-48.35
-53.38
-58.4
-64.25
-71.77
-81.51
-93.36
-106.41
-118.91
-128.55
-132.86
-129.96
-119.17
-101.35
-78.82
-54.68
-31.86
-12.31
3.36
15.64
25.48
33.62
40.34
45.47
48.83
50.5
50.97
50.99
51.22
52.02
53.31
54.72
55.84
56.41
56.48
56.27
55.99
55.65
55.0
53.58
50.96
46.94
41.67
35.6
29.34
23.43
18.21
13.69
9.56
5.32
0.44
-5.45
-12.35
-19.9
-27.44
-34.29
-40.05
-44.79
-48.99
-53.41
-58.86
-65.98
-75.04
-85.71
-96.9
-106.81
-113.15
-113.75
-107.28
-93.76
-74.71
-52.71
-30.55
-10.46
6.39
19.86
30.36
38.38
44.11
47.54
48.75
48.18
46.7
45.37
45.01
45.93
47.83
50.01
51.81
52.78
52.92
52.47
51.7
50.7
49.3
47.14
43.86
39.26
33.48
27.01
20.51
14.55
9.3
4.48
-0.52
-6.33
-13.15
-20.7
-28.32
-35.26
-41.09
-45.88
-50.17
-54.83
-60.81
-68.93
-79.52
-92.14
-105.33
-116.68
-123.37
-122.99
-114.43
-98.32
-76.86
-53.08
-29.85
-9.08
8.51
23.14
35.42
45.8
54.38
60.97
65.39
67.73
68.49
68.41
68.25
68.5
69.32
70.52
71.78
72.84
73.58
73.99
74.07
73.69
72.62
70.55
67.28
62.73
57.03
50.5
43.58
36.68
30.19
24.28
18.88
13.71
8.33
2.27
-4.76
-12.71
-21.22
-29.76
-37.71
-44.76
-50.88
-56.44
-62.08
-68.57
-76.68
-86.88
-98.95
-111.76
-123.22
-130.56
-131.15
-123.41
-107.46
-85.16
-59.54
-33.79
-10.33
9.6
25.87
38.97
49.49
57.82
64.12
68.47
71.08
72.33
72.69
72.67
72.59
72.59
72.63
72.56
72.34
71.97
71.57
71.18
70.65
69.65
67.82
64.96
61.1
56.5
51.39
45.93
40.16
34.03
27.69
21.41
15.52
10.22
5.45
0.8
-4.18
-9.98
-16.78
-24.5
-32.75
-40.97
-48.56
-55.15
-60.72
-65.72
-71.02
-77.61
-86.26
-97.09
-109.26
-120.85
-129.21
-131.67
-126.26
-112.5
-91.67
-66.46
-40.19
-15.82
4.78
21.02
33.31
42.47
49.18
53.82
56.57
57.66
57.56
56.93
56.43
56.51
57.22
58.31
59.36
60.04
60.2
59.92
59.42
58.86
58.25
57.39
55.89
53.32
49.45
44.34
38.46
32.5
27.1
22.6
18.82
15.16
10.88
5.47
-1.13
-8.45
-15.73
-22.24
-27.61
-31.94
-35.78
-39.93
-45.25
-52.46
-61.99
-73.69
-86.62
-98.95
-108.21
-111.92
-108.34
-97.13
-79.52
-58.0
-35.43
-14.3
3.89
18.66
30.22
39.03
45.42
49.53
51.45
51.48
50.25
48.61
47.43
47.27
48.15
49.61
51.04
51.91
52.11
51.84
51.4
50.89
50.03
48.27
45.06
40.18
33.86
26.74
19.61
13.09
7.37
2.18
-3.15
-9.37
-16.93
-25.78
-35.28
-44.42
-52.24
-58.21
-62.57
-66.19
-70.33
-76.19
-84.47
-95.15
-107.37
-119.5
-129.26
-134.21
-132.31
-122.55
-105.34
-82.54
-56.97
-31.61
-8.8
10.24
25.38
37.2
46.42
53.6
59.01
62.75
64.98
65.97
66.1
65.72
65.06
64.22
63.26
62.28
61.47
61.03
61.05
61.39
61.61
61.12
59.35
55.83
50.51
43.72
36.17
28.72
22.15
16.8
12.43
8.34
3.59
-2.51
-10.1
-18.74
-27.57
-35.77
-42.82
-48.81
-54.27
-60.05
-67.0
-75.76
-86.5
-98.73
-111.06
-121.39
-127.22
-126.34
-117.62
-101.46
-79.72
-55.22
-30.84
-8.77
9.94
25.19
37.54
47.56
55.61
61.75
65.88
68.09
68.72
68.4
67.84
67.57
67.74
68.15
68.45
68.34
67.79
66.95
66.01
65.02
63.82
62.05
59.35
55.51
50.51
44.62
38.26
31.94
26.07
20.88
16.2
11.57
6.36
0.05
-7.51
-16.0
-24.72
-32.93
-40.18
-46.44
-52.13
-57.93
-64.52
-72.51
-82.28
-93.74
-106.21
-118.18
-127.44
-131.6
-128.79
-118.39
-101.41
-80.21
-57.8
-36.92
-19.33
-5.61
4.6
12.07
17.59
21.77
25.05
27.93
30.95
34.73
39.66
45.74
52.55
59.33
65.39
70.28
74.09
77.13
79.8
82.21
84.09
84.92
84.19
81.64
77.39
71.94
65.89
59.74
53.75
47.82
41.65
34.77
26.83
17.78
7.97
-1.89
-10.95
-18.65
-24.97
-30.52
-36.3
-43.38
-52.47
-63.62
-76.04
-88.2
-97.97
-103.14
-101.98
-93.81
-79.35
-60.55
-40.03
-20.3
-3.0
11.25
22.66
31.76
38.88
44.09
47.32
48.71
48.72
48.11
47.61
47.73
48.54
49.76
50.95
51.71
51.91
51.62
51.05
50.43
49.78
48.91
47.45
44.99
41.31
36.46
30.85
25.13
19.88
15.41
11.65
8.14
4.29
-0.45
-6.31
-13.13
-20.47
-27.69
-34.21
-39.69
-44.25
-48.36
-52.86
-58.64
-66.45
-76.54
-88.48
-100.92
-111.8
-118.67
-119.33
-112.58
-98.67
-79.36
-57.43
-35.71
-16.29
-0.07
13.16
24.14
33.51
41.44
47.67
51.87
54.04
54.63
54.43
54.18
54.35
54.97
55.81
56.57
57.13
57.49
57.68
57.69
57.42
56.7
55.45
53.64
51.25
48.21
44.44
39.86
34.6
28.95
23.35
18.18
13.59
9.42
5.29
0.74
-4.58
-10.73
-17.49
-24.43
-31.07
-37.09
-42.5
-47.57
-52.87
-59.01
-66.48
-75.47
-85.72
-96.34
-105.83
-112.24
-113.58
-108.49
-96.8
-79.67
-59.34
-38.47
-19.23
-2.81
10.66
21.66
30.79
38.33
44.23
48.27
50.47
51.18
51.05
50.81
50.96
51.62
52.54
53.37
53.79
53.75
53.36
52.82
52.23
51.5
50.33
48.33
45.18
40.77
35.3
29.19
23.06
17.45
12.72
8.86
5.49
2.07
-1.93
-6.79
-12.39
-18.31
-24.01
-29.1
-33.47
-37.35
-41.22
-45.66
-51.25
-58.43
-67.36
-77.77
-88.69
-98.43
-104.84
-105.82
-100.06
-87.6
-69.87
-49.37
-28.79
-10.24
5.24
17.64
27.57
35.62
42.03
46.71
49.44
50.32
49.85
48.86
48.15
48.17
48.88
49.88
50.7
51.09
51.1
50.96
50.84
50.59
49.81
47.9
44.41
39.23
32.77
25.79
19.18
13.6
9.18
5.5
1.8
-2.71
-8.44
-15.32
-22.76
-30.04
-36.53
-42.03
-46.77
-51.37
-56.59
-63.15
-71.49
-81.67
-93.08
-104.47
-113.86
-119.02
-118.01
-109.86
-94.99
-75.2
-53.15
-31.49
-12.2
3.88
16.86
27.39
36.07
43.2
48.7
52.39
54.3
54.8
54.6
54.44
54.8
55.75
56.93
57.85
58.14
57.75
56.93
55.98
55.04
53.96
52.36
49.83
46.16
41.41
35.9
30.02
24.09
18.39
13.03
8.02
3.29
-1.37
-6.24
-11.57
-17.53
-24.03
-30.74
-37.25
-43.21
-48.55
-53.56
-58.79
-64.97
-72.78
-82.57
-94.09
-106.28
-117.21
-124.42
-125.57
-119.22
-105.36
-85.54
-62.4
-38.81
-17.12
1.4
16.54
28.78
38.73
46.82
53.14
57.6
60.23
61.32
61.52
61.61
62.19
63.48
65.18
66.75
67.68
67.79
67.26
66.46
65.6
64.66
63.27
61.05
57.78
53.53
48.59
43.33
37.99
32.7
27.53
22.51
17.72
13.16
8.71
4.12
-0.9
-6.55
-12.84
-19.62
-26.62
-33.5
-40.04
-46.17
-52.09
-58.33
-65.64
-74.74
-85.9
-98.54
-111.09
-121.14
-126.08
-123.9
-113.96
-97.21
-75.94
-53.04
-31.11
-11.87
4.06
16.83
26.95
34.77
40.47
44.09
45.87
46.33
46.17
46.09
46.44
47.26
48.28
49.18
49.82
50.28
50.76
51.37
51.97
52.14
51.3
48.99
45.05
39.75
33.74
27.74
22.39
17.89
13.95
9.95
5.13
-0.96
-8.27
-16.17
-23.74
-30.15
-35.09
-38.93
-42.59
-47.25
-53.92
-63.06
-74.39
-86.84
-98.51
-107.06
-110.16
-106.14
-94.62
-76.77
-55.01
-32.25
-11.07
6.99
21.53
32.9
41.75
48.48
53.29
56.21
57.5
57.67
57.43
57.44
58.1
59.38
60.96
62.39
63.29
63.53
63.23
62.58
61.72
60.55
58.69
55.67
51.15
45.16
38.16
30.84
23.89
17.69
12.21
7.07
1.73
-4.27
-11.13
-18.68
-26.51
-34.08
-40.93
-46.94
-52.41
-58.04
-64.76
-73.43
-84.5
-97.65
-111.62
-124.23
-132.83
-134.97
-129.16
-115.43
-95.38
-71.77
-47.58
-25.2
-5.87
10.28
23.8
35.28
44.97
52.73
58.28
61.55
62.89
63.07
63.0
63.39
64.57
66.39
68.36
69.97
70.85
70.9
70.28
69.21
67.82
66.01
63.47
59.89
55.1
49.3
42.97
36.76
31.15
26.25
21.78
17.12
11.63
4.95
-2.92
-11.52
-20.17
-28.2
-35.19
-41.13
-46.43
-51.79
-58.1
-66.19
-76.62
-89.34
-103.46
-117.12
-127.73
-132.57
-129.61
-118.2
-99.39
-75.67
-50.19
-25.84
-4.48
13.23
27.61
39.4
49.22
57.31
63.58
67.96
70.58
71.87
72.4
72.58
72.54
72.12
71.14
69.67
68.06
66.79
66.18
66.09
65.99
65.1
62.79
58.79
53.32
46.96
40.37
34.15
28.64
23.79
19.21
14.28
8.42
1.37
-6.57
-14.69
-22.13
-28.32
-33.27
-37.62
-42.36
-48.52
-56.82
-67.47
-80.0
-93.18
-105.0
-113.0
-114.78
-108.8
-95.04
-75.15
-51.96
-28.59
-7.48
10.11
24.09
34.99
43.38
49.51
53.4
55.06
54.86
53.56
52.15
51.42
51.72
52.88
54.33
55.49
56.02
55.86
55.2
54.17
52.75
50.74
47.91
44.11
39.39
33.94
27.92
21.39
14.32
6.65
-1.5
-9.8
-17.84
-25.2
-31.69
-37.42
-42.79
-48.42
-55.04
-63.33
-73.67
-85.78
-98.39
-109.31
-115.9
-115.78
-107.84
-92.65
-72.32
-49.78
-27.76
-8.1
8.54
22.36
33.89
43.54
51.42
57.5
61.75
64.35
65.65
66.09
66.07
65.83
65.49
65.03
64.47
63.86
63.26
62.72
62.11
61.04
58.99
55.48
50.33
43.81
36.59
29.39
22.72
16.61
10.7
4.44
-2.55
-10.27
-18.36
-26.28
-33.57
-40.04
-45.88
-51.65
-58.13
-66.14
-76.31
-88.62
-102.17
-115.07
-124.76
-128.66
-124.97
-113.35
-95.04
-72.55
-48.8
-26.28
-6.48
10.22
24.2
36.05
46.08
54.25
60.33
64.19
66.09
66.65
66.65
66.73
67.17
67.88
68.58
69.04
69.21
69.18
69.11
68.98
68.57
67.47
65.22
61.52
56.27
49.75
42.51
35.26
28.65
23.03
18.31
13.96
9.23
3.44
-3.63
-11.72
-20.12
-28.04
-34.89
-40.59
-45.55
-50.48
-56.19
-63.4
-72.61
-83.89
-96.72
-109.73
-120.75
-127.14
-126.56
-117.83
-101.43
-79.49
-55.14
-31.46
-10.62
6.53
20.25
31.32
40.43
47.88
53.64
57.58
59.78
60.63
60.68
60.51
60.48
60.68
60.99
61.21
61.23
61.04
60.73
60.39
59.98
59.29
57.97
55.64
52.04
47.14
41.2
34.73
28.33
22.57
17.71
13.63
9.85
5.68
0.54
-5.74
-12.89
-20.25
-27.12
-33.01
-37.91
-42.16
-46.39
-51.32
-57.6
-65.71
-75.81
-87.44
-99.32
-109.36
-115.07
-114.29
-105.96
-90.54
-69.95
-46.96
-24.4
-4.36
12.11
24.96
34.63
41.74
46.67
49.62
50.77
50.54
49.62
48.79
48.68
49.46
50.81
52.15
52.97
53.1
52.72
52.17
51.64
51.03
49.94
47.87
44.46
39.63
33.7
27.21
20.81
14.97
9.82
5.08
0.14
-5.56
-12.27
-19.72
-27.25
-34.08
-39.77
-44.45
-48.8
-53.82
-60.43
-69.21
-80.13
-92.37
-104.33
-113.8
-118.41
-116.28
-106.7
-90.48
-69.76
-47.36
-25.87
-6.98
8.78
21.73
32.49
41.48
48.76
54.16
57.56
59.12
59.32
58.86
58.37
58.27
58.67
59.42
60.21
60.74
60.77
60.25
59.26
57.94
56.34
54.36
51.73
48.17
43.54
38.0
31.96
25.93
20.27
15.12
10.39
5.83
1.14
-3.95
-9.62
-15.85
-22.45
-29.02
-35.11
-40.38
-44.9
-49.13
-53.81
-59.72
-67.41
-77.03
-88.22
-100.06
-110.92
-118.69
-121.12
-116.52
-104.52
-86.29
-64.39
-41.87
-21.3
-4.09
9.66
20.63
29.64
37.15
43.23
47.73
50.59
52.03
52.5
52.5
52.45
52.57
52.94
53.46
54.0
54.45
54.7
54.72
54.47
53.87
52.76
50.92
48.2
44.56
40.13
35.18
30.04
24.95
20.05
15.36
10.82
6.34
1.78
-2.99
-8.12
-13.67
-19.6
-25.71
-31.76
-37.52
-42.85
-47.83
-52.66
-57.74
-63.57
-70.64
-79.33
-89.57
-100.52
-110.46
-117.08
-118.07
-112.01
-98.97
-80.59
-59.57
-38.69
-20.05
-4.54
7.92
17.94
26.09
32.6
37.46
40.65
42.36
43.09
43.47
44.03
44.95
46.06
46.98
47.37
47.13
46.51
45.94
45.73
45.9
46.08
45.74
44.32
41.52
37.38
32.18
26.44
20.69
15.38
10.78
6.87
3.3
-0.43
-4.76
-9.89
-15.58
-21.33
-26.58
-31.01
-34.71
-38.16
-41.99
-46.84
-53.25
-61.51
-71.51
-82.55
-93.15
-101.19
-104.38
-101.05
-90.79
-74.71
-55.09
-34.63
-15.57
0.82
14.25
25.01
33.52
39.98
44.4
46.83
47.54
47.13
46.41
46.12
46.71
48.18
50.16
52.04
53.3
53.64
53.17
52.23
51.17
50.16
49.03
47.35
44.65
40.68
35.51
29.58
23.44
17.59
12.29
7.53
3.08
-1.39
-6.24
-11.73
-17.99
-24.92
-32.21
-39.46
-46.27
-52.53
-58.45
-64.51
-71.39
-79.64
-89.53
-100.72
-112.18
-122.18
-128.54
-129.25
-123.0
-109.84
-91.13
-69.27
-46.89
-26.11
-8.05
7.16
19.97
30.96
40.39
48.22
54.15
58.05
60.04
60.61
60.48
60.39
60.81
61.87
63.28
64.62
65.52
65.82
65.65
65.21
64.59
63.65
62.03
59.39
55.54
50.58
44.86
38.8
32.77
26.95
21.39
16.02
10.66
5.08
-0.95
-7.55
-14.65
-21.95
-29.03
-35.54
-41.37
-46.75
-52.16
-58.2
-65.49
-74.46
-85.24
-97.4
-109.69
-120.07
-126.04
-125.32
-116.76
-100.81
-79.51
-55.83
-32.68
-12.08
5.18
19.38
31.23
41.33
49.88
56.71
61.59
64.56
66.01
66.61
67.07
67.84
69.02
70.39
71.56
72.26
72.36
71.93
71.05
69.75
67.96
65.56
62.48
58.76
54.51
49.85
44.86
39.58
34.11
28.57
23.18
18.08
13.26
8.49
3.41
-2.32
-8.85
-16.03
-23.44
-30.57
-36.98
-42.59
-47.68
-52.89
-59.09
-67.07
-77.29
-89.55
-102.78
-115.03
-123.84
-126.79
-122.26
-110.02
-91.31
-68.56
-44.62
-21.97
-2.18
14.17
27.24
37.45
45.11
50.36
53.25
54.03
53.28
51.87
50.69
50.36
51.0
52.29
53.7
54.79
55.42
55.71
55.81
55.65
54.91
53.05
49.72
44.92
39.11
33.0
27.29
22.41
18.27
14.38
10.02
4.58
-2.14
-9.82
-17.73
-25.06
-31.37
-36.86
-42.29
-48.7
-56.95
-67.42
-79.74
-92.81
-104.87
-113.75
-117.32
-113.97
-103.27
-86.18
-64.88
-42.15
-20.45
-1.3
14.82
28.14
39.02
47.57
53.66
57.23
58.54
58.33
57.58
57.18
57.66
58.97
60.69
62.21
63.08
63.11
62.49
61.61
60.75
59.91
58.71
56.55
52.86
47.51
40.9
33.82
27.16
21.47
16.72
12.37
7.63
1.91
-4.95
-12.61
-20.38
-27.58
-33.89
-39.47
-44.97
-51.29
-59.33
-69.65
-82.26
-96.44
-110.63
-122.53
-129.53
-129.31
-120.7
-104.2
-82.0
-57.39
-33.67
-13.14
3.44
16.69
27.83
37.83
47.01
55.0
61.25
65.5
67.98
69.33
70.24
71.17
72.25
73.3
74.13
74.61
74.77
74.71
74.52
74.07
73.12
71.19
67.85
62.8
56.18
48.48
40.52
33.13
26.82
21.62
17.08
12.5
7.18
0.73
-6.81
-15.03
-23.3
-31.05
-37.92
-43.9
-49.25
-54.53
-60.46
-67.81
-77.19
-88.7
-101.57
-114.08
-123.73
-127.89
-124.62
-113.39
-95.3
-72.77
-48.77
-25.9
-5.76
11.17
25.23
37.05
47.02
55.17
61.28
65.22
67.22
67.91
68.11
68.5
69.39
70.63
71.85
72.67
72.84
72.37
71.44
70.26
69.0
67.68
66.12
63.96
60.76
56.21
50.32
43.48
36.38
29.75
24.01
19.12
14.58
9.73
4.03
-2.67
-10.04
-17.47
-24.32
-30.2
-35.17
-39.66
-44.41
-50.22
-57.73
-67.23
-78.48
-90.58
-101.89
-110.23
-113.36
-109.62
-98.6
-81.42
-60.45
-38.59
-18.32
-1.07
12.92
24.11
33.12
40.19
45.23
48.1
48.95
48.37
47.23
46.29
45.9
46.0
46.32
46.6
46.84
47.2
47.82
48.64
49.3
49.28
48.11
45.56
41.69
36.87
31.6
26.3
21.19
16.17
10.94
5.1
-1.51
-8.81
-16.32
-23.4
-29.51
-34.49
-38.72
-43.03
-48.45
-55.87
-65.61
-77.16
-89.04
-99.04
-104.68
-103.93
-95.89
-81.2
-61.89
-40.77
-20.48
-2.8
11.69
23.31
32.7
40.34
46.25
50.25
52.25
52.53
51.71
50.55
49.64
49.22
49.17
49.15
48.89
48.31
47.54
46.83
46.33
45.93
45.18
43.47
40.25
35.38
29.27
22.73
16.68
11.67
7.68
4.12
0.1
-5.12
-11.78
-19.5
-27.45
-34.7
-40.6
-45.05
-48.56
-52.08
-56.71
-63.36
-72.47
-83.85
-96.47
-108.55
-117.76
-121.74
-118.75
-108.3
-91.4
-70.38
-48.07
-26.97
-8.55
6.8
19.55
30.38
39.68
47.46
53.49
57.63
60.03
61.18
61.69
62.09
62.6
63.16
63.51
63.4
62.77
61.75
60.64
59.66
58.85
57.93
56.41
53.79
49.79
44.49
38.34
32.01
26.11
20.96
16.55
12.52
8.39
3.72
-1.71
-7.89
-14.57
-21.36
-27.85
-33.78
-39.09
-44.0
-48.98
-54.68
-61.77
-70.66
-81.31
-92.97
-104.1
-112.55
-116.04
-112.85
-102.51
-86.08
-65.88
-44.79
-25.28
-8.71
4.74
15.7
24.92
32.78
39.19
43.88
46.78
48.26
48.94
49.45
50.14
50.98
51.77
52.31
52.55
52.56
52.4
52.09
51.56
50.73
49.54
47.95
45.85
43.09
39.52
35.13
30.12
24.88
19.81
15.21
11.09
7.24
3.31
-1.03
-5.89
-11.16
-16.57
-21.75
-26.5
-30.85
-35.05
-39.51
-44.63
-50.75
-58.08
-66.63
-76.09
-85.55
-93.51
-98.02
-97.25
-90.24
-77.31
-60.12
-41.09
-22.58
-6.19
7.51
18.66
27.68
34.81
40.0
43.09
44.13
43.56
42.17
40.84
40.23
40.55
41.55
42.74
43.62
43.9
43.65
43.07
42.37
41.51
40.24
38.1
34.69
29.88
23.97
17.6
11.59
6.54
2.6
-0.63
-3.92
-7.98
-13.15
-19.14
-25.21
-30.58
-34.81
-38.0
-40.82
-44.19
-48.97
-55.74
-64.56
-74.87
-85.37
-94.24
-99.38
-99.04
-92.38
-79.87
-63.16
-44.63
-26.58
-10.58
2.74
13.65
22.75
30.56
37.18
42.36
45.78
47.44
47.68
47.22
46.79
46.79
47.2
47.72
48.0
47.92
47.61
47.33
47.24
47.24
47.03
46.19
44.38
41.42
37.33
32.34
26.88
21.47
16.61
12.54
9.16
5.98
2.38
-2.11
-7.59
-13.78
-20.16
-26.27
-31.84
-36.89
-41.71
-46.67
-52.21
-58.82
-66.88
-76.46
-87.05
-97.33
-105.36
-109.02
-106.69
-97.91
-83.53
-65.52
-46.27
-27.89
-11.67
1.95
13.23
22.61
30.48
36.96
42.01
45.57
47.75
48.8
49.14
49.16
49.12
49.16
49.26
49.39
49.52
49.72
50.0
50.3
50.48
50.26
49.4
47.72
45.17
41.82
37.84
33.44
28.81
24.09
19.4
14.81
10.39
6.2
2.23
-1.62
-5.53
-9.78
-14.56
-19.95
-25.76
-31.58
-36.96
-41.63
-45.64
-49.48
-53.92
-59.82
-67.76
-77.81
-89.22
-100.41
-109.18
-113.24
-110.85
-101.52
-86.17
-66.97
-46.6
-27.39
-10.7
3.2
14.76
24.59
32.99
39.91
45.17
48.72
50.89
52.17
53.07
53.89
54.73
55.54
56.26
56.88
57.44
57.96
58.37
58.55
58.33
57.53
55.97
53.52
50.19
46.08
41.41
36.37
31.14
25.83
20.55
15.47
10.73
6.42
2.37
-1.75
-6.31
-11.55
-17.4
-23.56
-29.65
-35.46
-40.98
-46.48
-52.35
-59.07
-67.07
-76.57
-87.35
-98.44
-108.12
-114.25
-114.88
-108.93
-96.66
-79.54
-59.76
-39.53
-20.51
-3.64
10.77
22.64
31.94
38.59
42.57
44.15
43.93
42.77
41.62
41.19
41.75
43.15
44.92
46.6
47.9
48.79
49.36
49.75
49.9
49.52
48.23
45.73
41.93
37.05
31.55
26.02
20.89
16.29
11.96
7.38
2.01
-4.35
-11.45
-18.63
-25.1
-30.34
-34.31
-37.56
-41.03
-45.74
-52.56
-61.84
-73.23
-85.58
-96.92
-104.93
-107.4
-102.95
-91.5
-74.39
-53.96
-32.86
-13.26
3.64
17.65
29.22
38.89
46.94
53.22
57.46
59.59
59.96
59.36
58.6
58.25
58.4
58.73
58.79
58.27
57.18
55.75
54.24
52.8
51.27
49.29
46.37
42.11
36.36
29.42
22.0
15.0
9.17
4.76
1.41
-1.72
-5.51
-10.46
-16.49
-23.06
-29.42
-35.02
-39.72
-43.86
-48.1
-53.24
-60.05
-69.08
-80.37
-93.23
-106.13
-116.8
-122.73
-121.86
-113.33
-97.8
-77.32
-54.68
-32.53
-12.69
4.12
18.04
29.55
39.02
46.5
51.87
55.16
56.73
57.28
57.58
58.17
59.14
60.21
60.97
61.15
60.77
60.12
59.54
59.23
59.06
58.66
57.49
55.11
51.32
46.22
40.2
33.75
27.34
21.33
15.79
10.6
5.46
0.03
-5.94
-12.43
-19.12
-25.57
-31.34
-36.31
-40.79
-45.43
-51.01
-58.21
-67.38
-78.43
-90.69
-102.88
-113.13
-119.26
-119.25
-112.01
-97.81
-78.36
-56.28
-34.26
-14.21
3.1
17.89
30.76
42.2
52.24
60.57
66.88
71.18
73.83
75.4
76.36
76.87
76.84
76.09
74.66
72.85
71.17
69.98
69.27
68.68
67.67
65.8
62.93
59.2
54.85
50.04
44.82
39.17
33.26
27.37
21.82
16.75
11.97
7.02
1.41
-5.08
-12.28
-19.67
-26.66
-32.86
-38.28
-43.28
-48.52
-54.71
-62.43
-72.02
-83.35
-95.62
-107.28
-116.11
-119.76
-116.44
-105.56
-88.17
-66.59
-43.73
-22.16
-3.44
11.98
24.48
34.66
42.88
49.15
53.27
55.2
55.3
54.27
52.99
52.16
52.05
52.52
53.13
53.49
53.44
53.1
52.7
52.32
51.76
50.54
48.15
44.33
39.27
33.53
27.88
22.95
18.97
15.66
12.35
8.3
3.05
-3.4
-10.57
-17.69
-24.11
-29.58
-34.36
-39.18
-45.0
-52.63
-62.43
-74.1
-86.54
-97.93
-106.07
-108.82
-104.81
-93.82
-76.99
-56.48
-34.85
-14.33
3.65
18.66
30.88
40.72
48.4
53.89
57.11
58.26
57.96
57.17
56.81
57.42
58.95
60.86
62.46
63.28
63.23
62.59
61.76
60.95
60.05
58.6
56.02
51.9
46.17
39.27
31.99
25.14
19.23
14.27
9.78
5.05
-0.53
-7.16
-14.64
-22.46
-30.01
-36.86
-42.86
-48.2
-53.36
-59.09
-66.22
-75.43
-86.89
-99.85
-112.58
-122.56
-127.18
-124.56
-114.18
-97.17
-75.86
-53.05
-31.11
-11.48
5.4
19.77
31.97
42.2
50.39
56.45
60.44
62.73
63.92
64.61
65.2
65.8
66.29
66.49
66.32
65.8
65.06
64.18
63.15
61.82
60.02
57.65
54.62
50.92
46.51
41.38
35.64
29.58
23.65
18.29
13.7
9.71
5.8
1.33
-4.17
-10.78
-18.14
-25.67
-32.82
-39.28
-45.08
-50.56
-56.19
-62.55
-70.24
-79.72
-91.08
-103.74
-116.13
-125.9
-130.36
-127.45
-116.44
-98.35
-75.64
-51.42
-28.44
-8.36
8.38
22.27
34.06
