0
-43.57
-44.95
-44.06
-40.75
-35.37
-28.55
-21.03
-13.53
-6.59
-0.49
4.68
8.95
12.43
15.22
17.4
19.0
20.0
20.38
20.25
19.78
19.22
18.86
18.91
19.41
20.31
21.37
22.34
22.95
23.04
22.61
21.74
20.62
19.44
18.29
17.13
15.88
14.39
12.59
10.47
8.08
5.45
2.6
-0.49
-3.81
-7.22
-10.56
-13.62
-16.28
-18.6
-20.82
-23.25
-26.18
-29.8
-33.94
-38.16
-41.74
-43.92
-44.02
-41.72
-37.11
-30.62
-22.94
-14.84
-6.99
0.07
6.07
10.87
14.52
17.13
18.84
19.75
19.98
19.66
18.93
18.05
17.28
16.82
16.75
16.99
17.47
18.11
18.85
19.62
20.3
20.68
20.51
19.62
18.02
15.89
13.49
11.12
8.95
7.06
5.43
3.99
2.62
1.2
-0.34
-2.07
-3.95
-5.92
-7.93
-10.0
-12.3
-15.01
-18.25
-21.98
-25.95
-29.64
-32.46
-33.79
-33.21
-30.53
-25.9
-19.77
-12.82
-5.77
0.73
6.21
10.48
13.56
15.61
16.84
17.37
17.3
16.68
15.65
14.36
13.06
12.0
11.36
11.25
11.66
12.48
13.49
14.42
15.01
15.06
14.5
13.37
11.84
10.06
8.12
6.01
3.69
1.15
-1.56
-4.3
-6.92
-9.28
-11.28
-12.91
-14.25
-15.48
-16.9
-18.87
-21.69
-25.39
-29.63
-33.64
-36.48
-37.24
-35.4
-31.0
-24.53
-16.73
-8.39
-0.2
7.34
13.89
19.18
23.07
25.62
27.01
27.58
27.64
27.42
26.95
26.23
25.25
24.06
22.83
21.69
20.7
19.82
19.04
18.32
17.65
17.04
16.38
15.5
14.18
12.31
9.93
7.26
4.6
2.24
0.33
-1.12
-2.28
-3.33
-4.48
-5.84
-7.42
-9.12
-10.84
-12.58
-14.46
-16.74
-19.68
-23.42
-27.82
-32.4
-36.41
-39.01
-39.59
-37.83
-33.89
-28.26
-21.63
-14.61
-7.72
-1.27
4.52
9.47
13.47
16.36
18.19
19.08
19.28
19.07
18.68
18.24
17.79
17.36
16.94
16.62
16.52
16.79
17.44
18.35
19.28
19.89
19.88
19.07
17.52
15.41
13.01
10.57
8.31
6.33
4.66
3.26
2.04
0.86
-0.44
-1.94
-3.69
-5.68
-7.85
-10.11
-12.42
-14.82
-17.41
-20.36
-23.79
-27.62
-31.51
-34.84
-36.85
-36.92
-34.8
-30.69
-25.15
-18.87
-12.48
-6.43
-0.99
3.68
7.51
10.46
12.57
13.95
14.74
15.08
15.06
14.79
14.35
13.85
13.39
13.03
12.77
12.64
12.67
12.94
13.48
14.22
14.94
15.34
15.17
14.32
12.92
11.26
9.65
8.39
7.57
7.11
6.73
6.15
5.09
3.48
1.41
-0.88
-3.14
-5.25
-7.17
-8.98
-10.82
-12.83
-15.17
-17.95
-21.26
-24.96
-28.69
-31.78
-33.48
-33.16
-30.63
-26.16
-20.44
-14.3
-8.4
-3.13
1.44
5.4
8.78
11.54
13.57
14.78
15.25
15.16
14.81
14.46
14.25
14.2
14.23
14.25
14.21
14.12
14.06
14.1
14.33
14.72
15.16
15.47
15.45
14.95
13.94
12.46
10.68
8.75
6.73
4.64
2.44
0.08
-2.41
-5.02
-7.72
-10.53
-13.48
-16.64
-20.01
-23.53
-27.09
-30.54
-33.7
-36.34
-38.15
-38.76
-37.78
-34.93
-30.19
-23.87
-16.53
-8.93
-1.83
4.25
9.06
12.64
15.25
17.16
18.57
19.5
19.86
19.58
18.72
17.52
16.34
15.53
15.26
15.52
16.08
16.72
17.19
17.39
17.26
16.79
15.93
14.68
13.04
11.03
8.71
6.15
3.42
0.62
-2.18
-4.92
-7.56
-10.09
-12.45
-14.52
-16.2
-17.44
-18.34
-19.2
-20.42
-22.35
-25.08
-28.31
-31.42
-33.57
-34.06
-32.49
-28.94
-23.81
-17.74
-11.35
-5.08
0.79
6.08
10.64
14.32
16.96
18.53
19.07
18.79
17.93
16.73
15.35
13.97
12.77
11.94
11.68
12.08
13.11
14.55
16.01
17.15
17.69
17.54
16.76
15.45
13.74
11.81
9.79
7.84
6.03
4.33
2.57
0.58
-1.75
-4.34
-6.94
-9.24
-11.04
-12.31
-13.24
-14.12
-15.26
-16.9
-19.17
-22.08
-25.45
-28.92
-31.88
-33.71
-33.76
-31.68
-27.46
-21.51
-14.5
-7.29
-0.55
5.19
9.78
13.26
15.77
17.42
18.24
18.23
17.43
16.06
14.38
12.72
11.26
10.04
9.05
8.27
7.76
7.72
8.24
9.27
10.56
11.77
12.56
12.73
12.22
11.14
9.63
7.93
6.16
4.41
2.71
1.03
-0.71
-2.51
-4.31
-6.04
-7.64
-9.08
-10.47
-11.97
-13.72
-15.89
-18.52
-21.65
-25.2
-28.97
-32.54
-35.36
-36.76
-36.25
-33.57
-28.93
-22.87
-16.15
-9.44
-3.26
2.21
6.95
10.97
14.22
16.57
17.9
18.18
17.6
16.41
14.95
13.48
12.19
11.27
10.82
10.9
11.43
12.25
13.12
13.81
14.2
14.26
13.98
13.35
12.35
11.04
9.56
8.19
7.13
6.44
5.94
5.33
4.31
2.79
0.89
-1.11
-2.91
-4.4
-5.63
-6.84
-8.43
-10.68
-13.79
-17.77
-22.4
-27.26
-31.79
-35.32
-37.2
-36.87
-34.1
-29.01
-22.14
-14.39
-6.71
0.07
5.48
9.4
12.02
13.58
14.31
14.39
13.96
13.18
12.19
11.12
10.09
9.16
8.47
8.15
8.31
8.98
10.06
11.38
12.72
13.88
14.74
15.18
15.14
14.53
13.32
11.56
9.4
7.0
4.56
2.18
-0.18
-2.57
-5.05
-7.6
-10.06
-12.25
-14.0
-15.37
-16.56
-17.95
-19.86
-22.38
-25.38
-28.41
-30.98
-32.6
-32.91
-31.78
-29.22
-25.5
-21.0
-16.18
-11.42
-7.0
-3.07
0.25
2.8
4.47
5.21
5.21
4.94
5.06
6.09
8.3
11.62
15.65
19.93
24.03
27.63
30.57
32.74
34.06
34.47
33.94
32.54
30.39
27.68
24.71
21.75
19.01
16.45
13.89
11.01
7.62
3.73
-0.36
-4.2
-7.47
-10.03
-12.03
-13.81
-15.71
-18.02
-20.89
-24.38
-28.42
-32.77
-36.9
-40.09
-41.6
-40.85
-37.71
-32.43
-25.71
-18.39
-11.24
-4.83
0.57
4.93
8.34
10.96
12.89
14.23
15.11
15.63
15.93
16.05
15.98
15.71
15.22
14.66
14.21
14.06
14.32
14.98
15.89
16.88
17.79
18.49
18.87
18.8
18.19
17.0
15.3
13.24
10.95
8.51
5.93
3.12
0.04
-3.26
-6.63
-9.85
-12.78
-15.32
-17.51
-19.46
-21.32
-23.25
-25.39
-27.85
-30.64
-33.61
-36.34
-38.23
-38.57
-36.87
-32.99
-27.27
-20.43
-13.29
-6.54
-0.54
4.59
8.97
12.68
15.73
18.03
19.48
20.01
19.73
18.84
17.63
16.47
15.63
15.28
15.43
15.94
16.65
17.42
18.21
19.0
19.78
20.44
20.85
20.87
20.38
19.36
17.83
15.88
13.66
11.29
8.86
6.45
4.01
1.48
-1.18
-3.91
-6.6
-9.14
-11.46
-13.65
-15.89
-18.36
-21.26
-24.7
-28.66
-32.97
-37.16
-40.61
-42.58
-42.44
-39.93
-35.17
-28.72
-21.31
-13.69
-6.48
-0.06
5.35
9.68
13.0
15.41
17.06
18.06
18.47
18.45
18.15
17.83
17.71
17.97
18.64
19.63
20.79
21.95
22.96
23.75
24.22
24.28
23.85
22.88
21.37
19.44
17.23
14.91
12.55
10.18
7.72
5.08
2.17
-1.01
-4.32
-7.6
-10.68
-13.43
-15.87
-18.12
-20.37
-22.89
-25.85
-29.29
-33.01
-36.52
-39.15
-40.21
-39.21
-36.02
-30.9
-24.43
-17.3
-10.15
-3.42
2.64
7.95
12.56
16.5
19.75
22.22
23.75
24.15
23.38
21.61
19.18
16.57
14.28
12.66
11.86
11.8
12.19
12.73
13.15
13.35
13.4
13.41
13.44
13.43
13.19
12.51
11.34
9.7
7.74
5.61
3.34
0.93
-1.64
-4.3
-6.96
-9.57
-12.24
-15.2
-18.72
-22.94
-27.66
-32.29
-35.97
-37.87
-37.34
-34.22
-28.82
-21.87
-14.26
-6.83
-0.15
5.59
10.43
14.52
17.94
20.63
22.45
23.28
23.19
22.38
21.15
19.83
18.67
17.85
17.49
17.66
18.35
19.46
20.74
21.88
22.53
22.48
21.61
20.01
17.88
15.45
12.99
10.64
8.39
6.1
3.57
0.7
-2.51
-5.92
-9.35
-12.7
-15.97
-19.23
-22.58
-26.13
-29.96
-34.08
-38.37
-42.55
-46.1
-48.33
-48.54
-46.27
-41.43
-34.4
-25.93
-16.94
-8.26
-0.54
5.92
11.11
15.22
18.47
21.03
22.98
24.31
25.01
25.1
24.68
23.9
22.94
21.98
21.23
20.81
20.81
21.15
21.67
22.16
22.43
22.39
22.0
21.29
20.23
18.82
17.05
14.99
12.77
10.51
8.25
5.94
3.5
0.89
-1.89
-4.73
-7.56
-10.43
-13.53
-17.09
-21.31
-26.23
-31.62
-36.97
-41.59
-44.76
-45.85
-44.56
-40.89
-35.25
-28.23
-20.57
-12.92
-5.8
0.52
5.92
10.45
14.22
17.28
19.65
21.29
22.18
22.4
22.12
21.64
21.22
21.02
21.06
21.29
21.62
21.96
22.21
22.32
22.16
21.64
20.7
19.39
17.82
16.1
14.38
12.71
11.08
9.4
7.58
5.5
3.14
0.57
-2.09
-4.7
-7.19
-9.68
-12.36
-15.46
-19.15
-23.46
-28.25
-33.14
-37.62
-41.05
-42.81
-42.4
-39.55
-34.38
-27.35
-19.15
-10.56
-2.25
5.29
11.77
17.09
21.21
24.13
25.86
26.48
26.13
25.08
23.65
22.21
21.01
20.18
19.64
19.28
18.97
18.63
18.25
17.86
17.46
16.98
16.31
15.41
14.3
13.09
11.9
10.76
9.56
8.11
6.27
3.98
1.4
-1.25
-3.75
-6.04
-8.19
-10.42
-12.99
-16.07
-19.81
-24.2
-29.07
-34.03
-38.43
-41.44
-42.25
-40.32
-35.65
-28.77
-20.59
-12.12
-4.14
2.92
8.93
13.92
17.85
20.63
22.15
22.4
21.56
19.99
18.06
16.08
14.21
12.52
11.05
9.94
9.35
9.48
10.32
11.69
13.22
14.55
15.39
15.64
15.36
14.63
13.54
12.08
10.29
8.22
5.99
3.76
1.63
-0.36
-2.27
-4.22
-6.4
-9.01
-12.25
-16.23
-20.95
-26.13
-31.24
-35.56
-38.35
-39.06
-37.42
-33.56
-27.92
-21.15
-13.95
-6.98
-0.73
4.57
8.83
12.14
14.59
16.26
17.18
17.37
16.91
16.02
14.99
14.19
13.84
14.08
14.88
16.1
17.57
19.07
20.36
21.16
21.16
20.21
18.3
15.68
12.69
9.71
7.01
4.64
2.47
0.3
-2.04
-4.65
-7.49
-10.44
-13.33
-16.06
-18.67
-21.29
-24.14
-27.39
-31.01
-34.72
-37.98
-40.04
-40.19
-38.0
-33.4
-26.77
-18.86
-10.54
-2.65
4.25
9.85
14.17
17.33
19.58
21.06
21.9
22.13
21.83
21.08
20.03
18.9
17.9
17.22
16.96
17.11
17.57
18.14
18.58
18.68
18.25
17.24
15.7
13.77
11.64
9.53
7.57
5.74
3.92
1.94
-0.32
-2.86
-5.52
-8.08
-10.37
-12.33
-14.06
-15.62
-17.14
-18.73
-20.55
-22.83
-25.76
-29.31
-33.0
-36.01
-37.34
-36.21
-32.33
-26.13
-18.52
-10.6
-3.27
3.02
8.25
12.63
16.35
19.45
21.79
23.19
23.63
23.3
22.53
21.67
20.88
20.13
19.33
18.42
17.53
16.86
16.6
16.73
17.0
17.07
16.62
15.52
13.87
11.93
9.97
8.2
6.72
5.49
4.4
3.28
1.93
0.24
-1.81
-4.16
-6.68
-9.29
-11.96
-14.75
-17.75
-21.01
-24.62
-28.6
-32.97
-37.51
-41.81
-45.16
-46.73
-45.87
-42.3
-36.32
-28.7
-20.47
-12.56
-5.71
-0.21
3.98
7.18
9.88
12.6
15.68
19.19
22.91
26.45
29.34
31.29
32.25
32.39
32.01
31.44
30.91
30.48
30.04
29.45
28.52
27.16
25.39
23.26
20.89
18.33
15.57
12.6
9.41
6.04
2.54
-1.0
-4.52
-7.93
-11.11
-13.92
-16.27
-18.17
-19.76
-21.31
-23.15
-25.59
-28.72
-32.34
-35.92
-38.62
-39.63
-38.36
-34.71
-29.12
-22.32
-15.13
-8.13
-1.65
4.18
9.24
13.41
16.51
18.44
19.25
19.15
18.33
17.01
15.35
13.55
11.85
10.53
9.86
10.01
10.92
12.36
13.97
15.33
16.1
16.08
15.25
13.74
11.77
9.57
7.29
5.03
2.81
0.64
-1.49
-3.52
-5.44
-7.19
-8.76
-10.21
-11.63
-13.21
-15.17
-17.7
-20.91
-24.71
-28.85
-32.83
-35.95
-37.44
-36.63
-33.17
-27.23
-19.52
-11.06
-2.88
4.27
10.08
14.6
18.04
20.54
22.16
22.86
22.65
21.68
20.2
18.5
16.82
15.38
14.34
13.83
13.95
14.68
15.86
17.3
18.75
19.94
20.62
20.55
19.58
17.74
15.22
12.37
9.53
6.95
4.62
2.44
0.19
-2.29
-5.06
-8.08
-11.21
-14.3
-17.23
-20.02
-22.8
-25.81
-29.25
-33.18
-37.37
-41.27
-44.18
-45.41
-44.44
-41.11
-35.6
-28.41
-20.24
-11.9
-4.12
2.59
7.95
11.94
14.69
16.44
17.45
17.94
18.1
17.99
17.66
17.12
16.47
15.89
15.64
15.91
16.71
17.89
19.16
20.24
20.98
21.32
21.31
20.98
20.28
19.18
17.67
15.82
13.75
11.54
9.22
6.76
4.11
1.32
-1.55
-4.39
-7.07
-9.53
-11.76
-13.84
-15.95
-18.27
-21.0
-24.21
-27.85
-31.65
-35.11
-37.64
-38.68
-37.8
-34.88
-30.13
-24.02
-17.21
-10.34
-3.89
1.83
6.73
10.8
14.1
16.63
18.37
19.28
19.34
18.59
17.19
15.4
13.56
12.02
11.03
10.73
11.13
12.1
13.45
14.96
16.39
17.51
18.15
18.15
17.47
16.14
14.3
12.08
9.66
7.19
4.81
2.53
0.31
-1.94
-4.29
-6.75
-9.21
-11.52
-13.55
-15.29
-16.81
-18.3
-19.99
-22.04
-24.58
-27.59
-30.83
-33.85
-35.99
-36.57
-35.11
-31.49
-26.05
-19.43
-12.39
-5.57
0.58
5.84
10.11
13.4
15.77
17.33
18.26
18.71
18.8
18.53
17.93
17.05
16.01
15.02
14.26
13.86
13.78
13.93
14.14
14.27
14.27
14.13
13.9
13.55
13.04
12.24
11.05
9.51
7.68
5.7
3.67
1.63
-0.46
-2.66
-5.01
-7.51
-10.09
-12.72
-15.36
-18.07
-20.98
-24.2
-27.73
-31.34
-34.57
-36.74
-37.16
-35.37
-31.31
-25.36
-18.23
-10.73
-3.55
2.88
8.34
12.77
16.13
18.36
19.48
19.46
18.44
16.63
14.33
11.9
9.66
7.9
6.78
6.33
6.48
7.07
7.93
8.86
9.69
10.28
10.56
10.48
10.04
9.31
8.34
7.25
6.11
4.98
3.84
2.6
1.12
-0.73
-2.98
-5.48
-8.0
-10.27
-12.22
-13.96
-15.86
-18.34
-21.63
-25.67
-29.98
-33.82
-36.35
-36.94
-35.29
-31.52
-26.07
-19.54
-12.61
-5.86
0.24
5.39
9.38
12.24
14.06
15.12
15.67
15.94
16.06
16.07
15.98
15.85
15.73
15.73
15.96
16.47
17.24
18.25
19.39
20.54
21.5
22.11
22.18
21.63
20.41
18.59
16.27
13.56
10.64
7.62
4.65
1.73
-1.15
-4.05
-7.02
-10.05
-12.97
-15.64
-17.91
-19.84
-21.64
-23.66
-26.2
-29.43
-33.21
-37.08
-40.39
-42.46
-42.72
-40.9
-37.07
-31.6
-25.05
-18.04
-11.14
-4.83
0.6
5.03
8.44
10.91
12.53
13.35
13.46
12.94
11.99
10.91
10.05
9.72
10.07
11.07
12.54
14.29
16.14
17.91
19.48
20.65
21.29
21.29
20.69
19.6
18.19
16.59
14.85
12.98
11.04
9.01
6.94
4.81
2.61
0.27
-2.21
-4.79
-7.42
-10.04
-12.67
-15.39
-18.3
-21.53
-25.19
-29.28
-33.65
-38.01
-41.77
-44.25
-44.77
-42.92
-38.68
-32.48
-25.04
-17.2
-9.62
-2.72
3.31
8.48
12.83
16.31
18.9
20.54
21.28
21.26
20.68
19.74
18.64
17.45
16.27
15.16
14.27
13.75
13.73
14.3
15.35
16.63
17.83
18.67
18.97
18.67
17.84
16.6
15.03
13.22
11.21
9.11
7.0
4.91
2.81
0.63
-1.76
-4.37
-7.17
-10.02
-12.86
-15.76
-18.88
-22.42
-26.46
-30.76
-34.7
-37.54
-38.53
-37.23
-33.67
-28.27
-21.76
-14.82
-8.04
-1.76
3.85
8.7
12.69
15.73
17.75
18.74
18.8
18.07
16.76
15.09
13.34
11.81
10.81
10.57
11.1
12.24
13.67
15.02
16.0
16.43
16.3
15.66
14.65
13.36
11.9
10.32
8.61
6.67
4.43
1.83
-1.05
-4.02
-6.93
-9.72
-12.51
-15.57
-19.11
-23.26
-27.86
-32.62
-37.07
-40.76
-43.23
-44.04
-42.83
-39.4
-33.83
-26.53
-18.24
-9.83
-2.11
4.37
9.4
13.09
15.74
17.63
18.96
19.73
19.87
19.4
18.47
17.41
16.62
16.35
16.65
17.33
18.11
18.74
19.11
19.23
19.12
18.8
18.22
17.29
15.92
14.03
11.6
8.72
5.52
2.24
-0.91
-3.78
-6.34
-8.69
-10.92
-13.15
-15.48
-18.06
-21.09
-24.71
-28.89
-33.2
-36.9
-39.05
-38.91
-36.17
-31.08
-24.3
-16.68
-9.01
-1.83
4.53
9.9
14.24
17.51
19.77
21.16
21.88
22.15
22.13
21.91
21.49
20.85
20.04
19.22
18.6
18.38
18.62
19.19
19.79
20.08
19.79
18.84
17.32
15.45
13.43
11.42
9.46
7.53
5.53
3.37
1.02
-1.53
-4.14
-6.71
-9.14
-11.43
-13.69
-16.16
-19.11
-22.76
-27.15
-32.05
-36.86
-40.74
-42.8
-42.36
-39.24
-33.77
-26.7
-18.91
-11.14
-3.87
2.69
8.39
13.15
16.85
19.46
21.05
21.84
22.06
21.94
21.56
21.02
20.38
19.78
19.37
19.32
19.72
20.55
21.69
22.93
23.99
24.6
24.61
23.97
22.75
21.12
19.16
16.93
14.39
11.49
8.26
4.76
1.11
-2.55
-6.15
-9.68
-13.1
-16.37
-19.44
-22.31
-25.07
-27.87
-30.85
-34.05
-37.22
-39.83
-41.11
-40.36
-37.15
-31.56
-24.14
-15.76
-7.26
0.76
7.93
14.06
19.03
22.67
24.89
25.74
25.45
24.42
23.04
21.59
20.21
18.94
17.81
16.88
16.25
16.01
16.2
16.74
17.43
18.03
18.32
18.12
17.4
16.2
14.67
12.97
11.18
9.36
7.52
5.72
4.0
2.39
0.86
-0.67
-2.27
-3.99
-5.81
-7.73
-9.77
-12.1
-14.96
-18.53
-22.84
-27.67
-32.5
-36.62
-39.3
-39.94
-38.21
-34.14
-28.12
-20.83
-13.11
-5.69
0.9
6.39
10.77
14.19
16.8
18.71
19.99
20.64
20.71
20.32
19.61
18.74
17.89
17.18
16.71
16.56
16.71
17.1
17.57
17.9
17.88
17.34
16.22
14.62
12.69
10.59
8.5
6.5
4.62
2.88
1.21
-0.45
-2.16
-3.96
-5.82
-7.68
-9.55
-11.53
-13.82
-16.62
-20.11
-24.23
-28.72
-33.11
-36.74
-38.99
-39.36
-37.61
-33.82
-28.34
-21.65
-14.31
-6.83
0.39
7.01
12.82
17.7
21.57
24.45
26.33
27.24
27.22
26.45
25.18
23.76
22.46
21.43
20.66
20.07
19.61
19.26
19.06
18.94
18.77
18.34
17.47
16.04
14.12
11.83
9.28
6.56
3.7
0.72
-2.3
-5.26
-8.09
-10.73
-13.19
-15.49
-17.69
-19.87
-22.13
-24.59
-27.34
-30.39
-33.61
-36.72
-39.25
-40.57
-40.1
-37.37
-32.3
-25.23
-16.92
-8.29
-0.22
6.72
12.25
16.37
19.2
20.86
21.5
21.34
20.58
19.5
18.32
17.2
16.2
15.4
14.88
14.71
14.95
15.63
16.72
18.04
19.42
20.58
21.24
21.17
20.23
18.44
15.95
13.02
9.94
6.96
4.15
1.48
-1.21
-4.03
-7.03
-10.07
-12.97
-15.54
-17.7
-19.56
-21.38
-23.44
-25.91
-28.82
-31.98
-35.06
-37.63
-39.2
-39.32
-37.64
-34.05
-28.76
-22.24
-15.14
-8.04
-1.37
4.62
9.85
14.22
17.62
19.92
21.06
21.17
20.47
19.32
18.07
16.97
16.2
15.82
15.82
16.13
16.68
17.38
18.21
19.08
19.87
20.39
20.46
19.94
18.86
17.43
15.85
14.32
12.81
11.19
9.23
6.79
3.9
0.74
-2.42
-5.36
-7.99
-10.39
-12.71
-15.13
-17.73
-20.51
-23.42
-26.44
-29.55
-32.67
-35.56
-37.71
-38.47
-37.27
-33.87
-28.57
-22.07
-15.25
-8.8
-3.05
1.96
6.31
10.04
13.07
15.32
16.73
17.42
17.57
17.38
17.02
16.66
16.48
16.59
17.07
17.86
18.8
19.65
20.24
20.53
20.53
20.27
19.79
19.06
18.04
16.72
15.2
13.54
11.87
10.23
8.61
6.89
4.93
2.59
-0.17
-3.26
-6.51
-9.68
-12.62
-15.33
-17.98
-20.8
-24.03
-27.73
-31.73
-35.66
-38.89
-40.73
-40.53
-37.92
-32.99
-26.23
-18.48
-10.62
-3.4
2.78
7.84
11.83
14.87
16.97
18.08
18.18
17.33
15.75
13.77
11.7
9.81
8.33
7.34
6.9
6.93
7.3
7.78
8.15
8.21
7.88
7.19
6.25
5.21
4.17
3.15
2.13
0.97
-0.43
-2.11
-4.01
-6.0
-7.89
-9.53
-10.89
-12.09
-13.27
-14.67
-16.45
-18.76
-21.59
-24.73
-27.79
-30.21
-31.29
-30.51
-27.6
-22.71
-16.43
-9.57
-2.97
2.76
7.4
11.0
13.78
15.92
17.45
18.28
18.32
17.57
16.15
14.37
12.49
10.81
9.52
8.78
8.65
9.14
10.18
11.62
13.24
14.75
15.89
16.42
16.16
15.08
13.26
10.84
7.95
4.7
1.2
-2.43
-6.03
-9.45
-12.6
-15.48
-18.21
-20.91
-23.69
-26.51
-29.33
-32.13
-34.83
-37.28
-39.17
-40.02
-39.33
-36.76
-32.28
-26.19
-19.06
-11.52
-4.18
2.46
8.12
12.64
16.04
18.44
19.98
20.86
21.21
21.13
20.7
20.0
19.12
18.18
17.31
16.64
16.28
16.28
16.57
16.97
17.23
17.13
16.58
15.66
14.51
13.29
12.03
10.69
9.13
7.21
4.84
2.05
-1.05
-4.29
-7.55
-10.73
-13.83
-16.84
-19.77
-22.63
-25.5
-28.51
-31.75
-35.17
-38.46
-40.97
-41.96
-40.81
-37.25
-31.57
-24.44
-16.65
-8.91
-1.69
4.73
10.16
14.49
17.61
19.53
20.36
20.33
19.72
18.81
17.8
16.81
15.9
15.07
14.38
13.92
13.8
14.11
14.84
15.87
16.92
17.74
18.09
17.93
17.24
16.15
14.78
13.24
11.68
10.15
8.63
6.95
4.96
2.52
-0.33
-3.43
-6.54
-9.46
-12.15
-14.78
-17.65
-21.11
-25.35
-30.26
-35.35
-39.83
-42.75
-43.34
-41.19
-36.47
-29.77
-21.96
-13.9
-6.27
0.5
6.23
10.91
14.63
17.55
19.75
21.23
21.93
21.74
20.7
19.03
17.15
15.51
14.49
14.25
14.73
15.72
16.9
17.98
18.76
19.1
18.99
18.47
17.55
16.25
14.55
12.48
10.1
7.5
4.8
2.08
-0.6
-3.18
-5.56
-7.67
-9.51
-11.22
-13.08
-15.49
-18.65
-22.54
-26.78
-30.66
-33.37
-34.2
-32.77
-29.12
-23.69
-17.19
-10.34
-3.75
2.18
7.24
11.36
14.5
16.67
17.93
18.38
18.17
17.43
16.3
14.85
13.27
11.78
10.71
10.33
10.76
11.87
13.3
14.68
15.63
15.99
15.74
15.03
14.02
12.79
11.36
9.62
7.44
4.82
1.86
-1.26
-4.36
-7.4
-10.48
-13.75
-17.29
-21.08
-24.98
-28.8
-32.38
-35.55
-37.98
-39.23
-38.76
-36.2
-31.45
-24.88
-17.18
-9.11
-1.39
5.51
11.29
15.89
19.27
21.52
22.82
23.34
23.33
22.98
22.47
21.94
21.55
21.41
21.65
22.27
23.19
24.19
25.02
25.41
25.2
24.33
22.94
21.25
19.44
17.63
15.81
13.9
11.8
9.49
6.96
4.27
1.45
-1.5
-4.58
-7.76
-11.02
-14.33
-17.75
-21.42
-25.51
-30.09
-35.01
-39.88
-44.01
-46.66
-47.11
-44.93
-40.1
-32.99
-24.34
-15.01
-5.85
2.47
9.55
15.18
19.36
22.19
23.9
24.73
24.97
24.85
24.51
24.05
23.49
22.87
22.25
21.74
21.48
21.57
22.07
22.94
24.03
25.08
25.79
25.92
25.34
24.08
22.23
19.86
16.99
13.6
9.74
5.61
1.46
-2.44
-5.95
-9.06
-11.85
-14.44
-16.93
-19.48
-22.32
-25.71
-29.84
-34.5
-39.07
-42.6
-44.16
-43.17
-39.62
-34.03
-27.18
-19.83
-12.52
-5.58
0.76
6.35
11.01
14.63
17.17
18.72
19.47
19.62
19.4
18.96
18.41
17.9
17.5
17.38
17.65
18.31
19.26
20.24
20.91
20.98
20.35
19.09
17.38
15.41
13.3
11.13
8.89
6.59
4.25
1.87
-0.57
-3.05
-5.54
-7.97
-10.26
-12.45
-14.69
-17.18
-20.16
-23.73
-27.73
-31.73
-35.07
-36.95
-36.76
-34.17
-29.36
-22.94
-15.77
-8.66
-2.19
3.4
8.09
11.93
14.95
17.06
18.15
18.18
17.24
15.58
13.52
11.45
9.68
8.42
7.76
7.66
7.99
8.59
9.29
9.91
10.33
10.42
10.13
9.49
8.6
7.59
6.47
5.23
3.77
2.06
0.12
-1.95
-4.09
-6.29
-8.66
-11.37
-14.53
-18.18
-22.23
-26.48
-30.59
-34.09
-36.41
-36.98
-35.4
-31.56
-25.76
-18.61
-10.91
-3.39
3.37
9.03
13.49
16.83
19.23
20.84
21.77
22.08
21.79
20.98
19.88
18.78
17.96
17.6
17.72
18.24
18.98
19.78
20.45
20.81
20.67
19.93
18.61
16.85
14.87
12.84
10.81
8.71
6.45
3.95
1.29
-1.43
-4.04
-6.45
-8.68
-10.84
-13.11
-15.67
-18.73
-22.41
-26.66
-31.22
-35.66
-39.31
-41.49
-41.56
-39.14
-34.25
-27.31
-19.18
-10.85
-3.26
3.0
7.79
11.36
14.05
16.17
17.79
18.8
19.07
18.61
17.58
16.26
14.95
13.82
12.97
12.44
12.3
12.57
13.24
14.15
15.07
15.72
15.88
15.45
14.47
13.08
11.5
9.91
8.37
6.89
5.28
3.44
1.25
-1.2
-3.75
-6.21
-8.48
-10.62
-12.71
-14.95
-17.49
-20.48
-23.98
-27.87
-31.8
-35.09
-36.92
-36.56
-33.73
-28.67
-22.13
-15.05
-8.21
-2.05
3.31
7.97
11.97
15.22
17.58
18.9
19.18
18.55
17.31
15.73
14.07
12.53
11.2
10.21
9.64
9.55
9.96
10.79
11.85
12.84
13.5
13.64
13.3
12.62
11.83
11.12
10.53
9.94
9.14
7.89
6.04
3.6
0.7
-2.44
-5.63
-8.72
-11.64
-14.41
-17.19
-20.16
-23.52
-27.34
-31.39
-35.2
-38.03
-39.16
-38.12
-34.82
-29.57
-22.99
-15.81
-8.67
-2.09
3.62
8.3
11.95
14.68
16.63
17.95
18.66
18.78
18.3
17.33
16.09
14.86
13.91
13.42
13.46
13.95
14.73
15.56
16.18
16.37
16.03
15.19
13.97
12.53
10.99
9.29
7.37
5.12
2.55
-0.3
-3.32
-6.38
-9.38
-12.24
-14.95
-17.57
-20.28
-23.26
-26.65
-30.38
-34.1
-37.23
-39.12
-39.17
-37.02
-32.63
-26.29
-18.59
-10.27
-2.13
5.18
11.27
15.97
19.34
21.54
22.7
22.95
22.39
21.2
19.55
17.7
15.91
14.4
13.34
12.83
12.83
13.22
13.73
14.1
14.1
13.61
12.65
11.28
9.59
7.6
5.28
2.64
-0.26
-3.25
-6.13
-8.77
-11.08
-13.15
-15.12
-17.16
-19.34
-21.7
-24.28
-27.14
-30.33
-33.7
-36.82
-38.98
-39.36
-37.39
-33.0
-26.68
-19.31
-11.79
-4.81
1.38
6.82
11.7
16.13
20.04
23.25
25.58
26.93
27.34
26.92
25.85
24.35
22.65
21.0
19.68
18.92
18.86
19.44
20.39
21.27
21.61
21.11
19.68
17.48
14.8
11.91
8.95
5.95
2.84
-0.39
-3.65
-6.79
-9.55
-11.77
-13.42
-14.62
-15.65
-16.84
-18.53
-20.91
-24.02
-27.69
-31.55
-35.1
-37.7
-38.79
-37.92
-34.92
-29.98
-23.62
-16.53
-9.44
-2.93
2.65
7.2
10.75
13.47
15.49
16.93
17.82
18.15
17.9
17.11
15.92
14.54
13.3
12.5
12.32
12.83
13.88
15.23
16.56
17.54
17.95
17.68
16.74
15.23
13.27
10.99
8.49
5.89
3.33
0.94
-1.21
-3.2
-5.18
-7.33
-9.76
-12.45
-15.29
-18.1
-20.83
-23.51
-26.26
-29.13
-32.01
-34.52
-36.12
-36.21
-34.36
-30.44
-24.74
-17.89
-10.63
-3.62
2.69
8.15
12.76
16.54
19.49
21.56
22.68
22.91
22.38
21.3
19.91
18.43
17.06
15.99
15.35
15.2
15.46
15.98
16.54
16.97
17.15
16.99
16.48
15.61
14.47
13.14
11.75
10.33
8.78
6.89
4.44
1.43
-2.0
-5.53
-8.87
-11.81
-14.35
-16.58
-18.63
-20.66
-22.77
-25.1
-27.77
-30.76
-33.83
-36.5
-38.07
-37.93
-35.66
-31.27
-25.18
-18.14
-10.95
-4.33
1.34
5.95
9.63
12.51
14.67
16.05
16.64
16.45
15.67
14.56
13.41
12.39
11.55
10.85
10.31
9.98
9.98
10.4
11.25
12.35
13.46
14.29
14.61
14.29
13.33
11.81
9.92
7.82
5.61
3.39
1.13
-1.17
-3.55
-5.96
-8.35
-10.66
-12.93
-15.33
-18.03
-21.23
-24.89
-28.77
-32.41
-35.22
-36.64
-36.24
-33.86
-29.59
-23.85
-17.23
-10.39
-3.89
1.87
6.75
10.75
13.99
16.52
18.36
19.49
19.92
19.72
19.02
18.02
16.9
15.85
14.96
14.33
14.0
13.99
14.28
14.81
15.44
15.96
16.1
15.67
14.55
12.84
10.84
8.84
7.07
5.47
3.78
1.64
-1.17
-4.63
-8.44
-12.21
-15.57
-18.33
-20.55
-22.47
-24.43
-26.81
-29.88
-33.68
-37.88
-41.81
-44.57
-45.32
-43.58
-39.32
-33.03
-25.42
-17.3
-9.37
-2.18
3.98
8.95
12.79
15.62
17.64
19.01
19.78
19.98
19.65
18.96
18.17
17.6
17.49
17.95
18.94
20.33
21.89
23.38
24.66
25.57
26.02
25.88
25.09
23.54
21.26
18.43
15.34
12.25
9.36
6.68
4.11
1.51
-1.16
-3.84
-6.42
-8.89
-11.29
-13.84
-16.69
-19.99
-23.76
-27.97
-32.48
-36.99
-40.91
-43.54
-44.15
-42.27
-37.88
-31.43
-23.72
-15.65
-8.02
-1.35
4.15
8.52
11.91
14.47
16.22
17.14
17.12
16.2
14.68
13.05
11.9
11.68
12.56
14.33
16.6
18.91
20.94
22.55
23.7
24.39
24.57
24.17
23.1
21.42
19.27
16.85
14.31
11.68
8.87
5.79
2.38
-1.24
-4.91
-8.47
-11.83
-15.02
-18.21
-21.5
-25.05
-28.9
-32.98
-37.04
-40.54
-42.75
-42.89
-40.45
-35.41
-28.28
-19.98
-11.45
-3.43
3.71
9.88
15.15
19.48
22.82
25.05
26.09
26.03
25.06
23.55
21.92
20.6
19.84
19.71
20.08
20.69
21.33
21.83
22.09
21.99
21.42
20.25
18.48
16.22
13.65
10.97
8.25
5.44
2.46
-0.75
-4.08
-7.41
-10.6
-13.68
-16.78
-20.17
-24.01
-28.34
-32.85
-37.0
-40.01
-41.16
-39.93
-36.22
-30.35
-22.94
-14.75
-6.5
1.33
8.39
14.47
19.44
23.19
25.62
26.71
26.56
25.38
23.54
21.46
19.57
18.19
17.46
17.4
17.88
18.71
19.7
20.68
21.45
21.82
21.62
20.78
19.28
17.21
14.7
11.91
8.95
5.96
3.01
0.12
-2.76
-5.75
-8.98
-12.47
-16.22
-20.13
-24.18
-28.33
-32.6
-36.83
-40.65
-43.49
-44.65
-43.55
-39.94
-33.94
-26.08
-17.15
-8.0
0.57
8.04
14.11
18.77
22.13
24.39
25.7
26.2
25.98
25.1
23.71
22.01
20.34
19.03
18.36
18.42
19.09
20.08
21.07
21.81
22.19
22.19
21.83
21.1
19.91
18.24
16.12
13.65
10.99
8.21
5.34
2.32
-0.84
-4.08
-7.22
-10.11
-12.65
-14.89
-17.09
-19.66
-22.95
-27.11
-31.87
-36.53
-40.11
-41.66
-40.54
-36.71
-30.58
-22.94
-14.67
-6.55
0.88
7.25
12.41
16.35
19.24
21.31
22.78
23.79
24.38
24.51
24.16
23.38
22.36
21.32
20.51
20.07
20.04
20.31
20.71
20.98
20.93
20.47
19.62
18.46
17.11
15.58
13.87
11.89
9.64
7.18
4.64
2.13
-0.26
-2.55
-4.77
-6.98
-9.24
-11.66
-14.38
-17.59
-21.4
-25.82
-30.54
-35.04
-38.57
-40.38
-39.93
-36.99
-31.77
-24.85
-16.98
-8.95
-1.35
5.45
11.29
16.12
19.93
22.69
24.44
25.23
25.23
24.62
23.6
22.36
21.13
20.11
19.47
19.29
19.54
19.99
20.41
20.5
20.09
19.14
17.72
15.96
14.02
12.0
9.91
7.7
5.28
2.59
-0.37
-3.56
-6.93
-10.45
-14.13
-18.0
-22.03
-26.18
-30.45
-34.75
-38.92
-42.57
-45.12
-45.88
-44.31
-40.24
-33.98
-26.27
-17.95
-9.78
-2.24
4.46
10.23
15.05
18.86
21.58
23.18
23.69
23.21
21.94
20.14
18.2
16.48
15.25
14.58
14.34
14.25
14.08
13.64
12.97
12.15
11.3
10.45
9.5
8.3
6.75
4.82
2.58
