0
1.36
-1.51
-4.54
-7.6
-10.52
-13.12
-15.28
-17.08
-18.73
-20.61
-23.12
-26.5
-30.74
-35.41
-39.83
-43.12
-44.52
-43.48
-39.89
-34.06
-26.59
-18.26
-9.82
-1.86
5.22
11.16
15.82
19.11
21.11
22.03
22.15
21.75
21.02
20.0
18.73
17.26
15.8
14.59
13.88
13.76
14.17
14.92
15.82
16.66
17.28
17.54
17.33
16.62
15.44
13.97
12.38
10.78
9.19
7.5
5.58
3.25
0.47
-2.72
-6.16
-9.6
-12.88
-15.92
-18.8
-21.74
-24.98
-28.68
-32.76
-36.88
-40.41
-42.61
-42.79
-40.59
-36.06
-29.71
-22.33
-14.74
-7.59
-1.24
4.21
8.82
12.58
15.42
17.18
17.79
17.34
16.12
14.6
13.22
12.28
11.88
11.95
12.33
12.92
13.64
14.47
15.28
15.9
16.07
15.61
14.46
12.78
10.84
8.89
7.06
5.28
3.36
1.11
-1.54
-4.52
-7.69
-10.84
-13.86
-16.67
-19.31
-21.88
-24.55
-27.41
-30.5
-33.57
-36.18
-37.71
-37.56
-35.38
-31.15
-25.2
-18.09
-10.48
-2.96
4.02
10.12
15.18
19.17
22.07
23.93
24.8
24.78
24.05
22.89
21.59
20.46
19.65
19.22
19.14
19.34
19.74
20.27
20.82
21.24
21.36
21.09
20.36
19.25
17.85
16.26
14.54
12.67
10.56
8.15
5.43
2.47
-0.65
-3.79
-6.91
-10.01
-13.06
-16.06
-18.92
-21.64
-24.33
-27.26
-30.72
-34.82
-39.3
-43.52
-46.59
-47.64
-46.15
-42.04
-35.76
-28.04
-19.71
-11.45
-3.7
3.26
9.31
14.33
18.17
20.73
21.96
21.99
21.12
19.75
18.25
16.9
15.81
15.06
14.69
14.79
15.41
16.49
17.87
19.28
20.47
21.25
21.53
21.28
20.48
19.16
17.38
15.29
13.14
11.09
9.16
7.2
4.98
2.32
-0.76
-4.03
-7.15
-9.87
-12.13
-14.13
-16.17
-18.58
-21.53
-25.07
-29.03
-33.09
-36.83
-39.66
-40.98
-40.24
-37.14
-31.74
-24.53
-16.31
-7.94
-0.2
6.43
11.74
15.72
18.4
19.89
20.33
20.0
19.26
18.47
17.83
17.42
17.13
16.84
16.52
16.23
16.17
16.47
17.09
17.83
18.36
18.36
17.65
16.23
14.27
12.03
9.75
7.6
5.68
3.94
2.35
0.81
-0.79
-2.51
-4.38
-6.35
-8.33
-10.27
-12.2
-14.3
-16.76
-19.84
-23.59
-27.9
-32.41
-36.53
-39.6
-40.99
-40.25
-37.23
-32.13
-25.44
-17.87
-10.13
-2.82
3.69
9.2
13.64
16.95
19.05
19.8
19.15
17.22
14.25
10.72
7.13
3.99
1.64
0.19
-0.42
-0.37
0.17
1.05
2.2
3.5
4.82
6.02
7.07
8.01
8.98
10.05
11.12
11.95
12.19
11.58
10.07
7.89
5.35
2.77
0.32
-2.0
-4.37
-6.99
-10.02
-13.46
-17.07
-20.34
-22.67
-23.56
-22.74
-20.28
-16.43
-11.52
-5.78
0.54
7.09
13.43
19.03
23.51
26.8
29.1
30.77
32.1
33.17
33.89
34.17
34.04
33.72
33.5
33.62
34.04
34.45
34.27
32.85
29.67
24.57
17.78
9.94
1.81
-5.88
-12.66
-18.34
-22.94
-26.55
-29.34
-31.47
-33.14
-34.52
-35.65
-36.4
-36.51
-35.66
-33.69
-30.7
-26.93
-22.71
-18.21
-13.4
-8.13
-2.29
4.05
10.47
16.36
21.04
24.03
25.21
24.79
23.17
20.78
17.89
14.57
10.77
6.45
1.67
-3.33
-8.15
-12.32
-15.49
-17.41
-18.13
-17.86
-16.94
-15.67
-14.25
-12.76
-11.21
-9.69
-8.35
-7.39
-6.92
-6.95
-7.34
-7.96
-8.73
-9.73
-11.02
-12.66
-14.54
-16.44
-18.16
-19.66
-21.11
-22.89
-25.36
-28.66
-32.51
-36.15
-38.5
-38.51
-35.47
-29.26
-20.44
-9.98
0.92
11.26
20.31
27.66
33.19
36.91
38.93
39.45
38.77
37.26
35.31
33.22
31.18
29.21
27.26
25.37
23.59
22.09
21.0
20.4
20.28
20.53
20.99
21.49
21.87
21.91
21.46
20.38
18.67
16.45
13.92
11.26
8.58
5.91
3.26
0.69
-1.75
-4.06
-6.36
-8.9
-11.99
-15.87
-20.61
-26.1
-32.05
-38.02
-43.47
-47.8
-50.4
-50.75
-48.51
-43.7
-36.6
-27.84
-18.23
-8.67
0.12
7.64
13.71
18.47
22.17
25.05
27.18
28.44
28.7
27.9
26.25
24.14
22.08
20.45
19.51
19.27
19.59
20.26
21.08
21.92
22.67
23.21
23.4
23.09
22.18
20.69
18.78
16.69
14.63
12.75
11.01
9.24
7.23
4.82
2.01
-1.07
-4.24
-7.31
-10.18
-12.91
-15.66
-18.67
-22.15
-26.17
-30.53
-34.8
-38.32
-40.4
-40.45
-38.23
-33.78
-27.53
-20.08
-12.1
-4.18
3.21
9.78
15.3
19.64
22.73
24.55
25.17
24.81
23.76
22.4
21.02
19.82
18.89
18.25
17.86
17.73
17.85
18.21
18.72
19.23
19.54
19.45
18.87
17.84
16.51
15.09
13.69
12.32
10.82
9.03
6.82
4.21
1.38
-1.5
-4.23
-6.79
-9.22
-11.59
-13.99
-16.51
-19.26
-22.38
-25.96
-29.93
-33.93
-37.32
-39.36
-39.39
-37.11
-32.62
-26.46
-19.37
-12.05
-5.07
1.27
6.79
11.47
15.23
18.07
19.97
20.99
21.26
20.93
20.18
19.19
18.14
17.22
16.58
16.35
16.55
17.11
17.87
18.58
19.05
19.12
18.71
17.82
16.51
14.83
12.81
10.53
8.05
5.49
3.0
0.69
-1.4
-3.31
-5.15
-7.05
-9.09
-11.35
-13.91
-16.85
-20.25
-24.07
-28.1
-31.97
-35.16
-37.12
-37.45
-35.89
-32.42
-27.21
-20.65
-13.24
-5.58
1.76
8.28
13.64
17.64
20.2
21.34
21.21
20.03
18.15
15.98
13.92
12.25
11.15
10.64
10.6
10.91
11.38
11.85
12.15
12.18
11.92
11.43
10.82
10.17
9.48
8.63
7.44
5.82
3.78
1.47
-0.88
-3.07
-5.05
-6.86
-8.7
-10.75
-13.25
-16.36
-20.15
-24.55
-29.28
-33.83
-37.52
-39.65
-39.63
-37.19
-32.41
-25.75
-17.9
-9.67
-1.82
5.09
10.67
14.81
17.54
19.05
19.6
19.46
18.88
18.07
17.2
16.4
15.76
15.34
15.14
15.13
15.26
15.48
15.78
16.1
16.37
16.44
16.17
15.43
14.22
12.65
10.86
9.0
7.11
5.14
3.0
0.62
-2.03
-4.86
-7.72
-10.49
-13.06
-15.49
-17.94
-20.66
-23.88
-27.65
-31.74
-35.61
-38.51
-39.71
-38.68
-35.3
-29.85
-22.95
-15.34
-7.73
-0.66
5.5
10.52
14.28
16.75
18.03
18.35
17.98
17.19
16.16
15.01
13.84
12.8
12.09
11.86
12.17
12.94
13.99
15.07
15.95
16.46
16.42
15.74
14.44
12.66
10.69
8.79
7.1
5.6
4.04
2.2
-0.07
-2.7
-5.47
-8.09
-10.37
-12.27
-14.03
-15.99
-18.49
-21.73
-25.61
-29.74
-33.51
-36.21
-37.26
-36.25
-33.1
-28.01
-21.48
-14.25
-7.06
-0.55
4.93
9.33
12.79
15.47
17.43
18.6
18.91
18.38
17.21
15.69
14.13
12.76
11.77
11.28
11.39
12.11
13.33
14.79
16.2
17.25
17.75
17.64
16.89
15.55
13.71
11.54
9.25
7.05
5.02
3.08
1.07
-1.17
-3.65
-6.2
-8.63
-10.81
-12.78
-14.75
-16.99
-19.7
-22.94
-26.58
-30.31
-33.64
-35.96
-36.69
-35.38
-31.92
-26.52
-19.76
-12.36
-5.05
1.54
7.01
11.21
14.18
16.07
17.11
17.49
17.38
16.86
16.05
15.09
14.15
13.4
12.98
12.92
13.18
13.67
14.23
14.7
14.94
14.82
14.33
13.49
12.39
11.09
9.57
7.81
5.76
3.43
0.91
-1.67
-4.17
-6.51
-8.64
-10.59
-12.44
-14.35
-16.51
-19.13
-22.29
-25.93
-29.69
-33.0
-35.17
-35.63
-33.98
-30.24
-24.72
-18.04
-10.92
-4.04
2.09
7.11
10.84
13.2
14.25
14.13
13.13
11.63
9.98
8.52
7.47
6.93
6.94
7.42
8.24
9.23
10.24
11.11
11.78
12.21
12.35
12.16
11.59
10.64
9.35
7.77
5.9
3.72
1.21
-1.64
-4.73
-7.89
-10.97
-13.81
-16.31
-18.46
-20.36
-22.22
-24.32
-26.79
-29.5
-31.93
-33.28
-32.78
-30.0
-25.07
-18.65
-11.69
-5.0
0.89
5.85
9.98
13.41
16.12
18.0
18.9
18.78
17.83
16.4
14.94
13.8
13.16
13.01
13.21
13.65
14.26
15.05
15.97
16.88
17.55
17.72
17.23
16.04
14.27
12.09
9.66
7.12
4.59
2.15
-0.17
-2.37
-4.49
-6.59
-8.71
-10.83
-12.88
-14.89
-16.96
-19.3
-22.16
-25.61
-29.49
-33.27
-36.21
-37.52
-36.64
-33.41
-28.24
-21.86
-15.13
-8.73
-2.98
2.11
6.69
10.82
14.41
17.22
19.04
19.83
19.71
18.97
17.91
16.78
15.71
14.82
14.17
13.86
13.93
14.34
14.93
15.43
15.59
15.23
14.36
13.11
11.67
10.23
8.92
7.78
6.73
5.67
4.39
2.71
0.51
-2.16
-5.11
-8.05
-10.72
-13.05
-15.17
-17.38
-20.0
-23.22
-26.96
-30.82
-34.17
-36.26
-36.43
-34.3
-29.93
-23.81
-16.74
-9.52
-2.82
3.04
7.95
11.95
15.06
17.25
18.49
18.81
18.36
17.4
16.23
15.1
14.16
13.53
13.25
13.32
13.74
14.43
15.28
16.13
16.84
17.21
17.1
16.43
15.21
13.58
11.74
9.85
7.99
6.1
4.02
1.62
-1.1
-4.01
-6.89
-9.53
-11.87
-14.02
-16.22
-18.77
-21.85
-25.43
-29.31
-33.04
-36.07
-37.83
-37.84
-35.82
-31.83
-26.18
-19.46
-12.33
-5.37
1.02
6.58
11.17
14.67
16.99
18.17
18.38
17.92
17.13
16.28
15.52
14.87
14.34
13.92
13.68
13.66
13.87
14.28
14.79
15.23
15.48
15.36
14.81
13.84
12.57
11.17
9.77
8.42
7.08
5.65
4.03
2.25
0.33
-1.68
-3.75
-5.88
-8.1
-10.44
-12.95
-15.7
-18.75
-22.16
-25.85
-29.57
-32.89
-35.24
-36.06
-34.97
-31.91
-27.16
-21.26
-14.83
-8.44
-2.45
2.95
7.68
11.68
14.82
16.99
18.11
18.22
17.54
16.33
14.9
13.5
12.36
11.61
11.31
11.45
11.96
12.74
13.69
14.65
15.43
15.82
15.65
14.86
13.58
12.05
10.47
9.0
7.57
6.05
4.3
2.27
0.08
-2.14
-4.28
-6.31
-8.3
-10.38
-12.67
-15.24
-18.15
-21.33
-24.57
-27.53
-29.69
-30.58
-29.79
-27.21
-22.99
-17.54
-11.4
-5.07
1.01
6.52
11.23
14.95
17.51
18.84
18.99
18.19
16.74
15.05
13.43
12.13
11.28
10.95
11.17
11.9
12.99
14.2
15.22
15.81
15.86
15.41
14.62
13.63
12.49
11.11
9.39
7.26
4.78
2.09
-0.63
-3.24
-5.66
-7.88
-9.95
-11.95
-14.0
-16.25
-18.84
-21.82
-25.08
-28.28
-30.85
-32.12
-31.53
-28.76
-23.93
-17.54
-10.32
-3.07
3.58
9.22
13.66
16.93
19.07
20.2
20.45
19.98
19.0
17.79
16.61
15.69
15.16
15.04
15.22
15.56
15.97
16.4
16.87
17.39
17.87
18.18
18.08
17.43
16.19
14.43
12.31
10.04
7.76
5.6
3.59
1.71
-0.12
-1.96
-3.84
-5.74
-7.63
-9.51
-11.46
-13.63
-16.17
-19.18
-22.54
-25.97
-29.05
-31.29
-32.3
-31.77
-29.58
-25.82
-20.74
-14.78
-8.46
-2.28
3.37
8.23
12.13
15.01
16.82
17.6
17.45
16.6
15.35
14.01
12.89
12.19
12.03
12.39
13.12
14.08
15.08
16.02
16.84
17.52
18.01
18.18
17.91
17.08
15.7
13.92
11.95
10.01
8.18
6.42
4.61
2.57
0.24
-2.39
-5.13
-7.74
-9.97
-11.7
-13.07
-14.37
-16.04
-18.32
-21.27
-24.62
-27.86
-30.44
-31.89
-31.84
-30.11
-26.72
-21.87
-16.0
-9.66
-3.43
2.23
7.04
10.88
13.7
15.47
16.18
15.87
14.77
13.16
11.47
10.06
9.16
8.87
9.14
9.83
10.73
11.68
12.59
13.42
14.21
14.9
15.38
15.43
14.86
13.53
11.55
9.19
6.78
4.58
2.66
0.89
-0.94
-3.0
-5.24
-7.47
-9.43
-10.98
-12.16
-13.21
-14.46
-16.13
-18.26
-20.72
-23.27
-25.61
-27.43
-28.4
-28.2
-26.56
-23.37
-18.82
-13.3
-7.38
-1.58
3.68
8.18
11.78
14.45
16.17
16.96
16.92
16.26
15.19
13.97
12.81
11.86
11.2
10.89
10.93
11.28
11.86
12.58
13.28
13.77
13.87
13.48
12.57
11.25
9.68
8.06
6.5
5.03
3.58
2.05
0.33
-1.6
-3.69
-5.84
-7.83
-9.54
-10.9
-11.98
-13.06
-14.4
-16.27
-18.74
-21.73
-25.02
-28.28
-31.08
-32.94
-33.36
-31.98
-28.77
-23.96
-18.14
-11.98
-6.14
-1.02
3.19
6.47
8.88
10.47
11.32
11.48
11.11
10.38
9.5
8.67
8.02
7.65
7.57
7.78
8.23
8.9
9.7
10.49
11.13
11.44
11.29
10.67
9.63
8.29
6.79
5.27
3.83
2.52
1.34
0.2
-1.05
-2.58
-4.46
-6.59
-8.8
-10.83
-12.57
-14.06
-15.53
-17.28
-19.52
-22.23
-25.2
-27.99
-30.07
-30.97
-30.38
-28.17
-24.47
-19.62
-14.04
-8.23
-2.59
2.5
6.8
10.11
12.37
13.62
13.98
13.62
12.77
11.64
10.49
9.57
9.06
9.04
9.42
10.0
10.62
11.15
11.56
11.88
12.11
12.19
12.0
11.41
10.4
9.03
7.41
5.68
3.93
2.21
0.48
-1.28
-3.1
-4.95
-6.74
-8.39
-9.86
-11.22
-12.65
-14.43
-16.77
-19.74
-23.24
-26.93
-30.39
-33.16
-34.81
-35.02
-33.57
-30.49
-25.99
-20.49
-14.51
-8.55
-2.99
1.93
6.06
9.33
11.67
13.08
13.63
13.5
13.0
12.41
11.98
11.78
11.76
11.8
11.75
11.61
11.47
11.49
11.83
12.48
13.23
13.78
13.8
13.16
11.9
10.21
8.3
6.3
4.26
2.18
0.1
-1.92
-3.84
-5.64
-7.37
-9.11
-10.88
-12.68
-14.48
-16.28
-18.14
-20.21
-22.61
-25.41
-28.49
-31.51
-33.97
-35.23
-34.78
-32.35
-28.05
-22.36
-15.9
-9.32
-3.1
2.46
7.19
11.0
13.89
15.87
17.02
17.49
17.43
17.04
16.52
16.1
15.94
16.16
16.74
17.54
18.37
19.04
19.43
19.52
19.27
18.64
17.62
16.2
14.5
12.73
11.07
9.61
8.27
6.83
5.03
2.73
-0.02
-2.98
-5.8
-8.23
-10.15
-11.66
-12.98
-14.39
-16.1
-18.24
-20.86
-23.89
-27.17
-30.33
-32.83
-34.05
-33.43
-30.69
-25.97
-19.77
-12.84
-5.91
0.47
5.97
10.47
13.97
16.49
18.05
18.72
18.64
18.05
17.21
16.38
15.71
15.28
15.04
14.93
14.94
15.07
15.43
16.05
16.9
17.77
18.39
18.49
17.92
16.72
15.03
13.1
11.11
9.16
7.28
5.46
3.65
1.82
-0.13
-2.25
-4.59
-7.11
-9.73
-12.36
-14.96
-17.55
-20.19
-22.99
-25.95
-28.99
-31.89
-34.27
-35.67
-35.63
-33.83
-30.24
-25.15
-19.08
-12.66
-6.39
-0.55
4.74
9.37
13.18
15.91
17.38
17.56
16.67
15.11
13.39
11.89
10.85
10.33
10.33
10.76
11.59
12.76
14.15
15.6
16.89
17.78
18.1
17.75
16.71
15.12
13.17
11.05
8.93
6.9
4.9
2.81
0.55
-1.89
-4.4
-6.83
-9.03
-10.93
-12.62
-14.29
-16.17
-18.45
-21.13
-24.11
-27.02
-29.33
-30.49
-29.97
-27.49
-23.12
-17.26
-10.55
-3.7
2.61
7.97
12.15
15.13
16.99
17.87
17.89
17.25
16.16
14.91
13.76
12.93
12.5
12.43
12.62
13.0
13.54
14.3
15.27
16.38
17.33
17.81
17.53
16.38
14.53
12.27
9.95
7.79
5.86
4.07
2.32
0.55
-1.28
-3.13
-5.01
-6.88
-8.74
-10.53
-12.26
-13.95
-15.75
-17.9
-20.63
-23.99
-27.78
-31.44
-34.25
-35.41
-34.42
-31.2
-26.13
-19.92
-13.35
-7.03
-1.3
3.86
8.55
12.87
16.73
19.93
22.18
23.3
23.36
22.56
21.25
19.81
18.52
17.6
17.18
17.33
18.01
19.11
20.41
21.56
22.26
22.31
21.72
20.62
19.21
17.64
16.04
14.44
12.88
11.39
9.94
8.47
6.84
4.96
2.76
0.34
-2.12
-4.39
-6.34
-7.96
-9.41
-10.96
-12.9
-15.46
-18.73
-22.64
-26.86
-30.88
-34.1
-35.86
-35.73
-33.53
-29.45
-23.94
-17.59
-10.94
-4.44
1.63
7.01
11.56
15.13
17.67
19.2
19.83
19.76
19.2
18.41
17.59
16.94
16.54
16.39
16.39
16.44
16.51
16.66
16.97
17.47
18.03
18.35
18.15
17.26
15.71
13.77
11.77
9.97
8.48
7.22
6.02
4.73
3.25
1.6
-0.2
-2.07
-3.98
-5.87
-7.74
-9.59
-11.48
-13.52
-15.91
-18.75
-22.05
-25.65
-29.15
-31.99
-33.55
-33.34
-31.08
-26.87
-21.12
-14.48
-7.67
-1.29
4.25
8.74
12.16
14.53
15.93
16.43
16.18
15.4
14.41
13.49
12.86
12.6
12.72
13.14
13.82
14.72
15.75
16.78
17.6
17.98
17.84
17.22
16.26
15.14
13.99
12.79
11.51
10.09
8.53
6.86
5.12
3.29
1.35
-0.7
-2.78
-4.72
-6.33
-7.56
-8.5
-9.42
-10.65
-12.46
-14.93
-18.03
-21.54
-25.14
-28.44
-30.94
-32.19
-31.78
-29.51
-25.48
-20.07
-13.89
-7.54
-1.6
3.59
7.88
11.24
13.74
15.49
16.54
16.93
16.67
15.81
14.55
13.18
12.03
11.38
11.36
11.91
12.86
13.97
15.02
15.86
16.37
16.47
16.11
15.27
14.0
12.42
10.68
8.95
7.34
5.92
4.62
3.32
1.87
0.18
-1.71
-3.67
-5.51
-7.07
-8.31
-9.29
-10.21
-11.29
-12.8
-14.9
-17.67
-20.99
-24.52
-27.78
-30.2
-31.28
-30.69
-28.37
-24.46
-19.32
-13.41
-7.24
-1.32
3.93
8.2
11.37
13.38
14.38
14.54
14.08
13.24
12.2
11.12
10.08
9.18
8.54
8.33
8.7
9.67
11.17
12.91
14.55
15.78
16.41
16.35
15.64
14.33
12.53
10.41
8.17
6.03
4.16
2.61
1.27
-0.03
-1.46
-3.1
-4.93
-6.89
-8.88
-10.78
-12.57
-14.25
-15.9
-17.67
-19.73
-22.2
-25.0
-27.82
-30.11
-31.28
-30.84
-28.56
-24.6
-19.41
-13.58
-7.69
-2.19
2.66
6.76
10.1
12.66
14.4
15.32
15.48
15.0
14.13
13.1
12.14
11.41
10.99
10.91
11.19
11.75
12.48
13.23
13.88
14.39
14.71
14.82
14.61
13.93
12.65
10.77
8.49
6.16
4.12
2.61
1.61
0.94
0.31
-0.58
-1.89
-3.62
-5.65
-7.75
-9.73
-11.5
-13.15
-14.87
-16.9
-19.39
-22.25
-25.14
-27.6
-29.11
-29.28
-27.91
-25.0
-20.77
-15.62
-10.02
-4.47
0.61
4.91
8.33
10.88
12.69
13.88
14.52
14.66
14.32
13.56
12.47
11.23
10.02
9.04
8.47
8.4
8.84
9.66
10.7
11.68
12.31
12.38
11.75
10.51
8.83
6.94
5.02
3.18
1.39
-0.38
-2.14
-3.89
-5.63
-7.4
-9.3
-11.33
-13.4
-15.4
-17.2
-18.88
-20.65
-22.72
-25.11
-27.58
-29.57
-30.48
-29.84
-27.45
-23.46
-18.27
-12.41
-6.4
-0.65
4.56
9.06
12.73
15.44
17.08
17.58
17.08
15.84
14.27
12.79
11.63
10.91
10.58
10.6
10.88
11.39
12.03
12.66
13.15
13.4
13.41
13.21
12.82
12.22
11.32
10.09
8.51
6.68
4.7
2.65
0.55
-1.6
-3.77
-5.89
-7.87
-9.62
-11.15
-12.62
-14.19
-16.0
-18.13
-20.62
-23.4
-26.37
-29.3
-31.8
-33.38
-33.51
-31.86
-28.35
-23.26
-17.09
-10.47
-4.01
1.84
6.71
10.44
12.95
14.35
14.83
14.66
14.07
13.29
12.44
11.67
11.08
10.81
10.92
11.45
12.26
13.17
14.02
14.69
15.18
15.49
15.56
15.3
14.6
13.38
11.75
9.89
8.02
6.26
4.64
3.05
1.37
-0.53
-2.68
-5.08
-7.64
-10.18
-12.55
-14.59
-16.24
-17.6
-18.9
-20.43
-22.38
-24.77
-27.38
-29.76
-31.31
-31.49
-29.97
-26.69
-21.97
-16.32
-10.39
-4.69
0.41
4.75
8.3
11.07
13.13
14.5
15.27
15.53
15.42
15.06
14.62
14.21
13.92
13.86
14.04
14.48
15.08
15.72
16.27
16.59
16.65
16.41
15.91
15.17
14.24
13.13
11.9
10.54
9.09
7.58
6.01
4.42
2.82
1.2
-0.46
-2.17
-3.86
-5.48
-6.96
-8.3
-9.54
-10.87
-12.47
-14.54
-17.17
-20.29
-23.64
-26.77
-29.11
-30.11
-29.41
-26.89
-22.77
-17.49
-11.65
-5.81
-0.43
4.2
7.97
10.87
12.93
14.2
14.71
14.54
13.81
12.77
11.72
10.92
10.57
10.68
11.13
11.76
12.47
13.2
13.94
14.56
14.92
14.82
14.19
13.11
11.78
10.42
9.19
8.09
7.06
5.98
4.79
3.48
2.04
0.47
-1.23
-3.01
-4.74
-6.28
-7.53
-8.54
-9.45
-10.47
-11.83
-13.67
-16.08
-19.06
-22.45
-25.85
-28.73
-30.43
-30.38
-28.35
-24.46
-19.22
-13.37
-7.63
-2.5
1.8
5.32
8.26
10.75
12.79
14.25
14.96
14.83
14.02
12.85
11.7
10.91
10.58
10.61
10.81
11.03
11.26
11.61
12.12
12.7
13.11
13.02
12.24
10.86
9.22
7.73
6.66
6.0
5.46
4.62
3.25
1.27
-1.13
-3.7
-6.23
-8.59
-10.73
-12.63
-14.27
-15.73
-17.12
-18.65
-20.47
-22.61
-24.85
-26.78
-27.87
-27.65
-25.79
-22.3
-17.43
-11.67
-5.63
0.13
5.17
9.25
12.36
14.61
16.14
17.04
17.37
17.13
16.45
15.48
14.49
13.73
13.36
13.43
13.85
14.49
15.21
15.9
16.49
16.94
17.16
17.13
16.77
16.03
14.92
13.47
11.77
9.92
8.1
6.4
4.9
3.59
2.37
1.08
-0.43
-2.2
-4.22
-6.39
-8.56
-10.67
-12.7
-14.75
-16.89
-19.21
-21.79
-24.65
-27.71
-30.75
-33.32
-34.87
-34.84
-32.87
-28.99
-23.56
-17.25
-10.73
-4.6
0.83
5.39
9.09
11.96
13.99
15.18
15.55
15.2
14.33
13.21
12.09
11.23
10.74
10.64
10.85
11.29
11.89
12.62
13.49
14.47
15.48
16.38
16.99
17.18
16.84
15.95
14.55
12.8
10.89
9.02
7.35
5.93
4.68
3.4
1.94
0.19
-1.8
-3.9
-5.92
-7.71
-9.18
-10.4
-11.55
-12.87
-14.63
-17.04
-20.1
-23.6
-27.13
-30.15
-32.08
-32.47
-31.07
-27.93
-23.34
-17.84
-12.02
-6.42
-1.41
2.86
6.39
9.26
11.51
13.09
13.94
14.05
13.53
12.62
11.6
10.77
10.34
10.38
10.84
11.58
12.45
13.34
14.16
14.91
15.55
16.04
16.26
16.12
15.58
14.67
13.49
12.16
10.73
9.2
7.51
5.63
3.55
1.36
-0.82
-2.88
-4.8
-6.61
-8.42
-10.33
-12.34
-14.36
-16.28
-18.03
-19.71
-21.53
-23.69
-26.17
-28.64
-30.52
-31.18
-30.2
-27.47
-23.24
-17.93
-12.05
-6.1
-0.56
4.19
7.88
10.41
11.85
12.44
12.4
11.93
11.2
10.37
9.63
9.2
9.21
9.66
10.42
11.29
12.13
12.8
13.26
13.48
13.47
13.23
12.83
12.28
11.58
10.73
9.69
8.48
7.16
5.74
4.18
2.42
0.41
-1.76
-3.9
-5.77
-7.25
-8.35
-9.3
-10.4
-11.91
-14.01
-16.75
-20.07
-23.77
-27.45
-30.54
-32.38
-32.47
-30.59
-26.87
-21.79
-15.98
-10.08
-4.58
0.17
4.02
6.98
9.13
10.61
11.5
11.89
11.84
11.46
10.94
10.44
10.13
10.04
10.17
10.47
10.92
11.48
12.08
12.62
12.99
13.11
12.99
12.65
12.12
11.42
10.55
9.52
8.4
7.28
6.21
5.14
3.97
2.52
0.72
-1.44
-3.84
-6.28
-8.56
-10.59
-12.36
-13.96
-15.6
-17.47
-19.72
-22.39
-25.37
-28.36
-30.93
-32.58
-32.85
-31.46
-28.37
-23.88
-18.45
-12.7
-7.13
-2.08
2.27
5.88
8.8
11.04
12.65
13.66
14.12
14.1
13.77
13.29
12.9
12.77
13.06
13.77
14.77
15.91
16.99
17.86
18.39
18.54
18.27
17.57
16.46
15.01
13.33
11.6
9.99
8.59
7.37
6.19
4.86
3.26
1.38
-0.67
-2.73
-4.62
-6.3
-7.8
-9.25
-10.83
-12.69
-15.0
-17.87
-21.28
-24.98
-28.49
-31.11
-32.18
-31.25
-28.3
-23.7
-18.06
-12.08
-6.27
-0.94
3.79
7.89
11.37
14.18
16.23
17.45
17.78
17.32
16.31
15.09
14.02
13.36
13.2
13.48
14.0
14.57
15.05
15.4
15.61
15.66
15.48
14.98
14.08
12.73
10.97
8.91
6.64
4.3
1.97
-0.29
-2.44
-4.48
-6.41
-8.26
-10.1
-12.03
-14.13
-16.45
-18.85
-21.11
-22.9
-23.93
-24.04
-23.31
-21.89
-19.94
-17.48
-14.42
-10.6
-5.99
-0.77
4.66
9.83
14.29
17.81
20.33
21.97
22.92
23.35
23.35
22.94
22.14
20.98
19.55
18.03
16.63
15.54
14.92
14.81
15.16
15.74
16.31
16.58
16.4
15.75
14.78
13.66
12.5
11.31
9.94
8.26
6.17
3.7
0.94
-1.99
-4.95
-7.78
-10.35
-12.5
-14.21
-15.6
-16.91
-18.51
-20.63
-23.39
-26.6
-29.84
-32.55
-34.09
-33.95
-31.83
-27.77
-22.18
-15.72
-9.14
-3.03
2.25
6.65
10.27
13.21
15.51
17.14
18.06
18.31
17.98
17.22
16.17
15.0
13.91
13.12
12.85
13.22
14.15
15.39
16.61
17.5
17.86
17.68
16.99
15.91
14.52
12.96
11.34
9.84
8.48
7.22
5.88
4.28
2.29
-0.05
-2.54
-4.94
-7.03
-8.75
-10.2
-11.64
-13.31
-15.46
-18.24
-21.69
-25.66
-29.77
-33.4
-35.78
-36.24
-34.42
-30.41
-24.74
-18.19
-11.56
-5.4
-0.02
4.53
8.28
11.26
13.46
14.88
15.63
15.85
15.78
15.64
15.58
15.64
15.78
15.92
16.02
16.16
16.46
17.02
17.8
18.64
19.25
19.4
18.96
17.99
16.61
14.96
13.13
11.18
9.2
7.32
5.66
4.28
3.09
1.87
0.39
-1.55
-3.92
-6.58
-9.24
-11.62
-13.57
-15.09
-16.34
-17.68
-19.47
-21.92
-25.0
-28.3
-31.2
-33.01
-33.19
-31.45
-27.85
-22.66
-16.38
-9.61
-2.95
3.01
7.93
11.64
14.2
15.72
16.4
16.44
16.01
15.33
14.61
14.04
13.73
13.74
14.07
14.7
15.57
16.59
17.53
18.18
18.36
17.99
17.14
15.95
14.57
13.11
11.62
10.08
8.47
6.76
4.94
3.09
1.36
-0.12
-1.27
-2.17
-2.98
-3.87
-4.96
-6.24
-7.68
-9.28
-11.11
-13.32
-16.02
-19.2
-22.69
-26.13
-29.11
-31.18
-31.95
-31.17
-28.76
-24.87
-19.89
-14.37
-8.84
-3.79
0.56
4.18
7.18
9.73
11.93
13.73
14.98
15.5
15.19
14.2
12.89
11.71
11.09
11.18
11.92
13.0
14.14
15.13
15.87
16.36
16.53
16.29
15.53
14.23
12.47
10.49
8.52
6.72
5.14
3.66
2.14
0.41
-1.62
-3.92
-6.34
-8.66
-10.66
-12.22
-13.4
-14.37
-15.44
-16.93
-18.98
-21.54
-24.3
-26.71
-28.14
-28.1
-26.34
-22.96
-18.31
-12.97
-7.49
-2.3
2.27
6.1
9.1
11.25
12.51
12.92
12.56
11.63
10.44
9.31
8.6
8.45
8.86
9.65
10.58
11.5
12.43
13.4
14.39
15.24
15.68
15.48
14.6
13.21
11.63
10.14
8.81
7.55
6.17
4.51
2.52
0.27
-2.05
-4.26
-6.22
-7.86
-9.33
-10.84
-12.71
-15.2
-18.37
-22.06
-25.93
-29.52
-32.33
-33.95
-34.05
-32.44
-29.13
-24.33
-18.48
-12.14
-5.89
-0.18
4.69
8.6
11.58
13.68
15.03
15.7
15.79
15.39
14.65
13.74
12.87
12.23
11.94
12.04
12.48
13.17
14.02
14.92
15.71
16.22
16.26
15.71
14.63
13.23
11.78
10.49
9.41
8.49
7.59
6.61
5.46
4.05
2.32
0.22
-2.25
-4.98
-7.75
-10.35
-12.64
-14.63
-16.5
-18.54
-20.95
-23.8
-26.9
-29.79
-31.89
-32.55
-31.39
-28.33
-23.65
-17.92
-11.82
-5.95
-0.73
3.63
7.11
9.75
11.65
12.91
13.6
13.84
13.73
13.37
12.92
12.49
12.21
12.16
12.39
12.87
13.55
14.29
14.99
15.55
15.9
16.04
15.96
15.66
15.15
14.42
13.5
12.38
11.06
9.49
7.64
5.52
3.16
0.68
-1.73
-3.93
-5.81
-7.42
-8.83
-10.22
-11.79
-13.65
-15.91
-18.6
-21.68
-25.0
-28.28
-31.06
-32.81
-33.02
-31.33
-27.73
-22.59
-16.55
-10.38
-4.7
0.14
4.1
7.32
10.0
12.24
14.02
15.23
15.8
15.78
15.32
14.66
14.01
13.49
13.15
13.01
13.09
13.42
14.04
14.93
15.94
16.85
17.4
17.37
16.63
15.26
13.46
11.55
9.8
8.32
7.05
5.79
4.33
2.56
0.5
-1.69
-3.88
-5.93
-7.84
-9.62
-11.28
-12.9
-14.56
-16.43
-18.62
-21.19
-24.02
-26.73
-28.73
-29.45
-28.49
-25.76
-21.53
-16.33
-10.77
-5.37
-0.5
3.69
7.14
9.82
11.69
12.69
12.83
12.2
11.04
9.61
8.2
7.0
6.11
5.61
5.51
5.83
6.57
7.66
8.98
10.32
11.42
12.02
11.96
11.16
9.75
7.97
6.07
4.32
2.8
1.45
0.16
-1.18
-2.67
-4.31
-6.07
-7.92
-9.87
-11.96
-14.3
-16.93
-19.83
-22.86
-25.69
-27.89
-28.94
-28.48
-26.35
-22.71
-17.96
-12.65
-7.27
-2.17
2.46
6.56
10.11
13.05
15.28
16.68
17.2
16.92
16.05
14.91
13.84
13.06
12.7
12.71
12.99
13.41
13.9
14.38
14.76
14.9
14.64
13.94
12.79
11.35
9.79
8.31
6.98
5.77
4.6
3.28
1.71
-0.19
-2.34
-4.6
-6.77
-8.64
-10.16
-11.35
-12.42
-13.59
-15.13
-17.27
-20.09
-23.47
-27.05
-30.25
-32.37
-32.81
-31.22
-27.67
-22.62
-16.75
-10.76
-5.17
-0.3
3.78
7.09
9.69
11.64
13.01
13.89
14.3
14.33
14.07
13.7
13.42
13.41
13.75
14.39
15.14
15.79
16.22
16.39
16.41
16.36
16.28
16.08
15.62
14.78
13.53
11.97
10.27
8.61
7.07
5.67
4.3
2.86
1.25
-0.51
-2.37
-4.24
-6.04
-7.71
-9.3
-10.92
-12.75
-15.02
-17.89
-21.35
-25.16
-28.82
-31.67
-33.06
-32.52
-29.95
-25.53
-19.8
-13.4
-7.01
-1.18
3.68
7.44
10.09
11.8
12.77
13.13
12.99
12.48
11.77
11.07
10.62
10.52
10.75
11.16
11.6
11.97
12.31
12.73
13.31
14.06
14.8
15.35
15.52
15.2
14.41
13.24
11.79
10.09
8.2
6.16
4.1
2.17
0.48
-0.9
-2.03
-3.03
-4.03
-5.1
-6.27
-7.55
-9.09
-11.03
-13.57
-16.76
-20.44
-24.24
-27.64
-30.12
-31.32
-31.08
-29.39
-26.36
-22.18
-17.12
-11.52
-5.8
-0.39
4.35
8.17
10.96
12.69
13.47
13.43
12.76
11.71
10.6
9.68
9.17
9.12
9.47
10.08
10.79
11.48
12.07
12.53
12.8
12.81
12.48
11.77
10.67
9.29
7.79
6.3
4.93
3.66
2.41
1.07
-0.44
-2.12
-3.94
-5.82
-7.69
-9.51
-11.25
-12.93
-14.63
-16.47
-18.55
-20.88
-23.3
-25.48
-27.01
-27.5
-26.66
-24.42
-20.86
-16.26
-11.03
-5.62
-0.48
4.04
7.74
10.56
12.51
13.62
13.95
13.61
12.8
11.8
10.87
10.22
9.92
9.89
10.08
10.4
10.88
11.5
12.24
12.98
13.64
14.04
14.07
13.67
12.79
11.5
9.96
8.32
6.73
5.23
3.72
2.08
0.26
-1.73
-3.75
-5.65
-7.32
-8.82
-10.26
-11.82
-13.63
-15.73
-18.12
-20.74
-23.5
-26.22
-28.66
-30.47
-31.18
-30.4
-27.92
-23.82
-18.53
-12.66
-6.87
-1.58
2.98
6.8
9.91
12.28
13.81
14.47
14.32
13.59
12.6
11.6
10.77
10.15
9.77
9.65
9.84
10.38
11.25
12.38
13.64
14.89
15.91
16.48
16.41
15.61
14.18
12.36
10.46
8.78
7.38
6.21
5.11
3.91
2.47
0.7
-1.45
-3.94
-6.62
-9.24
-11.53
-13.42
-14.95
-16.42
-18.1
-20.22
-22.82
-25.67
-28.41
-30.54
-31.58
-31.11
-28.96
-25.22
-20.27
-14.65
-8.93
-3.57
1.12
5.0
8.03
10.21
11.69
12.62
13.17
13.44
13.51
13.42
13.21
13.02
13.0
13.17
13.53
13.97
14.4
14.8
15.2
15.61
15.95
16.06
15.81
15.04
13.78
12.12
10.25
8.31
6.46
4.75
3.18
1.73
0.3
-1.2
-2.82
-4.49
-6.1
-7.49
