0
13.66
14.45
15.85
17.58
19.38
21.06
22.48
23.47
23.83
23.45
22.36
20.82
19.16
17.6
16.11
14.46
12.32
9.61
6.49
3.42
0.82
-1.1
-2.5
-3.83
-5.59
-8.15
-11.59
-15.71
-20.16
-24.46
-28.1
-30.53
-31.26
-29.96
-26.62
-21.57
-15.44
-8.99
-2.86
2.46
6.68
9.64
11.33
11.82
11.4
10.53
9.77
9.58
10.22
11.64
13.57
15.6
17.34
18.51
18.97
18.72
17.83
16.48
14.82
13.04
11.24
9.45
7.58
5.48
2.97
0.08
-3.02
-6.04
-8.72
-10.97
-12.95
-14.97
-17.41
-20.51
-24.33
-28.73
-33.35
-37.68
-41.09
-42.87
-42.47
-39.59
-34.41
-27.54
-19.88
-12.38
-5.72
-0.3
3.85
6.86
8.93
10.25
10.97
11.28
11.41
11.68
12.37
13.63
15.43
17.54
19.65
21.46
22.68
23.12
22.73
21.54
19.74
17.61
15.43
13.38
11.47
9.57
7.53
5.23
2.66
-0.11
-3.04
-6.08
-9.22
-12.38
-15.52
-18.62
-21.79
-25.26
-29.19
-33.46
-37.62
-40.86
-42.27
-41.15
-37.31
-31.13
-23.46
-15.4
-7.88
-1.52
3.45
7.16
9.83
11.68
12.92
13.71
14.29
14.94
15.92
17.34
19.16
21.11
22.88
24.18
24.87
24.99
24.66
24.0
23.1
22.0
20.62
18.9
16.8
14.39
11.84
9.37
7.12
5.1
3.22
1.33
-0.71
-2.95
-5.37
-7.95
-10.73
-13.8
-17.26
-21.15
-25.36
-29.55
-33.18
-35.53
-35.93
-33.92
-29.44
-22.92
-15.17
-7.22
-0.02
5.79
9.86
12.19
13.01
12.76
11.95
11.12
10.69
10.95
11.93
13.55
15.58
17.73
19.66
21.02
21.59
21.3
20.27
18.78
17.12
15.48
13.94
12.42
10.85
9.12
7.18
5.06
2.83
0.63
-1.41
-3.23
-4.92
-6.72
-8.92
-11.81
-15.5
-19.94
-24.9
-30.01
-34.75
-38.47
-40.43
-40.05
-37.04
-31.63
-24.58
-16.92
-9.72
-3.73
0.69
3.6
5.28
6.09
6.37
6.36
6.32
6.48
7.06
8.23
9.99
12.19
14.53
16.62
18.16
18.97
19.02
18.36
17.14
15.52
13.7
11.86
10.1
8.41
6.65
4.59
2.16
-0.61
-3.5
-6.24
-8.66
-10.77
-12.75
-14.89
-17.47
-20.72
-24.78
-29.68
-35.13
-40.57
-45.09
-47.69
-47.56
-44.38
-38.49
-30.78
-22.39
-14.38
-7.48
-1.99
2.12
5.03
6.96
8.15
8.84
9.31
9.86
10.74
12.05
13.75
15.63
17.44
18.94
20.01
20.58
20.67
20.29
19.5
18.38
17.06
15.66
14.24
12.77
11.17
9.31
7.16
4.82
2.45
0.23
-1.77
-3.59
-5.38
-7.34
-9.61
-12.37
-15.76
-19.88
-24.71
-29.98
-35.09
-39.16
-41.23
-40.65
-37.24
-31.44
-24.13
-16.36
-9.09
-2.86
2.09
5.83
8.57
10.56
12.03
13.2
14.26
15.35
16.58
17.94
19.36
20.75
22.04
23.18
24.14
24.85
25.25
25.25
24.77
23.83
22.43
20.61
18.42
15.89
13.15
10.41
7.86
5.69
3.91
2.37
0.82
-0.93
-2.89
-5.0
-7.23
-9.72
-12.79
-16.79
-21.76
-27.26
-32.37
-35.98
-37.18
-35.59
-31.42
-25.42
-18.5
-11.49
-4.94
0.83
5.7
9.54
12.26
13.82
14.33
14.1
13.63
13.38
13.63
14.41
15.58
16.89
18.2
19.42
20.56
21.54
22.23
22.38
21.8
20.43
18.35
15.81
13.07
10.34
7.71
5.14
2.55
-0.08
-2.65
-5.0
-7.05
-8.94
-11.01
-13.69
-17.22
-21.6
-26.44
-31.12
-34.99
-37.46
-38.11
-36.73
-33.32
-28.18
-21.93
-15.33
-9.12
-3.81
0.45
3.72
6.17
7.88
8.91
9.31
9.25
9.04
9.0
9.39
10.32
11.71
13.37
15.01
16.35
17.16
17.32
16.83
15.83
14.4
12.55
10.32
7.73
4.97
2.35
0.1
-1.73
-3.32
-4.96
-6.85
-9.01
-11.37
-13.93
-16.88
-20.53
-25.12
-30.53
-36.2
-41.27
-44.8
-46.08
-44.8
-41.06
-35.38
-28.49
-21.18
-14.17
-7.9
-2.57
1.8
5.3
7.95
9.8
10.95
11.62
12.09
12.68
13.61
14.95
16.59
18.35
19.97
21.26
22.1
22.45
22.35
21.82
20.81
19.23
17.03
14.3
11.28
8.32
5.7
3.51
1.63
-0.17
-2.04
-4.06
-6.22
-8.6
-11.4
-14.84
-19.13
-24.12
-29.35
-34.02
-37.25
-38.31
-36.88
-33.15
-27.78
-21.58
-15.33
-9.48
-4.17
0.61
4.84
8.39
11.04
12.71
13.58
14.07
14.65
15.68
17.23
19.13
21.1
22.86
24.24
25.16
25.58
25.53
25.1
24.39
23.42
22.17
20.54
18.49
16.06
13.44
10.8
8.3
5.96
3.77
1.68
-0.33
-2.34
-4.51
-7.09
-10.37
-14.46
-19.21
-24.08
-28.29
-30.95
-31.38
-29.29
-24.91
-18.87
-12.07
-5.36
0.63
5.51
9.17
11.59
12.88
13.24
12.99
12.58
12.46
12.92
13.98
15.44
16.99
18.34
19.34
19.92
20.1
19.92
19.4
18.56
17.45
16.04
14.33
12.27
9.85
7.12
4.24
1.4
-1.23
-3.58
-5.7
-7.81
-10.23
-13.32
-17.39
-22.44
-28.1
-33.64
-38.08
-40.49
-40.25
-37.27
-31.97
-25.09
-17.55
-10.12
-3.42
2.17
6.44
9.38
11.06
11.76
11.83
11.76
11.98
12.8
14.28
16.24
18.33
20.16
21.42
22.0
21.94
21.39
20.51
19.43
18.19
16.76
15.07
13.05
10.59
7.67
4.35
0.84
-2.59
-5.65
-8.25
-10.48
-12.68
-15.32
-18.79
-23.25
-28.5
-33.92
-38.66
-41.83
-42.72
-40.99
-36.76
-30.54
-23.08
-15.2
-7.61
-0.88
4.61
8.7
11.37
12.77
13.25
13.29
13.39
14.0
15.32
17.28
19.61
21.92
23.87
25.22
25.91
25.96
25.45
24.48
23.18
21.69
20.11
18.45
16.6
14.44
11.87
8.98
5.99
3.17
0.71
-1.36
-3.22
-5.16
-7.54
-10.62
-14.51
-19.14
-24.12
-28.85
-32.58
-34.5
-34.04
-30.96
-25.51
-18.31
-10.22
-2.19
4.99
10.81
15.05
17.72
19.09
19.5
19.41
19.29
19.57
20.52
22.18
24.32
26.52
28.32
29.39
29.61
29.1
28.11
26.95
25.8
24.72
23.59
22.19
20.31
17.88
15.06
12.2
9.77
8.08
7.16
6.72
6.26
5.15
2.86
-1.0
-6.56
-13.57
-21.37
-28.88
-34.9
-38.35
-38.71
-36.12
-31.35
-25.38
-19.17
-13.37
-8.36
-4.29
-1.27
0.69
1.68
1.93
1.9
2.09
2.93
4.64
7.17
10.17
13.14
15.59
17.17
17.75
17.41
16.34
14.76
12.83
10.64
8.28
5.84
3.43
1.14
-1.02
-3.09
-5.16
-7.33
-9.71
-12.39
-15.5
-19.16
-23.39
-28.11
-33.02
-37.66
-41.39
-43.56
-43.55
-41.08
-36.23
-29.49
-21.6
-13.43
-5.75
0.91
6.23
10.11
12.61
13.96
14.49
14.65
14.85
15.4
16.44
17.95
19.7
21.41
22.76
23.49
23.49
22.85
21.79
20.56
19.31
17.97
16.36
14.28
11.69
8.72
5.66
2.81
0.33
-1.8
-3.74
-5.68
-7.78
-10.17
-12.95
-16.25
-20.21
-24.85
-29.88
-34.67
-38.27
-39.72
-38.38
-34.2
-27.78
-20.12
-12.28
-5.09
1.04
6.01
9.88
12.75
14.72
15.91
16.55
16.97
17.5
18.37
19.69
21.38
23.23
24.94
26.26
27.02
27.22
26.98
26.45
25.71
24.69
23.22
21.12
18.35
15.07
11.65
8.43
5.7
3.49
1.71
0.11
-1.57
-3.59
-6.12
-9.28
-13.15
-17.71
-22.74
-27.79
-32.19
-35.1
-35.8
-33.89
-29.47
-23.16
-15.84
-8.46
-1.73
3.93
8.39
11.65
13.8
14.93
15.24
15.0
14.63
14.57
15.14
16.44
18.27
20.2
21.77
22.63
22.65
22.02
21.0
19.86
18.67
17.29
15.43
12.91
9.69
5.99
2.2
-1.29
-4.19
-6.46
-8.34
-10.16
-12.31
-15.03
-18.39
-22.3
-26.57
-30.9
-34.91
-38.05
-39.69
-39.26
-36.46
-31.42
-24.75
-17.31
-10.03
-3.6
1.61
5.5
8.11
9.62
10.19
10.13
9.76
9.47
9.58
10.33
11.74
13.65
15.74
17.62
18.95
19.54
19.37
18.57
17.26
15.54
13.47
11.03
8.32
5.41
2.42
-0.55
-3.46
-6.29
-8.99
-11.54
-13.97
-16.43
-19.2
-22.57
-26.67
-31.43
-36.45
-41.16
-44.87
-46.91
-46.76
-44.16
-39.26
-32.54
-24.85
-17.06
-9.97
-4.01
0.7
4.33
7.14
9.36
11.17
12.69
14.05
15.39
16.88
18.63
20.63
22.72
24.62
26.03
26.72
26.63
25.85
24.58
23.0
21.24
19.3
17.18
14.85
12.3
9.61
6.84
4.11
1.52
-0.86
-3.05
-5.19
-7.45
-10.03
-13.13
-16.85
-21.22
-26.15
-31.34
-36.28
-40.19
-42.25
-41.74
-38.37
-32.42
-24.7
-16.28
-8.19
-1.16
4.46
8.69
11.73
13.84
15.25
16.18
16.8
17.33
17.97
18.92
20.29
22.01
23.92
25.71
27.11
27.95
28.18
27.88
27.17
26.11
24.66
22.76
20.36
17.55
14.51
11.51
8.74
6.3
4.12
2.05
-0.12
-2.58
-5.48
-8.93
-13.03
-17.74
-22.9
-28.12
-32.81
-36.18
-37.47
-36.19
-32.26
-26.13
-18.66
-10.92
-3.8
2.12
6.69
10.07
12.53
14.28
15.42
15.98
16.05
15.87
15.81
16.25
17.38
19.04
20.82
22.14
22.56
21.94
20.45
18.44
16.22
13.92
11.48
8.76
5.71
2.45
-0.81
-3.84
-6.57
-9.04
-11.38
-13.76
-16.29
-19.09
-22.31
-26.1
-30.54
-35.48
-40.45
-44.67
-47.27
-47.47
-44.9
-39.7
-32.52
-24.36
-16.25
-9.07
-3.3
1.0
4.05
6.21
7.8
9.06
10.2
11.35
12.71
14.39
16.42
18.64
20.76
22.43
23.43
23.65
23.16
22.15
20.83
19.33
17.76
16.07
14.18
11.94
9.3
6.3
3.15
0.14
-2.48
-4.63
-6.41
-8.12
-10.12
-12.71
-16.12
-20.39
-25.44
-30.91
-36.23
-40.62
-43.24
-43.43
-40.91
-35.88
-28.98
-21.14
-13.29
-6.15
-0.13
4.71
8.48
11.43
13.71
15.5
16.88
17.97
18.9
19.82
20.85
22.04
23.35
24.64
25.74
26.45
26.63
26.26
25.42
24.23
22.81
21.18
19.29
17.08
14.58
11.91
9.25
6.79
4.54
2.46
0.38
-1.89
-4.5
-7.57
-11.19
-15.35
-19.91
-24.57
-28.8
-31.94
-33.35
-32.53
-29.37
-24.12
-17.4
-10.05
-2.89
3.41
8.48
12.2
14.67
16.05
16.57
16.47
16.03
15.59
15.46
15.87
16.92
18.48
20.26
21.9
23.08
23.63
23.52
22.86
21.8
20.43
18.71
16.58
13.96
10.94
7.69
4.48
1.56
-1.0
-3.25
-5.39
-7.67
-10.32
-13.5
-17.26
-21.51
-25.96
-30.16
-33.41
-35.01
-34.4
-31.4
-26.3
-19.81
-12.83
-6.2
-0.49
4.05
7.42
9.68
10.95
11.33
11.09
10.62
10.38
10.75
11.86
13.53
15.34
16.83
17.63
17.62
16.87
15.62
14.1
12.48
10.8
8.98
6.94
4.59
1.96
-0.86
-3.65
-6.27
-8.55
-10.49
-12.14
-13.71
-15.49
-17.83
-21.07
-25.38
-30.68
-36.53
-42.11
-46.4
-48.39
-47.45
-43.47
-36.97
-28.93
-20.53
-12.73
-6.13
-0.83
3.3
6.56
9.11
11.08
12.58
13.79
14.98
16.43
18.31
20.54
22.89
24.95
26.35
26.94
26.75
26.04
25.14
24.26
23.42
22.45
21.07
19.07
16.45
13.34
10.02
6.7
3.54
0.56
-2.21
-4.85
-7.46
-10.22
-13.42
-17.32
-22.08
-27.53
-33.15
-38.11
-41.45
-42.34
-40.37
-35.66
-28.84
-20.87
-12.75
-5.23
1.24
6.49
10.51
13.37
15.21
16.22
16.75
17.22
17.99
19.27
21.04
23.11
25.16
26.89
28.07
28.55
28.34
27.54
26.33
24.88
23.28
21.53
19.54
17.23
14.56
11.66
8.68
5.84
3.28
1.04
-0.91
-2.69
-4.43
-6.36
-8.71
-11.72
-15.56
-20.2
-25.27
-30.07
-33.66
-35.08
-33.74
-29.61
-23.25
-15.67
-7.95
-0.94
4.89
9.37
12.56
14.54
15.43
15.48
15.02
14.54
14.49
15.18
16.59
18.49
20.45
22.09
23.16
23.53
23.25
22.37
21.0
19.25
17.27
15.18
13.03
10.74
8.24
5.45
2.42
-0.67
-3.56
-6.07
-8.19
-10.09
-12.06
-14.42
-17.46
-21.35
-26.06
-31.32
-36.51
-40.72
-42.98
-42.52
-39.08
-33.06
-25.37
-17.12
-9.37
-2.8
2.32
6.06
8.57
10.0
10.55
10.47
10.21
10.29
11.11
12.77
15.01
17.29
19.06
20.0
20.07
19.49
18.53
17.35
16.01
14.43
12.6
10.55
8.32
5.93
3.37
0.6
-2.36
-5.45
-8.53
-11.44
-14.07
-16.43
-18.7
-21.16
-24.18
-27.98
-32.62
-37.86
-43.15
-47.72
-50.68
-51.25
-48.93
-43.77
-36.38
-27.79
-19.16
-11.39
-4.94
0.18
4.21
7.4
9.91
11.83
13.32
14.59
15.91
17.45
19.2
20.99
22.61
23.9
24.88
25.57
25.99
26.08
25.65
24.56
22.8
20.49
17.79
14.95
12.13
9.4
6.76
4.2
1.69
-0.74
-3.09
-5.33
-7.53
-9.82
-12.39
-15.45
-19.18
-23.65
-28.78
-34.2
-39.27
-43.08
-44.75
-43.66
-39.69
-33.33
-25.49
-17.2
-9.29
-2.32
3.47
8.0
11.28
13.39
14.57
15.18
15.71
16.55
17.93
19.82
22.0
24.15
25.96
27.23
27.89
27.98
27.6
26.91
25.99
24.91
23.61
21.97
19.92
17.43
14.6
11.65
8.83
6.34
4.22
2.36
0.51
-1.57
-4.02
-6.93
-10.33
-14.26
-18.79
-23.84
-29.07
-33.79
-37.08
-38.03
-36.19
-31.64
-25.04
-17.38
-9.63
-2.49
3.61
8.5
12.11
14.44
15.57
15.74
15.33
14.86
14.76
15.32
16.57
18.28
20.06
21.47
22.16
22.0
21.09
19.74
18.29
16.94
15.64
14.13
12.08
9.33
5.96
2.35
-1.06
-3.96
-6.35
-8.43
-10.53
-12.89
-15.63
-18.8
-22.43
-26.58
-31.15
-35.88
-40.12
-42.98
-43.59
-41.42
-36.52
-29.59
-21.7
-13.99
-7.27
-1.9
2.19
5.27
7.6
9.29
10.36
10.85
10.95
11.02
11.45
12.52
14.24
16.36
18.49
20.21
21.24
21.44
20.88
19.73
18.24
16.6
14.92
13.13
11.09
8.66
5.8
2.69
-0.42
-3.29
-5.83
-8.12
-10.34
-12.73
-15.51
-18.89
-23.0
-27.87
-33.24
-38.59
-43.09
-45.82
-46.06
-43.48
-38.3
-31.19
-23.11
-15.01
-7.67
-1.48
3.42
7.14
9.86
11.82
13.25
14.43
15.61
17.05
18.89
21.1
23.49
25.79
27.65
28.84
29.22
28.8
27.72
26.17
24.37
22.44
20.42
18.29
15.95
13.32
10.42
7.3
4.12
1.08
-1.7
-4.14
-6.31
-8.45
-10.86
-13.86
-17.67
-22.32
-27.52
-32.7
-37.11
-39.94
-40.52
-38.51
-33.99
-27.45
-19.69
-11.58
-3.85
2.96
8.55
12.83
15.77
17.53
18.37
18.71
19.05
19.79
21.17
23.19
25.59
28.01
30.05
31.44
32.07
32.0
31.41
30.54
29.51
28.32
26.81
24.74
21.99
18.63
14.93
11.3
8.13
5.67
3.94
2.74
1.65
0.16
-2.26
-5.98
-11.12
-17.41
-24.21
-30.56
-35.43
-37.92
-37.49
-34.13
-28.33
-21.01
-13.25
-6.01
0.09
4.79
8.13
10.3
11.56
12.15
12.36
12.5
12.85
13.56
14.61
15.8
16.8
17.33
17.23
16.54
15.4
14.03
12.62
11.22
9.76
8.12
6.15
3.76
0.98
-2.07
-5.25
-8.44
-11.58
-14.66
-17.73
-20.83
-24.03
-27.42
-31.12
-35.19
-39.59
-44.01
-47.82
-50.14
-50.08
-47.05
-41.01
-32.61
-23.04
-13.55
-5.16
1.67
6.89
10.71
13.31
14.84
15.42
15.33
15.03
14.99
15.56
16.79
18.44
20.11
21.45
22.28
22.59
22.44
21.92
21.09
19.95
18.49
16.76
14.76
12.52
10.0
7.17
4.03
0.69
-2.62
-5.62
-8.18
-10.37
-12.48
-14.94
-18.1
-22.08
-26.79
-31.85
-36.71
-40.62
-42.82
-42.59
-39.51
-33.69
-25.78
-16.85
-8.06
-0.34
5.83
10.38
13.54
15.65
17.05
18.05
18.95
19.96
21.25
22.86
24.75
26.72
28.57
30.05
30.92
31.02
30.28
28.83
26.9
24.84
22.9
21.16
19.51
17.67
15.41
12.63
9.49
6.28
3.36
0.93
-1.03
-2.74
-4.53
-6.72
-9.53
-13.04
-17.29
-22.21
-27.55
-32.83
-37.33
-40.18
-40.59
-38.18
-33.09
-25.97
-17.8
-9.6
-2.14
4.09
8.94
12.43
14.64
15.73
15.94
15.62
15.23
15.21
15.85
17.18
19.02
21.05
22.96
24.48
25.43
25.71
25.26
24.12
22.41
20.31
17.99
15.53
12.9
10.0
6.79
3.37
-0.08
-3.32
-6.2
-8.66
-10.81
-12.87
-15.15
-17.96
-21.55
-25.95
-30.78
-35.31
-38.58
-39.67
-38.02
-33.65
-27.13
-19.35
-11.29
-3.76
2.72
7.88
11.58
13.83
14.7
14.45
13.53
12.53
11.98
12.25
13.36
15.05
16.9
18.49
19.56
20.01
19.85
19.13
17.93
16.35
14.46
12.36
10.05
7.5
4.68
1.64
-1.52
-4.61
-7.5
-10.2
-12.78
-15.41
-18.23
-21.36
-24.92
-29.04
-33.75
-38.91
-44.02
-48.29
-50.77
-50.63
-47.47
-41.48
-33.41
-24.37
-15.46
-7.57
-1.14
3.78
7.4
10.0
11.8
12.95
13.63
14.13
14.84
16.1
18.07
20.58
23.2
25.44
26.87
27.31
26.79
25.5
23.69
21.61
19.44
17.25
15.03
12.67
10.12
7.35
4.42
1.46
-1.5
-4.41
-7.33
-10.31
-13.38
-16.59
-20.06
-23.92
-28.27
-32.99
-37.66
-41.51
-43.71
-43.51
-40.61
-35.2
-27.95
-19.82
-11.75
-4.45
1.75
6.77
10.68
13.55
15.39
16.31
16.55
16.59
17.0
18.17
20.15
22.63
25.05
26.89
27.86
27.95
27.36
26.31
24.99
23.51
21.91
20.18
18.28
16.18
13.82
11.22
8.44
5.57
2.75
0.08
-2.37
-4.66
-6.92
-9.41
-12.45
-16.34
-21.19
-26.77
-32.36
-36.96
-39.47
-39.09
-35.62
-29.53
-21.8
-13.56
-5.76
1.06
6.67
11.05
14.16
16.0
16.61
16.26
15.46
14.84
14.86
15.78
17.45
19.51
21.5
23.01
23.8
23.81
23.1
21.78
19.94
17.62
14.86
11.69
8.2
4.59
1.04
-2.26
-5.18
-7.65
-9.69
-11.41
-13.05
-15.01
-17.65
-21.26
-25.78
-30.78
-35.52
-39.14
-40.87
-40.2
-37.02
-31.51
-24.25
-16.02
-7.7
-0.08
6.27
11.07
14.27
16.0
16.46
15.97
14.95
13.89
13.17
13.04
13.51
14.41
15.55
16.76
17.95
18.99
19.7
19.84
19.22
17.81
15.74
13.25
10.54
7.7
4.75
1.72
-1.3
-4.11
-6.53
-8.52
-10.23
-11.99
-14.21
-17.24
-21.29
-26.36
-32.2
-38.26
-43.72
-47.59
-48.96
-47.26
-42.48
-35.25
-26.62
-17.72
-9.42
-2.19
3.86
8.8
12.65
15.45
17.25
18.31
19.01
19.78
20.91
22.52
24.52
26.7
28.82
30.64
31.93
32.53
32.36
31.48
30.08
28.35
26.42
24.27
21.77
18.8
15.35
11.58
7.76
4.18
1.02
-1.7
-4.1
-6.46
-9.08
-12.29
-16.33
-21.29
-26.99
-32.92
-38.25
-41.99
-43.21
-41.32
-36.35
-28.92
-20.14
-11.2
-3.05
3.83
9.32
13.56
16.71
18.87
20.14
20.73
21.04
21.5
22.47
23.95
25.69
27.25
28.19
28.38
27.94
27.14
26.23
25.24
24.04
22.43
20.23
17.47
14.3
10.95
7.6
4.4
1.4
-1.3
-3.68
-5.77
-7.73
-9.89
-12.65
-16.37
-21.16
-26.75
-32.53
-37.63
-41.12
-42.2
-40.45
-35.91
-29.01
-20.54
-11.42
-2.54
5.39
11.86
16.6
19.55
20.85
20.88
20.16
19.23
18.52
18.29
18.58
19.29
20.22
21.15
21.84
22.1
21.79
20.91
19.59
17.93
16.0
13.75
11.1
8.02
4.6
1.08
-2.26
-5.25
-7.84
-10.12
-12.22
-14.3
-16.49
-18.99
-22.08
-26.04
-31.03
-36.88
-42.98
-48.36
-51.85
-52.43
-49.57
-43.48
-34.98
-25.28
-15.58
-6.76
0.74
6.84
11.6
15.08
17.3
18.31
18.32
17.78
17.27
17.29
18.13
19.73
21.76
23.78
25.41
26.4
26.71
26.32
25.3
23.71
21.64
19.2
16.5
13.58
10.41
7.0
3.41
-0.11
-3.29
-5.92
-8.02
-9.81
-11.66
-13.94
-16.97
-20.96
-25.97
-31.85
-38.12
-43.93
-48.17
-49.82
-48.19
-43.24
-35.58
-26.27
-16.55
-7.49
0.2
6.25
10.75
13.98
16.34
18.11
19.53
20.77
21.93
23.11
24.36
25.65
26.87
27.92
28.74
29.32
29.65
29.71
29.39
28.53
27.02
24.87
22.17
19.08
15.77
12.37
9.02
5.82
2.87
0.25
-2.04
-4.05
-5.93
-7.86
-10.05
-12.76
-16.15
-20.33
-25.22
-30.5
-35.53
-39.41
-41.18
-40.12
-36.02
-29.27
-20.81
-11.84
-3.47
3.56
8.95
12.76
15.24
16.67
17.28
17.3
16.93
16.43
16.12
16.29
17.14
18.69
20.69
22.68
24.19
24.87
24.66
23.72
22.32
20.67
18.75
16.41
13.5
10.04
6.25
2.56
-0.65
-3.13
-4.92
-6.32
-7.75
-9.63
-12.22
-15.64
-19.84
-24.66
-29.82
-34.85
-39.03
-41.5
-41.45
-38.39
-32.47
-24.4
-15.37
-6.66
0.75
6.33
9.98
11.97
12.71
12.69
12.31
11.95
11.88
12.32
13.26
14.57
16.02
17.28
18.11
18.39
18.16
17.55
16.72
15.76
14.67
13.34
11.6
9.3
6.35
2.83
-1.08
-5.0
-8.6
-11.57
-13.83
-15.53
-17.04
-18.8
-21.26
-24.72
-29.25
-34.64
-40.35
-45.55
-49.28
-50.63
-49.06
-44.52
-37.51
-28.94
-19.86
-11.26
-3.85
2.01
6.27
9.14
10.95
12.07
12.82
13.45
14.16
15.1
16.3
17.79
19.44
21.07
22.44
23.37
23.77
23.64
23.05
22.08
20.76
19.09
16.99
14.39
11.24
7.58
3.66
-0.19
-3.58
-6.25
-8.21
-9.7
-11.17
-13.05
-15.66
-19.13
-23.4
-28.25
-33.27
-37.83
-41.18
-42.54
-41.37
-37.53
-31.38
-23.64
-15.25
-7.11
0.11
5.97
10.31
13.18
14.73
15.25
15.09
14.66
14.34
14.47
15.27
16.78
18.85
21.16
23.3
24.92
25.77
25.77
25.02
23.69
21.99
20.04
17.88
15.49
12.81
9.87
6.78
3.78
1.09
-1.16
-3.04
-4.74
-6.62
-8.96
-12.0
-15.82
-20.31
-25.14
-29.79
-33.51
-35.51
-35.18
-32.28
-27.03
-20.1
-12.36
-4.75
2.01
7.45
11.36
13.77
14.9
15.13
14.87
14.58
14.6
15.14
16.2
17.66
19.29
20.84
22.11
22.9
23.1
22.63
21.53
19.9
17.89
15.64
13.2
10.49
7.38
3.84
0.05
-3.68
-6.95
-9.57
-11.63
-13.5
-15.63
-18.39
-21.97
-26.28
-31.07
-35.86
-40.02
-42.8
-43.51
-41.7
-37.34
-30.93
-23.23
-15.16
-7.54
-0.92
4.34
8.08
10.32
11.23
11.18
10.65
10.19
10.24
11.04
12.58
14.59
16.67
18.4
19.47
19.72
19.21
18.12
16.7
15.16
13.58
11.93
10.05
7.78
5.06
1.96
-1.28
-4.36
-7.05
-9.29
-11.2
-13.06
-15.18
-17.85
-21.27
-25.45
-30.28
-35.37
-40.06
-43.52
-44.9
-43.57
-39.44
-32.91
-24.9
-16.46
-8.54
-1.75
3.7
7.87
10.96
13.19
14.69
15.58
16.04
16.35
16.84
17.8
19.33
21.27
23.26
24.87
25.76
25.87
25.34
24.45
23.45
22.39
21.15
19.5
17.25
14.36
10.98
7.42
4.0
1.02
-1.43
-3.39
-5.08
-6.75
-8.65
-11.04
-14.11
-18.05
-22.84
-28.24
-33.61
-38.05
-40.57
-40.4
-37.29
-31.52
-23.94
-15.57
-7.46
-0.29
5.51
9.9
12.97
14.93
15.98
16.37
16.42
16.51
17.05
18.3
20.3
22.8
25.34
27.43
28.7
29.03
28.52
27.43
26.0
24.37
22.56
20.47
18.07
15.39
12.59
9.88
7.42
5.26
3.3
1.39
-0.62
-2.77
-5.1
-7.75
-10.91
-14.82
-19.53
-24.79
-29.94
-34.04
-36.18
-35.67
-32.37
-26.67
-19.41
-11.61
-4.22
2.14
7.21
10.97
13.56
15.03
15.48
15.12
14.32
13.66
13.69
14.71
16.65
19.06
21.29
22.79
23.25
22.71
21.45
19.85
18.18
16.55
14.83
12.8
10.27
7.2
3.75
0.25
-3.0
-5.85
-8.33
-10.62
-12.97
-15.6
-18.72
-22.49
-26.97
-32.04
-37.25
-41.8
-44.71
-45.08
-42.44
-36.92
-29.26
-20.55
-11.89
-4.09
2.4
7.43
11.04
13.31
14.38
14.55
14.21
13.87
14.01
14.91
16.58
18.75
21.02
22.96
24.25
24.73
24.41
23.36
21.72
19.59
17.06
14.23
11.21
8.13
5.13
2.29
-0.41
-3.0
-5.53
-7.97
-10.25
-12.35
-14.34
-16.48
-19.13
-22.64
-27.11
-32.31
-37.63
-42.2
-45.01
-45.31
-42.72
-37.4
-30.0
-21.45
-12.75
-4.69
2.19
7.62
11.52
14.0
15.29
15.77
15.93
16.25
17.09
18.58
20.56
22.74
24.76
26.35
27.33
27.68
27.43
26.68
25.54
24.11
22.51
20.84
19.14
17.39
15.52
13.4
10.92
8.09
5.02
1.91
-1.02
-3.64
-5.95
-8.13
-10.46
-13.24
-16.75
-21.07
-26.06
-31.22
-35.75
-38.72
-39.31
-37.09
-32.14
-25.08
-16.88
-8.56
-0.97
5.35
10.2
13.63
15.8
16.91
17.2
17.0
16.74
16.9
17.82
19.6
21.97
24.38
26.22
27.1
26.96
26.02
24.63
23.11
21.62
20.15
18.62
16.93
14.99
12.71
10.05
7.03
3.77
0.5
-2.54
-5.12
-7.22
-9.03
-10.96
-13.47
-16.88
-21.2
-26.07
-30.81
-34.58
-36.61
-36.4
-33.75
-28.85
-22.16
-14.41
-6.45
0.92
7.08
11.68
14.67
16.17
16.45
15.84
14.76
13.68
13.09
13.31
14.43
16.21
18.15
19.72
20.52
20.41
19.48
18.0
16.23
14.39
12.54
10.63
8.56
6.21
3.52
0.49
-2.77
-6.14
-9.42
-12.43
-15.06
-17.29
-19.33
-21.58
-24.47
-28.35
-33.23
-38.68
-43.89
-47.87
-49.66
-48.68
-44.8
-38.42
-30.32
-21.49
-12.88
-5.24
0.98
5.59
8.65
10.37
11.08
11.21
11.24
11.61
12.6
14.31
16.57
19.05
21.37
23.19
24.27
24.51
23.94
22.72
21.07
19.23
17.38
15.53
13.6
11.44
8.94
6.08
2.99
-0.13
-3.06
-5.67
-7.9
-9.83
-11.71
-13.87
-16.67
-20.41
-25.22
-30.88
-36.83
-42.17
-45.87
-47.07
-45.26
-40.51
-33.42
-24.97
-16.2
-8.02
-1.03
4.52
8.67
11.62
13.67
15.13
16.24
17.24
18.28
19.45
20.86
22.54
24.47
26.49
28.34
29.67
30.23
29.92
28.83
27.21
25.3
23.25
21.06
18.65
15.92
12.9
9.75
6.68
3.91
1.52
-0.54
-2.41
-4.27
-6.25
-8.48
-11.05
-14.11
-17.78
-22.1
-26.8
-31.3
-34.78
-36.33
-35.33
-31.62
-25.62
-18.14
-10.21
-2.77
3.53
8.33
11.59
13.51
14.33
14.4
14.1
13.82
13.88
14.54
15.84
17.66
19.69
21.58
23.01
23.8
23.92
23.46
22.59
21.45
20.09
18.49
16.54
14.11
11.14
7.73
4.12
0.64
-2.42
-4.94
-6.99
-8.87
-10.94
-13.57
-17.02
-21.4
-26.57
-32.14
-37.4
-41.46
-43.46
-42.74
-39.12
-32.96
-25.12
-16.65
-8.59
-1.73
3.5
6.98
8.88
9.57
9.48
9.12
8.92
9.23
10.21
11.85
13.94
16.19
18.23
19.74
20.51
20.46
19.64
18.24
16.52
14.74
13.05
11.4
9.61
7.42
4.66
1.37
-2.23
-5.81
-9.03
-11.74
-13.95
-15.91
-17.98
-20.55
-23.95
-28.31
-33.51
-39.04
-44.09
-47.62
-48.69
-46.69
-41.58
-33.93
-24.81
-15.44
-6.9
0.12
5.41
9.12
11.59
13.21
14.29
15.11
15.96
17.03
18.47
20.27
22.25
24.14
25.66
26.62
26.95
26.67
25.88
24.73
23.38
22.0
20.64
19.25
17.62
15.52
12.81
9.5
5.83
2.15
-1.19
-4.01
-6.3
-8.26
-10.2
-12.5
-15.48
-19.34
-24.12
-29.56
-35.09
-39.84
-42.79
-43.0
-39.96
-33.81
-25.36
-15.89
-6.78
0.96
6.9
11.17
14.16
16.26
17.7
18.64
19.26
19.81
20.57
21.76
23.31
24.99
26.5
27.64
28.32
28.58
28.47
27.98
27.11
25.87
24.32
22.53
20.55
18.35
15.91
13.28
10.58
8.01
5.72
3.79
2.12
0.45
-1.55
-4.24
-7.87
-12.53
-18.03
-23.93
-29.53
-34.0
-36.51
-36.48
-33.65
-28.3
-21.14
-13.13
-5.29
1.64
7.2
11.29
13.97
15.43
15.89
15.71
15.33
15.21
15.72
16.98
18.81
20.79
22.42
23.32
23.35
22.61
21.36
19.9
18.46
17.03
15.49
13.61
11.2
8.26
4.94
1.53
-1.69
-4.49
-6.81
-8.74
-10.53
-12.53
-15.13
-18.67
-23.27
-28.81
-34.78
-40.36
-44.55
-46.42
-45.38
-41.41
-35.09
-27.42
-19.53
-12.29
-6.1
-0.97
3.3
6.81
9.51
11.28
12.14
12.36
12.45
12.9
14.0
15.68
17.62
19.41
20.7
21.3
21.17
20.41
19.21
17.77
16.27
14.71
12.98
10.87
8.29
5.35
2.34
-0.4
-2.7
-4.61
-6.35
-8.2
-10.35
-12.91
-15.94
-19.56
-23.89
-28.91
-34.28
-39.25
-42.85
-44.07
-42.33
-37.63
-30.61
-22.29
-13.81
-6.02
0.6
6.0
10.31
13.69
16.23
17.97
19.04
19.69
20.31
21.21
22.57
24.24
25.9
27.21
27.93
28.01
27.58
26.87
26.05
25.22
24.39
23.41
22.12
20.31
17.84
14.7
11.07
7.24
3.53
0.18
-2.68
-5.08
-7.13
-9.04
-11.04
-13.46
-16.57
-20.52
-25.18
-30.03
-34.26
-36.89
-37.12
-34.55
-29.34
-22.21
-14.15
-6.19
0.89
6.68
11.07
14.12
15.97
16.78
16.81
16.45
16.21
16.55
17.68
19.54
21.73
23.78
25.26
25.97
25.96
25.37
24.38
23.09
21.57
19.83
17.83
15.57
12.94
9.96
6.66
3.24
-0.05
-2.94
-5.33
-7.31
-9.18
-11.38
-14.29
-18.13
-22.81
-27.89
-32.64
-36.17
-37.67
-36.65
-33.09
-27.45
-20.51
-13.13
-6.11
0.01
4.86
8.27
10.23
10.92
10.66
9.92
9.18
8.89
9.29
10.43
12.16
14.17
16.03
17.36
17.93
17.69
16.77
15.41
13.79
11.99
9.93
7.54
4.81
1.83
-1.21
-4.15
-6.86
-9.35
-11.68
-13.98
-16.45
-19.32
-22.81
-27.09
-32.1
-37.46
-42.54
-46.51
-48.55
-48.06
-44.88
-39.34
-32.15
-24.27
-16.53
-9.53
-3.5
1.53
5.64
8.84
11.12
12.53
13.28
13.74
14.3
15.32
16.92
18.96
21.1
22.94
24.08
24.31
23.61
22.14
20.18
17.98
15.73
13.44
11.04
8.45
5.63
2.67
-0.31
-3.15
-5.8
-8.26
-10.65
-13.11
-15.8
-18.81
-22.22
-26.02
-30.14
-34.3
-38.01
-40.6
-41.36
-39.78
-35.73
-29.6
-22.12
-14.18
-6.58
0.2
5.85
10.29
13.46
15.43
16.42
16.78
16.98
17.45
18.43
19.95
21.84
23.85
25.67
27.0
27.58
27.28
26.18
24.56
22.8
21.25
19.98
18.81
17.42
15.54
13.1
10.28
7.38
4.64
2.18
-0.07
-2.31
-4.77
-7.66
-11.08
-15.04
-19.45
-24.11
-28.7
-32.75
-35.63
-36.67
-35.32
-31.36
-25.08
-17.26
-8.96
-1.2
5.28
10.2
13.58
15.68
16.78
17.16
17.11
16.95
17.04
17.63
18.85
20.6
22.61
24.44
25.66
25.99
25.33
23.87
21.96
19.97
18.11
16.37
14.6
12.6
10.28
7.69
4.99
2.31
-0.26
-2.73
-5.2
-7.74
-10.52
-13.66
-17.32
-21.49
-26.01
-30.41
-34.01
-36.06
-35.98
-33.54
-28.97
-22.82
-15.83
-8.72
-2.03
3.85
8.59
11.92
13.7
14.01
13.26
12.12
11.28
11.22
12.0
13.38
14.94
16.33
17.36
17.98
18.16
17.84
16.97
15.56
13.7
11.52
9.1
6.47
3.59
0.44
-2.87
-6.17
-9.27
-12.07
-14.59
-16.96
-19.43
-22.24
-25.66
-29.79
-34.52
-39.41
-43.69
-46.39
-46.68
-44.12
-38.89
-31.72
-23.69
-15.81
-8.81
-3.0
1.6
5.12
7.69
9.42
10.49
11.17
11.82
12.76
14.17
15.94
17.84
19.56
20.87
21.69
22.04
21.95
21.49
20.69
19.58
18.21
16.64
14.83
12.73
10.3
7.56
4.63
1.7
-1.08
-3.61
-5.91
-8.14
-10.49
