0
66.3
78.11
88.99
97.77
103.86
106.93
106.83
103.49
97.03
87.88
76.89
65.19
53.92
43.87
35.18
27.37
19.69
11.61
3.17
-4.99
-12.02
-17.41
-21.34
-24.69
-28.62
-33.98
-40.93
-48.91
-56.98
-64.31
-70.56
-76.04
-81.65
-88.67
-98.51
-112.22
-129.82
-149.62
-167.89
-179.28
-178.32
-161.28
-127.88
-81.79
-29.68
20.86
63.59
95.07
114.87
124.59
126.52
122.63
114.2
102.23
88.0
73.41
60.82
52.55
50.12
53.75
62.33
73.76
85.72
96.22
104.03
108.58
109.73
107.52
102.08
93.71
83.03
70.87
58.22
45.89
34.31
23.58
13.54
4.03
-5.01
-13.41
-21.01
-27.77
-33.91
-39.99
-46.64
-54.31
-63.0
-72.22
-81.15
-89.08
-95.79
-101.74
-108.1
-116.4
-128.07
-143.8
-162.82
-182.44
-198.14
-204.43
-196.52
-172.11
-132.57
-82.89
-30.25
18.17
57.2
84.58
100.59
106.86
105.11
96.65
82.62
64.57
44.98
27.11
14.23
8.68
11.15
20.52
34.38
49.77
64.01
75.25
82.61
85.94
85.65
82.3
76.44
68.55
59.06
48.46
37.35
26.3
15.9
6.58
-1.41
-8.11
-13.73
-18.75
-23.81
-29.51
-36.23
-43.9
-51.94
-59.51
-65.9
-70.92
-75.12
-79.71
-86.16
-95.88
-109.75
-127.77
-148.55
-169.07
-184.77
-190.36
-181.37
-155.83
-115.43
-65.41
-13.02
34.59
72.43
98.51
113.43
119.17
117.78
110.77
99.26
84.55
68.65
54.13
43.67
39.21
41.36
49.28
60.99
74.04
86.18
95.8
102.08
104.81
104.15
100.39
93.89
85.15
74.81
63.61
52.21
41.07
30.32
19.88
9.66
-0.24
-9.49
-17.78
-25.05
-31.63
-38.15
-45.23
-53.05
-61.26
-69.18
-76.11
-81.86
-86.86
-92.13
-99.02
-108.82
-122.43
-139.9
-159.89
-179.34
-193.6
-197.34
-186.16
-158.31
-115.72
-63.75
-9.71
39.34
78.42
105.48
121.02
126.98
125.52
118.39
106.99
92.73
77.53
63.77
53.85
49.63
51.79
59.63
71.33
84.62
97.32
107.86
115.36
119.44
119.97
116.98
110.62
101.41
90.2
78.0
65.79
54.14
43.19
32.79
22.7
12.82
3.25
-5.86
-14.49
-22.78
-31.1
-39.73
-48.75
-57.92
-66.78
-74.88
-82.06
-88.64
-95.47
-103.78
-115.06
-130.51
-150.49
-173.78
-197.06
-215.21
-222.32
-213.55
-186.9
-144.34
-91.43
-35.75
15.35
56.6
85.63
102.55
108.78
105.97
95.61
79.16
58.72
37.32
18.61
6.14
2.19
7.14
19.28
35.53
52.44
67.18
78.17
85.04
88.12
87.94
84.74
78.47
69.07
56.79
42.52
27.74
14.13
3.06
-4.95
-10.41
-14.65
-19.28
-25.47
-33.48
-42.52
-51.17
-58.08
-62.59
-65.11
-66.99
-70.13
-76.43
-87.3
-103.27
-123.52
-145.62
-165.49
-177.91
-177.85
-161.98
-130.14
-85.66
-34.63
15.87
59.75
93.28
115.39
126.98
129.81
125.53
115.46
100.89
83.56
66.07
51.61
43.15
42.53
49.72
62.76
78.47
93.54
105.47
113.11
116.51
116.34
113.22
107.48
99.11
88.15
74.93
60.22
45.17
30.99
18.64
8.59
0.64
-6.04
-12.6
-20.17
-29.33
-39.84
-50.72
-60.67
-68.66
-74.45
-78.72
-82.88
-88.61
-97.5
-110.65
-128.35
-149.6
-171.76
-190.48
-200.38
-196.47
-175.9
-139.25
-90.75
-37.19
14.1
57.24
89.08
109.26
119.27
121.28
117.22
108.51
96.43
82.63
69.41
59.43
54.98
57.2
65.49
77.72
90.97
102.55
110.79
115.33
116.73
115.73
112.66
107.24
98.86
87.18
72.6
56.42
40.5
26.63
15.93
8.38
2.97
-1.94
-7.86
-15.52
-24.64
-34.09
-42.52
-49.14
-54.16
-58.79
-64.78
-73.76
-86.69
-103.63
-123.64
-144.72
-163.76
-176.74
-179.44
-168.68
-143.54
-106.17
-61.33
-15.09
27.0
61.32
86.55
103.14
112.28
115.02
112.1
104.26
92.71
79.4
66.86
57.58
53.44
55.1
61.88
72.06
83.39
93.74
101.5
105.72
105.92
101.89
93.64
81.47
66.22
49.29
32.33
16.73
3.12
-8.83
-20.09
-31.71
-44.21
-57.25
-69.86
-80.92
-89.63
-95.95
-100.53
-104.58
-109.48
-116.4
-125.77
-136.84
-147.38
-153.91
-152.57
-140.3
-116.08
-81.59
-40.78
1.12
39.26
70.25
92.65
106.66
113.29
113.63
108.5
98.74
85.55
70.89
57.35
47.54
43.32
45.21
52.24
62.35
73.11
82.36
88.66
91.22
89.75
84.32
75.32
63.51
50.06
36.31
23.42
12.07
2.31
-6.34
-14.47
-22.45
-30.28
-37.63
-44.14
-49.71
-54.62
-59.54
-65.39
-73.03
-82.99
-95.05
-107.87
-118.85
-124.54
-121.43
-107.32
-82.14
-48.34
-10.22
27.35
60.28
86.1
104.04
114.41
117.91
115.27
107.23
94.88
79.99
64.97
52.41
44.48
42.28
45.52
52.71
61.75
70.57
77.69
82.33
84.19
83.08
78.8
71.13
60.24
46.93
32.62
19.01
7.47
-1.44
-8.24
-14.24
-20.95
-29.35
-39.53
-50.6
-61.16
-70.0
-76.68
-81.76
-86.67
-93.21
-102.97
-116.86
-134.7
-154.91
-174.42
-189.01
-194.23
-186.64
-165.14
-131.59
-90.45
-47.5
-8.12
24.05
47.54
62.62
70.32
71.66
67.42
58.52
46.47
33.59
22.74
16.53
16.49
22.59
33.28
46.12
58.62
68.84
75.71
78.85
78.25
74.06
66.6
56.43
44.49
31.98
20.04
9.45
0.33
-7.74
-15.47
-23.38
-31.57
-39.62
-46.94
-53.09
-58.11
-62.69
-67.95
-75.25
-85.6
-99.29
-115.27
-131.04
-142.77
-146.22
-137.97
-116.79
-84.28
-44.64
-3.46
34.0
64.11
85.41
98.27
103.87
103.44
97.87
87.99
75.05
61.04
48.47
39.73
36.3
38.24
44.3
52.43
60.65
67.6
72.71
75.91
77.18
76.19
72.34
65.11
54.49
41.34
27.22
13.95
2.93
-5.43
-11.82
-17.68
-24.43
-32.78
-42.34
-51.92
-60.06
-65.89
-69.54
-72.15
-75.42
-81.16
-90.66
-104.31
-121.14
-138.6
-152.7
-158.73
-152.6
-132.34
-99.09
-56.98
-11.96
30.05
64.72
90.08
106.24
114.48
116.26
112.78
104.94
93.84
81.04
68.66
59.04
54.12
54.83
60.72
70.13
80.65
90.08
96.96
100.93
102.4
102.0
99.92
95.82
88.99
78.98
66.04
51.29
36.39
22.98
12.01
3.47
-3.63
-10.67
-18.89
-28.84
-40.13
-51.7
-62.29
-70.98
-77.59
-82.77
-87.76
-94.07
-103.1
-115.88
-132.74
-152.82
-173.66
-191.13
-200.09
-195.82
-175.74
-140.72
-95.21
-45.96
0.02
37.51
64.11
79.95
86.61
85.8
78.81
66.6
50.52
32.71
16.09
3.72
-2.09
-0.51
7.63
20.2
34.48
47.92
58.63
65.54
68.22
66.69
61.24
52.5
41.4
29.22
17.3
6.68
-2.18
-9.59
-16.31
-23.19
-30.65
-38.52
-46.14
-52.78
-58.06
-62.25
-66.33
-71.71
-79.84
-91.55
-106.36
-122.01
-134.52
-139.09
-131.51
-109.81
-75.26
-32.22
13.17
54.83
88.39
111.87
125.29
129.81
126.77
117.37
102.87
84.98
66.04
48.81
35.86
28.94
28.54
33.82
42.97
53.85
64.53
73.61
80.29
84.06
84.47
81.13
73.91
63.15
49.97
35.93
22.6
10.95
0.97
-8.22
-17.84
-28.7
-40.75
-53.05
-64.23
-73.16
-79.47
-83.83
-87.78
-93.26
-102.11
-115.4
-132.78
-151.93
-168.63
-177.43
-173.24
-153.12
-117.59
-70.92
-19.86
28.37
68.18
96.8
114.24
122.15
122.57
117.04
106.59
92.27
75.75
59.47
46.19
38.17
36.44
40.45
48.45
58.15
67.53
75.4
81.32
85.32
87.39
87.22
84.14
77.5
67.11
53.61
38.43
23.45
10.35
-0.07
-8.1
-15.03
-22.45
-31.55
-42.51
-54.37
-65.48
-74.19
-79.68
-82.28
-83.46
-85.33
-90.07
-99.23
-113.3
-131.23
-150.21
-165.78
-172.6
-165.86
-142.93
-104.67
-55.52
-2.4
47.36
88.07
116.87
133.67
140.12
138.32
129.98
116.42
98.96
79.5
60.63
45.22
35.7
33.33
37.78
47.31
59.37
71.4
81.56
89.05
93.89
96.4
96.71
94.45
88.95
79.75
67.05
51.93
36.12
21.43
9.09
-0.66
-8.64
-16.29
-25.07
-35.81
-48.3
-61.32
-73.15
-82.29
-88.13
-91.29
-93.42
-96.67
-103.03
-113.84
-129.49
-149.12
-170.32
-189.1
-200.3
-198.79
-181.15
-147.23
-100.62
-47.92
3.33
46.8
78.79
98.38
106.54
104.87
94.87
77.92
55.78
31.05
7.15
-12.27
-24.24
-27.21
-21.46
-8.85
7.83
25.51
41.6
54.32
62.73
66.54
65.9
61.22
53.17
42.72
31.06
19.32
8.2
-2.27
-12.63
-23.64
-35.65
-48.31
-60.65
-71.45
-79.98
-86.28
-91.35
-96.82
-104.44
-115.48
-130.02
-146.45
-161.26
-169.53
-166.21
-147.79
-113.88
-67.78
-15.73
34.99
78.21
110.27
130.28
139.27
138.93
130.76
115.98
96.02
73.04
50.05
30.4
16.96
11.31
13.48
22.05
34.82
49.36
63.49
75.5
84.07
88.3
87.62
82.0
72.06
59.03
44.55
30.13
16.7
4.3
-7.82
-20.65
-34.77
-49.92
-65.03
-78.71
-89.85
-98.28
-104.86
-111.35
-119.84
-131.98
-148.15
-166.8
-184.25
-195.32
-194.62
-178.21
-145.15
-98.12
-42.86
13.32
63.53
102.86
129.11
142.48
144.75
138.23
125.16
107.61
87.61
67.5
49.91
37.39
31.82
33.86
42.68
56.19
71.68
86.41
98.27
105.98
109.09
107.73
102.45
94.01
83.32
71.31
58.66
45.68
32.28
18.08
2.84
-13.22
-29.32
-44.36
-57.34
-67.89
-76.4
-83.98
-92.19
-102.6
-116.28
-133.22
-151.69
-168.03
-177.15
-173.8
-154.38
-118.52
-69.66
-14.26
40.13
86.9
121.93
143.81
153.26
152.0
141.91
124.75
102.42
77.35
52.65
31.83
18.03
13.17
17.3
28.52
43.61
58.97
71.61
79.8
83.03
81.67
76.42
67.97
56.92
43.84
29.32
13.92
-1.9
-17.81
-33.51
-48.5
-62.19
-73.9
-83.28
-90.48
-96.19
-101.5
-107.63
-115.73
-126.41
-139.35
-152.81
-163.44
-166.75
-158.37
-135.67
-99.09
-52.48
-2.07
45.36
84.43
112.31
128.59
134.43
131.36
120.63
103.37
81.16
56.59
33.3
15.29
5.82
6.35
16.0
31.82
49.74
65.86
77.43
83.42
84.23
81.05
75.13
67.23
57.51
45.83
32.16
16.87
0.78
-14.99
-29.38
-41.78
-52.12
-60.95
-69.19
-77.89
-88.11
-100.64
-115.81
-133.06
-150.56
-164.97
-171.87
-166.87
-147.12
-112.63
-66.77
-15.56
33.99
75.84
106.38
124.72
132.09
130.64
122.48
109.34
92.75
74.61
57.39
43.81
36.2
35.66
41.71
52.49
65.41
77.96
88.23
95.11
98.04
96.9
91.81
83.23
71.98
59.21
46.1
33.52
21.82
10.86
0.19
-10.53
-21.32
-31.79
-41.29
-49.3
-55.7
-61.01
-66.36
-73.28
-83.25
-97.1
-114.33
-132.5
-147.4
-153.87
-147.37
-125.68
-89.99
-44.83
3.3
47.93
84.34
110.46
126.41
133.5
133.1
126.27
113.93
97.58
79.54
62.84
50.45
44.41
45.26
52.01
62.59
74.57
85.81
94.71
100.28
101.88
99.18
92.12
81.07
66.97
51.23
35.47
21.07
8.69
-1.91
-11.63
-21.62
-32.58
-44.46
-56.42
-67.31
-76.23
-83.06
-88.55
-94.09
-101.33
-111.65
-125.61
-142.47
-159.82
-173.66
-179.24
-172.4
-151.15
-116.73
-73.43
-27.45
15.05
49.56
74.01
88.4
93.89
91.84
83.44
69.96
53.15
35.6
20.48
10.83
8.75
14.67
27.18
43.41
59.93
73.67
82.65
86.2
84.7
79.1
70.39
59.47
47.09
34.02
21.01
8.63
-2.85
-13.61
-24.03
-34.36
-44.52
-54.07
-62.47
-69.51
-75.52
-81.41
-88.43
-97.86
-110.4
-125.62
-141.53
-154.49
-159.87
-153.43
-132.83
-98.81
-55.35
-8.5
35.42
71.58
97.56
113.22
119.81
118.99
112.23
100.87
86.5
71.21
57.52
47.9
44.06
46.4
53.82
64.1
74.6
83.2
88.75
91.11
90.75
88.11
83.18
75.62
65.15
52.1
37.66
23.48
11.15
1.4
-6.09
-12.6
-19.57
-27.89
-37.48
-47.25
-55.73
-61.8
-65.27
-67.16
-69.38
-74.13
-83.16
-97.22
-115.5
-135.48
-153.08
-163.34
-161.68
-145.3
-114.44
-72.58
-25.59
19.99
58.85
88.13
107.45
118.12
121.94
120.29
114.05
104.02
91.49
78.51
67.55
60.84
59.6
63.63
71.42
80.76
89.5
96.21
100.41
102.28
102.18
100.15
95.71
88.19
77.28
63.47
48.17
33.37
20.88
11.63
5.26
0.26
-5.34
-13.09
-23.38
-35.29
-46.99
-56.67
-63.33
-67.34
-70.28
-74.32
-81.51
-93.18
-109.55
-129.54
-150.66
-169.05
-180.03
-179.22
-163.98
-134.62
-94.67
-49.99
-6.98
29.25
55.95
72.68
80.46
80.67
74.47
62.92
47.42
30.18
14.09
2.14
-3.41
-1.74
6.32
18.61
32.4
45.17
55.24
61.82
64.79
64.25
60.26
52.94
42.71
30.53
17.87
6.18
-3.66
-11.65
-18.61
-25.66
-33.49
-42.02
-50.41
-57.59
-62.82
-66.17
-68.54
-71.43
-76.48
-85.0
-97.48
-113.03
-129.09
-141.66
-146.05
-138.36
-116.91
-83.09
-41.22
2.66
42.68
74.66
96.87
109.6
114.28
112.35
104.82
92.54
76.74
59.52
43.79
32.5
27.71
29.81
37.42
47.99
58.79
67.87
74.33
78.12
79.42
78.09
73.68
65.75
54.48
40.95
26.99
14.5
4.67
-2.47
-8.08
-13.89
-21.36
-31.06
-42.36
-53.87
-64.02
-71.72
-76.89
-80.42
-83.98
-89.52
-98.85
-112.94
-131.38
-151.81
-169.96
-180.36
-177.83
-159.3
-125.13
-79.43
-28.81
19.55
60.06
89.88
108.92
118.75
121.36
118.21
110.22
98.32
84.07
69.9
58.61
52.51
52.6
58.18
67.2
77.12
85.85
92.26
96.29
98.38
98.89
97.7
94.18
87.62
77.71
64.93
50.62
36.56
24.36
14.77
7.46
1.06
-6.11
-15.27
-26.52
-38.74
-50.1
-58.92
-64.52
-67.6
-69.99
-74.02
-81.79
-94.57
-112.4
-133.72
-155.21
-172.11
-179.08
-171.71
-148.15
-110.18
-62.94
-13.47
31.34
66.63
90.36
102.89
105.85
101.05
89.96
73.85
54.35
33.81
15.19
1.43
-5.28
-4.23
3.71
16.36
31.04
45.26
57.14
65.5
69.71
69.44
64.64
55.71
43.6
29.74
15.71
2.75
-8.65
-18.8
-28.53
-38.64
-49.44
-60.53
-70.96
-79.68
-86.13
-90.58
-94.16
-98.62
-105.73
-116.65
-131.16
-147.25
-161.09
-167.8
-162.83
-143.5
-110.23
-66.68
-18.82
26.87
65.16
93.18
110.39
117.84
117.0
109.2
95.62
77.72
57.77
38.87
24.34
16.87
17.66
26.01
39.61
55.38
70.33
82.3
90.04
93.07
91.3
84.91
74.43
60.9
45.84
30.89
17.22
5.14
-5.95
-17.14
-29.29
-42.51
-56.04
-68.58
-78.9
-86.46
-91.65
-95.79
-100.87
-108.96
-121.49
-138.38
-157.37
-173.92
-182.17
-176.64
-154.24
-115.74
-65.76
-11.52
39.4
81.17
110.85
128.28
135.13
133.56
125.44
112.32
95.73
77.69
60.8
47.8
40.8
40.56
46.23
55.66
66.27
75.95
83.58
89.05
92.64
94.4
93.76
89.79
81.68
69.44
54.22
38.02
23.06
10.88
1.75
-5.33
-12.14
-20.34
-30.67
-42.56
-54.37
-64.22
-70.88
-74.44
-76.33
-78.86
-84.45
-94.91
-110.84
-131.15
-152.89
-171.33
-180.82
-176.19
-154.48
-116.33
-66.19
-11.22
40.87
83.91
114.65
132.74
139.77
138.0
129.4
115.55
98.03
78.87
60.65
46.16
37.62
36.02
40.82
50.19
61.7
73.09
82.81
90.09
94.63
96.14
94.09
87.94
77.5
63.45
47.33
31.17
16.7
4.66
-5.48
-15.11
-25.76
-38.24
-52.22
-66.33
-78.87
-88.63
-95.45
-100.36
-105.19
-112.02
-122.48
-137.25
-155.46
-174.42
-189.72
-196.07
-188.76
-165.36
-126.91
-77.98
-25.41
23.77
64.19
93.17
110.57
117.64
115.96
106.86
91.55
71.69
49.86
29.44
14.04
6.48
7.93
17.55
32.83
50.31
66.58
79.07
86.4
88.23
85.03
77.7
67.37
55.25
42.44
29.73
17.43
5.32
-7.12
-20.28
-34.08
-47.83
-60.41
-70.74
-78.25
-83.16
-86.62
-90.46
-96.75
-107.17
-122.13
-140.13
-157.41
-168.54
-167.9
-151.64
-119.29
-74.24
-22.92
27.26
70.07
101.86
121.79
130.94
131.06
123.75
110.33
92.23
71.62
51.46
35.08
25.27
23.41
29.02
39.98
53.42
66.65
77.94
86.7
93.03
97.05
98.4
96.26
89.8
78.92
64.54
48.62
33.44
20.78
11.25
4.07
-2.42
-9.96
-19.48
-30.69
-42.18
-52.12
-59.1
-62.82
-64.34
-65.72
-69.48
-77.86
-92.16
-112.12
-135.53
-158.05
-173.86
-177.03
-163.4
-132.29
-87.09
-34.41
17.95
63.33
97.79
120.41
132.35
135.46
131.32
121.04
105.78
87.39
68.64
52.83
42.87
40.47
45.56
56.39
70.15
83.89
95.32
103.28
107.65
108.93
107.57
103.65
96.79
86.63
73.28
57.76
41.79
27.32
15.69
7.09
0.47
-6.0
-14.07
-24.65
-37.43
-50.97
-63.41
-73.21
-79.86
-84.17
-87.96
-93.52
-102.91
-117.4
-137.11
-160.65
-184.92
-205.27
-216.2
-212.67
-191.85
-154.38
-104.7
-49.89
2.33
45.78
77.09
95.67
102.78
100.21
89.61
72.5
50.88
27.69
6.62
-8.61
-15.35
-12.91
-2.74
12.17
28.38
43.06
54.56
62.4
66.69
67.57
64.87
58.3
47.9
34.49
19.7
5.54
-6.35
-15.42
-22.38
-28.82
-36.3
-45.49
-55.75
-65.45
-72.75
-76.64
-77.52
-77.16
-78.1
-82.8
-92.77
-107.97
-126.5
-144.58
-157.12
-158.83
-145.77
-116.87
-74.62
-24.61
26.14
71.19
106.31
129.96
142.63
145.67
140.44
128.13
110.1
88.54
66.6
47.86
35.51
31.37
35.44
45.93
59.95
74.44
86.97
96.16
101.67
103.67
102.32
97.48
88.78
76.16
60.33
42.99
26.38
12.46
2.06
-5.49
-12.02
-19.6
-29.5
-41.57
-54.37
-65.87
-74.39
-79.42
-81.82
-83.58
-87.32
-95.49
-109.63
-129.62
-153.06
-175.31
-190.24
-191.86
-176.13
-142.52
-94.48
-38.57
17.44
66.66
104.66
129.96
143.37
146.9
142.67
132.45
117.87
100.9
84.18
70.81
63.65
64.31
72.52
86.19
102.17
117.45
130.03
139.25
145.32
148.57
148.85
145.44
137.45
124.44
106.91
86.31
64.64
43.83
25.24
9.3
-4.48
-17.17
-29.93
-43.45
-57.62
-71.48
-83.62
-92.81
-98.68
-101.99
-104.5
-108.49
-116.14
-128.89
-146.82
-168.22
-189.35
-204.82
-208.75
-196.5
-166.47
-121.07
-66.35
-10.23
39.84
78.88
105.05
119.07
122.81
118.06
106.06
87.91
65.3
41.04
18.84
2.51
-5.27
-3.8
5.39
19.16
33.94
46.87
56.43
62.37
65.07
64.81
61.35
54.19
43.19
29.08
13.61
-1.09
-13.4
-22.89
-30.5
-37.87
-46.51
-56.84
-68.01
-78.23
-85.68
-89.37
-89.66
-88.28
-87.76
-90.7
-98.97
-113.1
-131.76
-151.7
-168.07
-175.37
-168.92
-146.42
-108.99
-61.13
-9.53
38.85
78.68
107.25
124.3
131.05
129.09
119.73
104.17
84.09
62.17
41.99
27.22
20.53
22.65
32.17
46.14
61.18
74.56
84.79
91.54
95.07
95.58
92.92
86.66
76.65
63.42
48.38
33.47
20.49
10.34
2.66
-4.02
-11.55
-21.3
-33.36
-46.55
-58.89
-68.55
-74.77
-78.22
-80.86
-85.27
-93.84
-107.97
-127.51
-150.3
-172.27
-187.92
-191.59
-179.08
-149.2
-104.56
-51.11
3.52
52.22
90.17
115.68
129.6
134.06
131.22
122.58
109.26
92.62
74.84
58.87
47.73
43.58
46.85
56.17
68.83
81.83
92.76
100.38
104.62
106.04
105.17
102.11
96.44
87.69
75.81
61.55
46.44
32.31
20.59
11.83
5.39
-0.13
-6.36
-14.41
-24.45
-35.59
-46.31
-55.01
-60.74
-63.66
-65.06
-66.95
-71.53
-80.6
-95.09
-114.66
-137.31
-159.13
-174.74
-178.31
-165.38
-134.67
-89.02
-34.87
19.62
67.14
103.05
126.08
137.53
139.83
135.22
125.31
111.36
94.88
77.96
63.18
53.04
49.18
51.91
60.11
71.6
83.81
94.44
102.0
105.97
106.52
104.19
99.43
92.41
83.09
71.51
58.0
43.38
28.8
15.41
4.05
-5.05
-12.3
-18.56
-24.87
-32.13
-40.75
-50.56
-60.83
-70.56
-78.86
-85.36
-90.37
-94.9
-100.38
-108.37
-120.13
-136.25
-156.11
-177.34
-195.76
-205.9
-202.52
-182.48
-146.17
-97.88
-44.65
5.97
48.01
78.38
96.68
104.13
102.32
92.54
76.07
54.82
31.81
10.93
-3.97
-10.29
-7.48
2.83
17.57
33.38
47.63
58.99
67.21
72.59
75.27
74.98
71.12
63.31
51.93
38.33
24.52
12.45
3.19
-3.55
-9.26
-15.8
-24.48
-35.29
-46.95
-57.55
-65.46
-70.17
-72.41
-73.95
-76.92
-83.28
-94.38
-110.47
-130.26
-150.52
-166.29
-171.93
-162.85
-137.32
-97.46
-48.75
1.57
46.85
82.64
107.36
121.62
127.07
125.28
117.38
104.33
87.52
69.23
52.48
40.41
35.36
38.06
47.35
60.6
74.62
86.69
95.28
100.1
101.76
101.0
98.19
93.17
85.55
75.1
62.17
47.85
33.68
21.29
11.73
5.13
0.52
-3.72
-9.24
-17.0
-26.79
-37.33
-46.78
-53.54
-56.93
-57.5
-56.83
-57.15
-60.71
-69.25
-83.31
-101.63
-120.82
-135.5
-139.45
-127.43
-97.18
-50.58
6.56
66.23
120.79
165.15
197.87
220.63
236.48
247.97
255.66
257.98
252.26
236.38
210.3
176.81
141.08
109.15
86.12
74.62
74.26
81.95
92.88
101.76
103.89
95.92
76.31
45.47
5.66
-39.46
-85.54
-128.42
-164.87
-193.08
-212.79
-225.08
-232.07
-236.23
-239.8
-244.1
-249.18
-253.72
-255.6
-252.76
-244.08
-230.01
-212.68
-195.23
-181.04
-172.78
-171.94
-178.45
-190.6
-205.06
-217.17
-221.73
-214.08
-191.4
-153.63
-103.68
-46.87
10.34
61.86
103.07
131.49
146.67
149.75
142.8
128.29
108.88
87.46
67.19
51.36
42.78
42.98
51.49
65.88
82.56
97.94
109.56
116.51
119.11
118.06
113.81
106.34
95.44
81.38
65.18
48.59
33.46
21.1
11.72
4.41
-2.45
-10.44
-20.32
-31.71
-43.23
-53.16
-60.24
-64.35
-66.67
-69.25
-74.42
-83.97
-98.58
-117.4
-137.77
-155.44
-165.3
-162.57
-144.36
-110.84
-65.59
-14.75
34.76
77.13
108.96
129.47
139.66
141.18
135.48
123.64
106.93
87.37
67.98
52.29
43.38
42.81
50.03
62.6
77.1
90.3
100.13
105.95
108.23
107.76
105.02
99.9
91.9
80.66
66.51
50.63
34.85
20.99
10.22
2.56
-3.09
-8.48
-15.25
-24.21
-35.0
-46.29
-56.38
-63.98
-68.75
-71.49
-73.9
-78.01
-85.77
-98.49
-116.45
-138.4
-161.27
-180.21
-189.51
-184.11
-161.39
-122.48
-72.26
-18.08
32.49
73.85
103.44
121.59
130.27
131.63
127.21
117.96
104.93
89.96
75.7
65.06
60.29
62.15
69.72
80.87
93.01
103.94
112.21
117.28
119.24
118.46
115.3
109.91
102.25
92.26
80.1
66.36
52.05
38.39
26.44
16.71
8.96
2.39
-4.06
-11.29
-19.71
-29.15
-38.92
-48.12
-55.99
-62.25
-67.35
-72.38
-78.8
-88.11
-101.45
-119.29
-140.94
-164.18
-185.06
-198.4
-199.01
-183.47
-151.62
-107.11
-56.47
-7.09
35.0
66.44
86.74
97.14
99.33
94.6
83.84
68.17
49.61
31.16
16.28
7.88
7.33
14.07
25.86
39.65
52.59
62.83
69.72
73.45
74.52
73.13
69.08
62.01
51.8
38.99
24.9
11.3
-0.12
-8.42
-13.8
-17.43
-21.0
-25.91
-32.66
-40.66
-48.61
-55.15
-59.59
-62.23
-64.23
-67.24
-72.87
-82.38
-96.32
-114.26
-134.27
-152.8
-165.06
-166.15
-152.71
-124.27
-83.75
-36.75
10.21
51.56
83.89
106.17
119.03
123.7
121.27
112.66
99.02
82.24
65.09
50.83
42.32
41.18
47.19
58.41
71.86
84.58
94.44
100.54
103.0
102.41
99.26
93.68
85.54
74.74
61.61
47.04
32.27
18.67
7.24
-1.7
-8.6
-14.56
-20.84
-28.41
-37.52
-47.57
-57.41
-65.82
-72.06
-76.25
-79.34
-82.85
-88.45
-97.61
-111.23
-129.2
-149.97
-170.17
-184.9
-188.75
-177.53
-149.93
-108.39
-58.56
-7.59
37.98
73.98
99.05
114.06
120.85
121.19
116.35
107.38
95.55
82.75
71.28
63.35
60.43
62.81
69.53
78.77
88.48
96.94
103.11
106.61
107.54
106.13
102.57
96.94
89.32
79.91
69.02
57.14
44.84
32.77
21.56
11.75
3.67
-2.8
-8.22
-13.5
-19.53
-26.92
-35.66
-45.17
-54.64
-63.31
-70.94
-77.88
-85.0
-93.45
-104.49
-119.12
-137.74
-159.55
-182.08
-201.1
-211.37
-208.14
-188.87
-154.48
-109.39
-60.25
-13.95
24.35
52.13
69.36
77.43
77.95
72.2
61.23
46.45
30.19
15.61
5.98
3.65
9.2
21.2
36.75
52.58
66.1
76.04
82.28
85.31
85.58
83.09
77.54
68.74
57.06
43.56
29.82
17.5
7.73
0.76
-4.23
-8.76
-14.4
-22.14
-31.83
-42.26
-51.73
-58.86
-63.35
-66.16
-69.17
-74.52
-83.86
-97.95
-116.36
-137.25
-157.32
-172.06
-176.57
-166.95
-141.8
-103.09
-55.91
-6.98
37.38
72.89
98.01
113.38
120.62
121.17
115.94
105.58
91.22
74.95
59.72
48.66
44.11
46.77
55.51
67.84
80.75
91.69
99.22
103.06
103.71
101.87
97.92
91.84
83.45
72.76
60.31
47.12
34.42
23.23
14.03
6.63
0.34
-5.77
-12.56
-20.47
-29.44
-38.85
-47.73
-55.22
-60.88
-65.08
-68.85
-73.67
-80.97
-91.9
-107.0
-125.98
-147.23
-167.59
-182.42
-186.47
-175.53
-148.1
-106.37
-55.89
-3.89
42.92
80.17
106.36
122.32
129.87
130.72
126.08
116.88
104.37
90.45
77.57
68.16
63.97
65.5
71.93
81.45
91.84
101.16
108.2
112.53
114.23
113.56
110.58
105.19
97.21
86.73
74.25
60.68
47.15
34.7
23.98
15.16
7.92
1.52
-4.91
-12.17
-20.68
-30.39
-40.71
-50.78
-59.79
-67.32
-73.56
-79.29
-85.69
-94.1
-105.73
-121.4
-140.99
-162.96
-183.92
-198.95
-202.73
-191.26
-163.54
-122.28
-73.34
-23.88
19.76
53.68
76.7
89.62
94.0
91.14
82.01
67.7
50.09
32.05
17.07
8.26
7.4
14.28
26.82
41.87
56.27
67.79
75.52
79.69
81.02
80.09
76.97
71.27
62.65
51.22
37.85
24.04
11.46
1.31
-6.08
-11.42
-16.13
-21.72
-29.11
-38.28
-48.22
-57.47
-64.79
-69.75
-73.0
-76.01
-80.61
-88.43
-100.49
-116.89
-136.42
-156.42
-172.7
-180.26
-174.53
-153.04
-116.58
-69.43
-18.13
30.39
70.78
100.38
119.03
128.09
129.3
124.1
113.62
99.25
83.0
67.55
55.7
49.67
50.36
57.11
67.96
80.31
91.73
100.45
105.68
107.34
105.79
101.44
94.69
85.85
75.32
63.61
51.33
39.05
27.28
16.43
6.83
-1.26
-7.8
-13.01
-17.46
-21.96
-27.27
-33.72
-41.1
-48.72
-55.76
-61.67
-66.54
-71.05
-76.33
-83.7
-94.36
-109.1
-127.66
-148.18
-166.82
-178.22
-176.78
-158.69
-123.63
-75.38
-20.84
32.07
76.86
109.9
130.68
140.77
142.46
137.72
127.92
114.27
98.28
82.09
68.16
58.71
55.1
57.37
64.36
74.14
84.62
94.11
101.5
106.25
108.09
106.86
102.42
94.89
84.76
72.96
60.56
48.52
37.35
27.04
17.3
7.86
-1.28
-9.77
-17.27
-23.7
-29.5
-35.54
-42.77
-51.67
-62.02
-72.89
-83.1
-91.75
-98.72
-104.77
-111.35
-120.23
-133.03
-150.58
-172.28
-195.54
-215.69
-226.8
-223.28
-201.99
-163.75
-113.5
-58.89
-7.88
33.57
62.77
79.96
87.08
86.24
78.92
66.14
49.16
30.15
12.32
-0.87
-6.63
-3.93
6.25
21.24
37.74
52.87
64.85
73.18
78.17
80.33
79.88
76.71
70.56
61.45
49.86
36.85
23.75
11.84
1.94
-5.83
-12.14
-18.17
-25.11
-33.67
-43.67
-54.06
-63.47
-70.72
-75.44
-78.24
-80.5
-83.98
-90.36
-100.9
-116.12
-135.3
-156.06
-174.19
-184.28
-181.17
-161.68
-126.07
-78.37
-25.3
25.74
68.72
100.3
119.92
128.95
129.42
123.12
111.38
95.44
77.06
58.79
43.72
34.69
33.39
39.67
51.6
66.13
80.16
91.38
98.73
102.26
102.59
100.31
95.75
88.92
79.8
68.56
55.8
42.46
29.62
18.2
8.72
1.15
-5.09
-10.85
-16.92
-23.74
-31.21
-38.74
-45.51
-50.83
-54.44
-56.77
-58.84
-62.11
-68.05
-78.01
-92.69
-111.83
-133.67
-154.67
-169.79
-173.61
-161.96
-133.65
-91.29
-40.74
10.59
55.95
91.02
114.41
127.04
130.83
127.57
118.48
104.53
86.97
67.93
50.31
37.19
30.92
32.32
40.34
52.4
65.37
76.53
84.31
88.37
89.12
87.04
82.28
74.59
63.72
49.85
33.87
17.27
1.7
-11.56
-22.1
-30.44
-37.79
-45.59
-54.77
-65.34
-76.37
-86.35
-93.9
-98.44
-100.47
-101.43
-103.21
-107.63
-116.01
-128.89
-145.7
-164.39
-181.36
-191.77
-190.66
-174.6
-143.07
-99.07
-48.43
1.89
45.85
79.65
102.11
113.94
116.62
111.58
100.03
83.36
63.7
44.03
27.82
18.13
16.56
22.79
34.7
49.21
63.39
75.24
83.93
89.37
91.64
90.47
85.36
76.03
62.93
47.46
31.75
17.85
6.98
-0.93
-7.17
-13.56
-21.63
-31.79
-43.22
-54.25
-63.23
-69.36
-73.12
-76.13
-80.59
-88.59
-101.4
-118.95
-139.53
-159.63
-174.35
-178.37
-167.61
-140.71
-99.95
-50.8
-0.38
44.75
80.24
104.59
118.52
123.79
122.07
114.5
102.04
86.09
68.98
53.75
43.48
40.35
44.79
55.33
69.14
83.03
94.49
102.31
106.56
107.98
107.2
104.31
98.85
90.27
78.56
64.56
49.85
36.22
25.02
16.62
10.27
4.53
-2.06
-10.36
-20.15
-30.26
-39.13
-45.52
-49.13
-50.82
-52.34
-55.77
-62.95
-75.02
-92.08
-112.93
-134.79
-153.37
-163.48
-160.35
-141.3
-106.99
-61.64
-11.9
35.17
74.08
102.12
119.21
126.91
127.07
121.14
110.11
95.09
77.87
61.02
47.46
39.61
38.62
43.98
53.82
65.52
76.63
85.46
91.22
93.89
93.66
90.58
84.44
74.93
62.04
46.42
29.51
13.16
-0.91
-11.74
-19.54
-25.58
-31.65
-39.29
-49.12
-60.64
-72.47
-82.99
-91.03
-96.34
-99.69
-102.57
-106.77
-113.93
-125.08
-140.3
-158.27
-176.13
-189.62
-193.91
-184.92
-160.89
-123.21
-76.41
-26.91
18.87
56.18
82.76
98.58
104.86
103.01
94.27
79.88
61.73
42.67
26.25
15.76
13.26
18.79
30.47
45.25
60.0
72.45
81.55
87.28
89.96
89.79
86.52
79.72
69.29
55.9
41.07
26.81
14.78
5.65
-1.23
-7.45
-14.81
-24.27
-35.54
-47.17
-57.31
-64.57
-68.81
-71.13
-73.63
-78.65
-88.07
-102.84
-122.41
-144.45
-164.82
-178.18
-179.3
-164.71
-134.2
-91.19
-41.96
6.36
47.79
79.05
99.57
110.73
114.47
112.34
105.38
94.48
81.01
67.11
55.37
48.15
46.9
51.64
60.97
72.6
84.03
93.33
99.53
102.57
102.9
100.95
96.76
90.02
80.44
68.17
54.06
39.52
26.08
14.9
6.34
-0.04
-5.29
-10.67
-17.24
-25.46
-35.07
-45.05
-54.08
-61.01
-65.46
-68.13
-70.53
-74.58
-81.99
-93.84
-110.24
-130.01
-150.39
-167.02
-174.67
-168.49
-145.86
-107.77
-58.93
-6.54
41.97
81.1
108.46
124.49
131.27
131.17
125.96
116.8
104.76
91.25
78.26
68.03
62.43
62.4
67.52
76.23
86.29
95.59
102.67
106.95
108.51
107.65
104.53
99.12
91.37
81.49
69.97
57.58
45.09
33.12
22.11
12.29
3.8
-3.41
-9.66
-15.58
-21.89
-29.14
-37.47
-46.45
-55.31
-63.32
-70.12
-75.99
-81.72
-88.45
-97.41
-109.7
-126.03
-146.22
-168.67
-189.97
-205.15
-208.82
-197.01
-168.78
-127.09
-78.07
-29.12
13.39
45.68
66.9
78.2
81.32
77.63
68.03
53.51
35.97
18.38
4.3
-3.18
-2.5
5.84
19.58
35.55
50.8
63.38
72.6
78.59
81.77
82.27
79.82
74.06
64.99
53.39
40.8
29.08
19.76
13.39
9.35
6.08
1.83
-4.52
-12.94
-22.2
-30.45
-36.08
-38.56
-38.95
-39.69
-43.91
-54.64
-73.91
-101.98
-136.86
-174.12
-207.43
-229.68
-234.78
-219.5
-184.7
-135.3
-78.92
-23.72
23.79
60.04
84.4
98.28
103.79
102.8
96.71
86.78
74.62
62.44
52.81
47.98
49.15
55.98
66.76
79.01
90.33
99.12
104.81
107.62
108.0
106.14
101.78
94.47
83.92
70.57
55.6
40.74
27.68
17.46
10.09
4.54
-0.83
