0
65.66
73.9
77.31
76.68
73.12
67.93
62.37
57.42
53.57
50.92
49.28
48.44
48.25
48.64
49.54
50.71
51.82
52.36
51.79
49.69
45.86
40.4
33.71
26.37
18.89
11.51
4.12
-3.57
-11.84
-20.62
-29.47
-37.74
-44.81
-50.45
-54.96
-59.04
-63.64
-69.72
-77.93
-88.35
-100.15
-111.44
-119.57
-121.62
-115.38
-100.1
-76.88
-48.33
-17.92
11.05
36.1
55.9
70.14
79.19
83.64
84.23
81.65
76.78
70.66
64.48
59.41
56.28
55.35
56.32
58.44
60.92
63.06
64.48
65.03
64.65
63.28
60.81
57.12
52.13
45.76
38.05
29.15
19.39
9.25
-0.74
-10.15
-18.81
-26.83
-34.57
-42.49
-51.12
-60.91
-72.11
-84.38
-96.55
-106.58
-111.75
-109.58
-98.56
-78.93
-52.66
-22.98
6.6
33.13
54.8
70.91
81.59
87.35
88.88
86.94
82.39
76.32
69.81
63.88
59.23
56.09
54.32
53.56
53.43
53.76
54.48
55.58
56.85
57.75
57.56
55.55
51.32
45.03
37.25
28.83
20.45
12.38
4.43
-3.85
-12.88
-22.71
-32.94
-42.88
-51.75
-59.08
-64.91
-69.86
-75.04
-81.75
-91.07
-103.23
-117.21
-130.69
-140.43
-143.13
-136.48
-119.97
-95.09
-64.92
-33.23
-3.53
21.68
41.08
54.43
62.21
65.25
64.53
61.14
56.16
50.72
45.82
42.2
40.16
39.54
39.84
40.49
41.13
41.7
42.39
43.39
44.61
45.57
45.54
43.77
39.82
33.68
25.83
17.1
8.36
0.26
-6.98
-13.58
-20.08
-27.03
-34.66
-42.77
-50.76
-57.93
-63.8
-68.35
-72.03
-75.74
-80.6
-87.57
-97.08
-108.62
-120.42
-129.72
-133.39
-128.97
-115.47
-93.79
-66.43
-36.62
-7.54
18.44
39.86
56.01
66.77
72.4
73.47
70.94
65.98
59.88
53.81
48.68
45.12
43.36
43.37
44.78
47.14
49.89
52.49
54.51
55.61
55.59
54.38
52.04
48.68
44.42
39.32
33.28
26.27
18.33
9.78
1.14
-7.0
-14.19
-20.25
-25.37
-30.09
-35.13
-41.31
-49.18
-58.77
-69.22
-78.71
-84.74
-84.8
-77.16
-61.47
-39.12
-12.72
14.5
39.57
60.36
75.81
85.8
90.82
91.72
89.46
84.99
79.24
73.0
66.95
61.56
57.06
53.48
50.73
48.71
47.34
46.57
46.33
46.29
45.95
44.65
41.82
37.17
30.8
23.11
14.68
6.02
-2.61
-11.21
-19.87
-28.64
-37.42
-45.96
-53.95
-61.09
-67.25
-72.57
-77.5
-82.87
-89.66
-98.67
-109.91
-122.23
-133.2
-139.65
-138.58
-128.21
-108.62
-81.81
-51.06
-19.98
8.39
31.99
49.9
61.99
68.65
70.63
68.87
64.54
58.85
52.98
47.83
43.89
41.23
39.62
38.75
38.37
38.45
38.96
39.79
40.59
40.72
39.51
36.44
31.44
24.83
17.29
9.53
2.02
-5.14
-12.12
-19.32
-27.03
-35.25
-43.69
-51.8
-59.0
-64.95
-69.71
-73.8
-78.07
-83.55
-91.02
-100.62
-111.57
-121.96
-129.16
-130.36
-123.53
-108.1
-85.28
-57.65
-28.5
-0.94
22.82
41.59
55.14
63.74
67.99
68.61
66.34
62.05
56.64
51.05
46.08
42.36
40.22
39.69
40.45
42.0
43.82
45.55
46.98
48.01
48.46
48.04
46.38
43.2
38.44
32.28
25.12
17.41
9.56
1.89
-5.33
-11.88
-17.76
-23.16
-28.57
-34.68
-42.19
-51.38
-61.84
-72.29
-80.68
-84.66
-82.19
-72.17
-54.92
-32.09
-6.33
19.45
42.68
61.7
75.76
84.88
89.47
90.18
87.73
82.9
76.61
69.79
63.37
58.09
54.36
52.21
51.35
51.26
51.32
51.01
49.97
48.07
45.4
42.07
38.11
33.36
27.49
20.17
11.3
1.1
-9.83
-20.71
-30.82
-39.72
-47.36
-53.98
-60.12
-66.45
-73.68
-82.43
-92.8
-104.09
-114.51
-121.47
-122.25
-114.87
-98.95
-75.98
-48.86
-21.02
4.55
25.9
42.27
53.74
60.86
64.33
64.84
63.15
60.06
56.41
52.96
50.28
48.63
48.04
48.29
49.12
50.19
51.23
51.98
52.12
51.36
49.41
46.1
41.41
35.48
28.57
20.95
12.81
4.33
-4.39
-13.21
-21.89
-30.16
-37.74
-44.54
-50.72
-56.77
-63.45
-71.51
-81.32
-92.49
-103.61
-112.39
-116.24
-113.01
-101.76
-83.15
-59.26
-33.06
-7.54
14.88
32.8
45.74
53.99
58.2
59.22
57.94
55.12
51.46
47.5
43.75
40.61
38.4
37.26
37.07
37.49
38.08
38.34
37.92
36.59
34.24
30.78
26.2
20.56
14.05
6.95
-0.44
-7.89
-15.25
-22.48
-29.51
-36.23
-42.44
-47.91
-52.57
-56.53
-60.3
-64.63
-70.36
-78.05
-87.49
-97.47
-105.84
-110.01
-107.69
-97.71
-80.43
-57.64
-32.07
-6.57
16.51
35.72
50.45
60.61
66.47
68.44
67.15
63.48
58.61
53.77
50.06
48.12
47.99
49.24
51.21
53.3
55.11
56.52
57.48
57.85
57.42
55.86
52.86
48.19
41.86
34.12
25.45
16.54
8.11
0.66
-5.63
-10.99
-16.04
-21.58
-28.38
-36.87
-46.87
-57.45
-66.95
-73.28
-74.39
-68.93
-56.68
-38.76
-17.29
5.1
26.04
43.81
57.57
67.24
73.16
75.78
75.5
72.75
68.06
62.22
56.18
50.91
47.1
44.88
43.94
43.61
43.18
42.14
40.32
37.74
34.56
30.88
26.7
21.95
16.51
10.28
3.27
-4.36
-12.36
-20.42
-28.2
-35.53
-42.37
-48.82
-55.18
-61.81
-69.2
-77.88
-88.03
-99.18
-109.87
-117.78
-120.28
-115.32
-102.24
-82.1
-57.36
-31.16
-6.32
15.22
32.53
45.55
54.66
60.46
63.56
64.55
64.03
62.56
60.65
58.69
56.99
55.65
54.66
53.95
53.37
52.82
52.09
50.99
49.18
46.37
42.29
36.92
30.52
23.55
16.56
9.9
3.7
-2.22
-8.2
-14.56
-21.48
-28.84
-36.32
-43.5
-50.1
-56.13
-62.05
-68.69
-76.98
-87.39
-99.57
-112.0
-122.22
-127.41
-125.28
-114.84
-96.76
-73.22
-47.33
-22.18
-0.22
17.19
29.74
37.88
42.44
44.27
44.15
42.74
40.61
38.25
36.0
34.09
32.51
31.24
30.2
29.5
29.22
29.33
29.65
29.76
29.17
27.51
24.64
20.68
15.88
10.62
5.17
-0.3
-5.68
-11.02
-16.37
-21.77
-27.14
-32.33
-37.17
-41.52
-45.51
-49.52
-54.17
-60.07
-67.59
-76.34
-85.06
-91.65
-93.65
-88.99
-76.75
-57.55
-33.44
-7.29
18.01
40.24
58.2
71.61
80.78
86.24
88.54
88.18
85.69
81.77
77.18
72.76
69.17
66.78
65.57
65.18
65.09
64.85
64.15
62.88
60.99
58.41
54.95
50.38
44.55
37.48
29.35
20.45
11.12
1.55
-8.03
-17.35
-26.11
-34.03
-41.03
-47.37
-53.72
-60.93
-69.76
-80.39
-92.19
-103.57
-112.23
-115.68
-111.94
-100.24
-81.32
-57.34
-31.23
-5.94
16.31
34.34
47.92
57.34
63.11
65.71
65.68
63.71
60.62
57.32
54.53
52.57
51.39
50.63
49.91
49.04
48.11
47.31
46.73
46.22
45.33
43.44
40.01
34.82
28.05
20.31
12.29
4.6
-2.45
-8.94
-15.19
-21.59
-28.38
-35.52
-42.72
-49.51
-55.52
-60.59
-64.99
-69.36
-74.71
-82.0
-91.9
-104.24
-117.75
-130.0
-137.94
-138.66
-130.41
-113.18
-88.82
-60.56
-31.98
-6.13
15.07
30.92
41.66
48.01
50.87
51.12
49.61
47.24
44.86
43.17
42.55
43.0
44.1
45.31
46.18
46.58
46.68
46.81
47.1
47.35
47.01
45.37
41.95
36.66
29.91
22.43
15.0
8.21
2.26
-3.08
-8.33
-13.99
-20.36
-27.28
-34.24
-40.51
-45.58
-49.32
-52.16
-54.97
-58.83
-64.64
-72.72
-82.47
-92.19
-99.34
-101.17
-95.51
-81.51
-60.06
-33.45
-4.71
23.18
47.96
68.26
83.52
93.72
99.18
100.43
98.32
93.94
88.43
82.87
78.02
74.31
71.83
70.39
69.72
69.46
69.26
68.75
67.59
65.43
62.01
57.21
51.09
43.93
36.09
27.95
19.7
11.39
2.89
-5.96
-15.15
-24.48
-33.58
-42.08
-49.78
-56.73
-63.27
-70.09
-77.98
-87.59
-98.95
-111.08
-121.84
-128.3
-127.57
-117.85
-99.12
-73.3
-43.65
-13.83
13.18
35.51
52.44
64.15
71.18
74.26
74.19
71.8
68.01
63.73
59.71
56.45
54.14
52.65
51.64
50.86
50.2
49.76
49.72
50.07
50.45
50.15
48.29
44.27
38.02
30.11
21.51
13.27
6.06
0.06
-5.08
-10.02
-15.42
-21.72
-28.93
-36.65
-44.16
-50.81
-56.23
-60.6
-64.66
-69.53
-76.4
-85.96
-98.03
-111.21
-123.05
-130.48
-130.65
-121.79
-103.82
-78.53
-49.01
-18.9
8.55
31.13
47.77
58.45
63.77
64.66
62.2
57.62
52.16
47.03
43.15
40.94
40.39
41.06
42.43
44.09
45.87
47.77
49.79
51.77
53.26
53.7
52.43
49.02
43.38
35.87
27.25
18.4
10.06
2.52
-4.39
-11.2
-18.49
-26.54
-35.13
-43.65
-51.37
-57.76
-62.74
-66.71
-70.54
-75.2
-81.59
-90.03
-100.02
-109.98
-117.46
-119.74
-114.65
-101.32
-80.6
-54.77
-26.93
-0.03
23.72
43.06
57.57
67.36
72.78
74.32
72.7
68.86
63.9
58.93
54.9
52.42
51.69
52.5
54.3
56.48
58.48
59.91
60.62
60.51
59.48
57.32
53.77
48.6
41.7
33.23
23.55
13.18
2.71
-7.31
-16.46
-24.61
-31.88
-38.65
-45.48
-52.97
-61.51
-71.1
-81.08
-90.01
-95.8
-96.18
-89.41
-74.96
-53.83
-28.3
-1.35
24.24
46.39
64.02
76.74
84.67
88.14
87.67
83.92
77.84
70.55
63.14
56.6
51.61
48.47
47.11
47.1
47.86
48.76
49.27
49.05
47.88
45.68
42.43
38.2
33.13
27.4
21.14
14.4
7.05
-1.0
-9.81
-19.23
-28.88
-38.27
-46.94
-54.7
-61.64
-68.2
-75.07
-83.08
-92.8
-104.13
-115.98
-126.18
-131.92
-130.53
-120.44
-101.79
-76.47
-47.65
-18.81
7.09
28.16
43.66
53.74
59.09
60.58
59.16
55.8
51.45
46.98
43.09
40.23
38.52
37.85
37.93
38.52
39.39
40.42
41.47
42.26
42.37
41.32
38.74
34.54
28.95
22.36
15.2
7.71
-0.17
-8.63
-17.85
-27.73
-37.97
-48.0
-57.27
-65.38
-72.27
-78.31
-84.15
-90.76
-98.99
-109.14
-120.52
-131.2
-138.4
-139.22
-131.71
-115.53
-92.26
-64.8
-36.51
-10.34
11.72
28.77
40.71
47.97
51.17
51.06
48.43
44.23
39.42
34.98
31.71
30.03
29.94
31.07
32.8
34.6
36.16
37.41
38.4
39.12
39.37
38.78
36.93
33.55
28.57
22.22
14.91
7.2
-0.32
-7.19
-13.14
-18.14
-22.46
-26.62
-31.32
-37.28
-44.93
-54.0
-63.33
-70.9
-74.29
-71.38
-61.15
-44.03
-21.89
2.62
26.77
48.33
66.0
79.21
88.02
92.76
93.87
91.87
87.36
81.17
74.27
67.75
62.48
58.95
57.01
56.1
55.39
54.25
52.39
49.94
47.24
44.43
41.33
37.37
31.88
24.36
14.86
4.0
-7.19
-17.68
-26.78
-34.38
-40.99
-47.48
-54.78
-63.59
-74.13
-85.96
-97.86
-107.86
-113.58
-112.8
-104.15
-87.68
-64.95
-38.65
-11.8
12.94
33.83
50.08
61.66
68.92
72.32
72.41
69.85
65.47
60.23
55.16
51.04
48.34
47.0
46.51
46.2
45.42
43.86
41.56
38.83
35.98
33.16
30.17
26.64
22.06
16.05
8.51
-0.29
-9.77
-19.26
-28.19
-36.21
-43.36
-49.92
-56.4
-63.37
-71.42
-80.96
-92.03
-103.93
-115.08
-123.17
-125.65
-120.58
-107.37
-87.14
-62.43
-36.45
-12.2
8.21
23.82
34.61
41.08
43.92
43.73
41.15
36.91
31.88
27.01
23.16
20.84
20.12
20.62
21.75
22.88
23.58
23.69
23.21
22.28
20.97
19.25
17.0
14.01
10.0
4.78
-1.68
-9.16
-17.19
-25.1
-32.34
-38.63
-44.0
-48.85
-53.84
-59.63
-66.74
-75.26
-84.68
-93.74
-100.47
-102.7
-98.54
-87.13
-68.96
-45.84
-20.41
4.59
26.9
45.21
59.0
68.4
73.79
75.7
74.74
71.7
67.59
63.55
60.57
59.31
59.74
61.41
63.54
65.43
66.7
67.32
67.53
67.41
66.84
65.33
62.28
57.18
49.91
40.86
30.8
20.64
11.12
2.57
-5.17
-12.68
-20.82
-30.36
-41.78
-54.81
-68.26
-80.05
-87.58
-88.5
-81.45
-66.63
-45.83
-21.86
2.3
24.2
42.3
56.05
65.47
70.85
72.62
71.29
67.6
62.49
57.01
52.05
48.2
45.69
44.38
43.95
44.04
44.31
44.45
44.17
43.18
41.23
38.18
34.01
28.86
22.94
16.41
9.37
1.85
-6.15
-14.5
-22.98
-31.23
-38.99
-46.09
-52.67
-59.08
-65.91
-73.77
-83.17
-94.2
-106.27
-117.95
-127.08
-131.12
-127.93
-116.42
-97.09
-71.94
-44.01
-16.5
8.04
28.09
43.18
53.51
59.62
62.1
61.66
59.14
55.59
52.03
49.27
47.61
46.91
46.67
46.45
46.01
45.37
44.7
44.15
43.61
42.74
41.06
38.08
33.54
27.54
20.47
12.95
5.52
-1.62
-8.66
-16.02
-24.05
-32.73
-41.58
-49.86
-56.98
-62.8
-67.69
-72.42
-77.87
-84.82
-93.74
-104.56
-116.49
-127.82
-136.11
-138.69
-133.41
-119.51
-97.99
-71.39
-43.04
-16.11
7.13
25.61
39.17
48.31
53.71
56.1
56.25
55.04
53.37
52.07
51.63
52.12
53.29
54.73
56.12
57.34
58.51
59.73
60.96
61.87
61.9
60.53
57.43
52.73
46.94
40.73
34.63
28.87
23.26
17.42
11.09
4.28
-2.55
-8.79
-13.86
-17.52
-20.06
-22.27
-25.27
-30.21
-37.92
-48.32
-60.3
-71.63
-79.49
-81.18
-75.02
-60.92
-40.4
-16.09
8.99
32.25
51.87
66.99
77.41
83.41
85.54
84.51
81.23
76.7
71.94
67.74
64.57
62.49
61.26
60.5
59.86
59.2
58.5
57.82
57.07
56.02
54.2
51.08
46.3
39.81
32.03
23.68
15.63
8.53
2.58
-2.58
-7.68
-13.45
-20.28
-28.05
-36.18
-43.88
-50.51
-55.87
-60.28
-64.51
-69.6
-76.54
-85.95
-97.6
-110.17
-121.31
-128.11
-127.9
-119.19
-102.15
-78.64
-51.63
-24.28
0.76
21.83
38.31
50.27
58.23
62.76
64.5
64.13
62.38
60.13
58.19
57.17
57.27
58.26
59.53
60.47
60.73
60.35
59.62
58.87
58.16
57.21
55.55
52.72
48.55
43.08
36.59
29.43
21.96
14.53
7.49
1.07
-4.77
-10.28
-15.88
-21.94
-28.55
-35.47
-42.24
-48.39
-53.69
-58.19
-62.29
-66.55
-71.67
-78.43
-87.44
-98.82
-111.83
-124.62
-134.46
-138.39
-134.24
-121.31
-100.78
-75.32
-48.21
-22.5
-0.34
17.16
29.75
37.68
41.56
42.2
40.68
38.17
35.75
34.13
33.5
33.62
34.0
34.24
34.21
34.04
34.01
34.33
35.02
35.82
36.3
35.9
34.13
30.73
25.74
19.63
13.13
7.03
1.89
-2.28
-5.9
-9.7
-14.22
-19.66
-25.7
-31.72
-37.09
-41.45
-44.84
-47.63
-50.44
-53.98
-58.97
-65.81
-74.32
-83.47
-91.39
-95.68
-94.03
-85.11
-68.95
-47.09
-22.04
3.34
26.65
46.32
61.7
72.83
80.05
83.82
84.53
82.68
78.94
74.15
69.26
65.16
62.41
61.12
61.11
61.93
63.07
64.09
64.58
64.16
62.51
59.42
54.86
49.04
42.26
34.89
27.22
19.34
11.22
2.76
-6.04
-15.03
-23.92
-32.39
-40.2
-47.46
-54.54
-62.16
-71.04
-81.57
-93.42
-105.36
-115.3
-120.78
-119.7
-110.96
-94.89
-73.15
-48.28
-22.97
0.48
20.51
36.2
47.26
53.81
56.37
55.79
53.15
49.58
46.04
43.13
41.07
39.8
39.1
38.82
38.84
39.2
39.9
40.91
42.01
42.77
42.64
41.09
37.84
33.0
27.05
20.68
14.51
8.9
3.7
-1.55
-7.39
-14.16
-21.8
-29.83
-37.56
-44.34
-49.8
-54.08
-57.78
-61.96
-67.73
-75.92
-86.62
-98.73
-110.08
-117.83
-119.25
-112.6
-97.81
-76.41
-51.15
-25.16
-1.2
18.84
33.99
44.14
49.67
51.34
50.06
46.86
42.75
38.66
35.25
32.89
31.62
31.23
31.39
31.85
32.48
33.26
34.23
35.22
35.83
35.49
33.66
30.13
25.07
19.03
12.62
6.42
0.59
-4.99
-10.63
-16.62
-23.07
-29.82
-36.53
-42.8
-48.29
-52.94
-57.02
-61.1
-65.97
-72.4
-80.77
-90.68
-100.69
-108.52
-111.49
-107.44
-95.45
-76.25
-52.04
-25.82
-0.5
21.74
39.69
53.06
62.04
67.04
68.55
67.17
63.68
59.09
54.43
50.68
48.56
48.39
50.09
53.23
57.18
61.28
65.0
67.98
70.09
71.24
71.3
70.05
67.23
62.63
56.28
48.52
39.92
31.13
22.69
14.9
7.71
0.9
-5.96
-13.38
-21.88
-31.84
-43.17
-55.11
-66.1
-73.95
-76.42
-71.87
-59.91
-41.56
-19.08
4.72
27.16
46.24
60.91
70.99
76.83
79.03
78.27
75.2
70.55
65.09
59.61
54.81
51.17
48.87
47.76
47.52
47.71
47.91
47.74
46.91
45.15
42.3
38.28
33.18
27.13
20.28
12.75
4.64
-3.98
-12.93
-21.98
-30.84
-39.2
-46.82
-53.64
-59.78
-65.6
-71.68
-78.72
-87.28
-97.42
-108.39
-118.5
-125.31
-126.28
-119.55
-104.64
-82.72
-56.31
-28.66
-2.76
19.27
36.4
48.59
56.33
60.31
61.16
59.57
56.24
52.04
47.86
44.44
42.2
41.15
40.95
41.16
41.44
41.59
41.56
41.3
40.65
39.31
36.87
33.03
27.78
21.48
14.77
8.29
2.42
-2.83
-7.95
-13.62
-20.35
-28.27
-37.01
-45.84
-53.9
-60.6
-65.78
-69.84
-73.7
-78.47
-85.1
-94.0
-104.58
-115.19
-123.28
-126.12
-121.62
-108.99
-89.11
-64.23
-37.28
-11.12
12.05
31.02
45.31
55.01
60.44
62.11
60.67
57.07
52.41
47.92
44.68
43.32
43.92
46.02
48.88
51.72
54.07
55.75
56.78
57.2
56.92
55.71
53.27
49.42
44.12
37.51
29.89
21.67
13.32
5.31
-1.97
-8.33
-13.82
-18.75
-23.69
-29.32
-36.36
-45.2
-55.56
-66.23
-75.09
-79.59
-77.53
-67.87
-51.18
-29.55
-5.84
17.13
37.26
53.47
65.44
73.33
77.45
78.2
76.12
71.94
66.51
60.71
55.24
50.56
46.91
44.26
42.49
41.37
40.58
39.81
38.7
36.97
34.42
31.02
26.81
21.94
16.46
10.39
3.64
-3.79
-11.81
-20.09
-28.2
-35.73
-42.37
-48.07
-53.01
-57.53
-62.16
-67.55
-74.39
-83.13
-93.58
-104.54
-113.78
-118.52
-116.23
-105.61
-87.14
-62.97
-36.27
-10.24
12.69
31.25
45.22
55.01
61.31
64.74
65.85
65.17
63.22
60.6
57.87
55.49
53.7
52.52
51.78
51.18
50.58
49.97
49.5
49.36
49.41
49.24
48.16
45.52
40.95
34.62
27.19
19.53
12.44
6.32
1.07
-3.9
-9.24
-15.53
-22.91
-31.03
-39.26
-46.91
-53.56
-59.18
-64.26
-69.5
-75.78
-83.84
-94.03
-106.09
-118.84
-130.19
-137.35
-137.69
-129.52
-112.85
-89.47
-62.44
-35.2
-10.6
9.55
24.57
34.55
40.09
41.95
41.03
38.34
34.81
31.29
28.34
26.3
25.24
25.13
25.79
27.05
28.72
30.63
32.56
34.24
35.34
35.5
34.44
32.03
28.36
23.73
18.52
13.03
7.39
1.59
-4.43
-10.6
-16.77
-22.63
-27.83
-32.15
-35.61
-38.55
-41.56
-45.49
-51.02
-58.38
-67.02
-75.38
-81.21
-82.09
-76.26
-63.13
-43.62
-19.87
5.38
29.44
50.28
66.74
78.48
85.76
89.17
89.37
87.08
83.01
77.93
72.56
67.59
63.51
60.59
58.81
57.9
57.44
56.93
55.93
54.2
51.65
48.34
44.4
39.85
34.63
28.54
21.48
13.51
4.87
-4.0
-12.72
-20.99
-28.71
-35.89
-42.65
-49.2
-55.94
-63.45
-72.4
-83.22
-95.55
-107.97
-118.04
-122.92
-120.25
-109.09
-90.23
-65.97
-39.38
-13.37
9.89
29.17
43.94
54.19
60.15
62.3
61.45
58.65
55.1
51.81
49.41
48.1
47.66
47.72
47.97
48.32
48.86
49.72
50.83
51.86
52.18
51.12
48.17
43.3
36.88
29.57
22.01
14.55
7.24
-0.17
-7.98
-16.32
-25.08
-33.85
-42.13
-49.53
-55.96
-61.78
-67.68
-74.58
-83.26
-93.97
-106.09
-117.99
-127.17
-130.85
-126.82
-114.1
-93.45
-67.17
-38.45
-10.59
13.87
33.49
47.85
57.21
62.18
63.42
61.67
57.73
52.53
47.04
42.14
38.37
35.91
34.61
34.11
34.06
34.19
34.35
34.39
34.06
33.01
30.87
27.33
22.4
16.37
9.79
3.12
-3.34
-9.69
-16.29
-23.48
-31.39
-39.82
-48.23
-56.02
-62.75
-68.23
-72.71
-76.83
-81.5
-87.64
-95.72
-105.24
-114.54
-120.99
-121.77
-114.85
-99.72
-77.62
-51.07
-23.04
3.8
27.5
46.91
61.49
71.06
75.83
76.33
73.45
68.36
62.33
56.6
52.18
49.77
49.59
51.36
54.44
58.04
61.49
64.37
66.52
67.89
68.38
67.78
65.76
62.01
56.37
48.94
40.06
30.32
20.36
10.79
1.96
-6.08
-13.61
-21.16
-29.36
-38.83
-49.97
-62.68
-76.11
-88.47
-97.27
-99.94
-94.58
-80.75
-59.67
-33.97
-6.83
18.76
40.68
57.87
70.06
77.53
80.81
80.57
77.62
72.86
67.2
61.56
56.67
53.01
50.72
49.74
49.72
50.32
51.16
51.97
52.41
52.12
50.66
47.63
42.82
36.38
28.84
20.86
12.98
5.46
-1.86
-9.31
-17.2
-25.57
-34.12
-42.47
-50.15
-56.96
-63.02
-68.9
-75.47
-83.62
-93.84
-105.64
-117.34
-126.23
-129.3
-124.17
-110.0
-87.8
-60.12
-30.33
-1.7
23.23
43.02
57.13
65.83
69.77
69.93
67.43
63.44
59.12
55.35
52.66
51.14
50.49
50.23
49.96
49.48
48.92
48.5
48.33
48.22
47.58
45.68
41.93
36.19
28.92
20.89
12.95
5.52
-1.5
-8.67
-16.56
-25.47
-35.15
-44.91
-53.95
-61.68
-68.01
-73.33
-78.39
-84.11
-91.35
-100.6
-111.58
-123.03
-132.66
-137.59
-135.28
-124.36
-105.18
-79.79
-51.27
-22.83
2.97
24.56
41.3
53.13
60.34
63.34
62.74
59.36
54.23
48.5
43.27
39.43
37.51
37.57
39.36
42.23
45.42
48.22
50.11
50.88
50.59
49.45
47.63
45.13
41.76
37.24
31.4
24.33
16.45
8.36
0.63
-6.28
-12.23
-17.32
-21.88
-26.36
-31.45
-37.75
-45.75
-55.39
-65.74
-74.91
-80.36
-79.64
-71.11
-54.76
-32.16
-6.17
20.04
43.73
63.15
77.6
87.21
92.43
93.79
91.89
87.32
80.91
73.61
66.43
60.25
55.65
52.78
51.45
51.25
51.56
51.86
51.71
50.7
48.64
45.36
40.93
35.51
29.41
22.87
16.0
8.73
0.86
-7.68
-16.84
-26.26
-35.49
-44.08
-51.84
-58.83
-65.4
-72.12
-79.64
-88.57
-99.05
-110.4
-120.88
-127.88
-128.57
-120.95
-104.6
-81.0
-53.07
-24.22
2.55
25.26
42.99
55.68
63.69
67.55
68.06
66.12
62.76
58.97
55.5
52.77
50.86
49.6
48.78
48.27
48.05
48.18
48.63
49.19
49.38
48.57
46.16
41.84
35.68
28.15
19.84
11.3
2.79
-5.68
-14.29
-23.22
-32.5
-41.97
-51.25
-59.86
-67.39
-73.69
-78.92
-83.72
-89.0
-95.74
-104.56
-115.18
-126.2
-135.13
-139.05
-135.43
-123.12
-102.75
-76.65
-48.04
-20.11
4.72
25.12
40.65
51.44
57.81
60.22
59.33
56.06
51.6
47.08
43.47
41.35
40.9
41.88
43.93
46.54
49.26
51.73
53.68
55.01
55.61
55.38
54.12
51.58
47.54
41.9
34.78
26.58
17.9
9.35
1.5
-5.32
-10.94
-15.55
-19.65
-23.99
-29.48
-36.8
-46.08
-56.43
-66.0
-72.32
-72.98
-66.41
-52.44
-32.35
-8.47
16.39
39.71
59.6
74.98
85.53
91.46
93.32
91.88
87.96
82.39
76.02
69.63
63.88
59.21
55.8
53.55
52.17
51.35
50.76
50.1
49.0
47.13
44.15
39.9
34.49
28.21
21.46
14.55
7.54
0.28
-7.42
-15.69
-24.44
-33.39
-42.14
-50.36
-57.94
-64.96
-71.83
-79.16
-87.59
-97.49
-108.61
-119.77
-128.88
-133.28
-130.57
-119.43
-100.15
-74.7
-46.13
-17.72
7.92
29.14
45.3
56.47
63.11
65.86
65.57
63.24
59.99
56.84
54.52
53.33
53.18
53.65
54.33
54.92
55.28
55.44
55.44
55.16
54.28
52.33
48.92
43.9
37.47
30.08
22.23
14.26
6.23
-2.04
-10.77
-20.1
-29.89
-39.76
-49.23
-57.83
-65.33
-71.9
-78.07
-84.7
-92.7
-102.58
-114.14
-126.08
-136.11
-141.48
-139.79
-129.79
-111.91
-88.16
-61.53
-35.01
-10.98
9.29
25.43
37.54
45.93
50.82
52.47
51.33
48.18
44.05
40.09
37.26
36.19
36.91
39.04
41.86
44.62
46.76
47.98
48.21
47.56
46.09
43.76
40.42
35.86
30.01
22.94
14.99
6.66
-1.56
-9.22
-16.1
-22.16
-27.52
-32.48
-37.44
-42.96
-49.59
-57.57
-66.47
-74.93
-80.85
-81.84
-76.08
-62.93
-43.27
-19.29
6.2
30.49
51.57
68.35
80.55
88.43
92.41
92.97
90.63
86.04
80.05
73.6
67.63
62.82
59.48
57.42
56.21
55.32
54.32
52.98
51.18
48.86
45.9
42.19
37.57
31.99
25.49
18.2
10.29
1.96
-6.59
-15.18
-23.63
-31.78
-39.51
-46.81
-53.89
-61.19
-69.38
-79.11
-90.53
-102.91
-114.41
-122.37
-124.03
-117.45
-102.24
-79.8
-52.98
-25.07
0.9
22.88
39.95
52.09
59.78
63.69
64.52
62.98
59.83
55.89
51.94
48.59
46.22
44.91
44.53
44.85
45.67
46.76
47.86
48.64
48.59
47.26
44.33
39.76
33.87
27.09
19.91
12.57
5.1
-2.65
-10.87
-19.57
-28.56
-37.52
-46.04
-53.87
-61.0
-67.74
-74.68
-82.65
-92.29
-103.65
-115.75
-126.54
-133.3
-133.45
-125.46
-109.46
-87.22
-61.63
-35.8
-12.31
7.23
22.13
32.39
38.35
40.62
39.95
37.26
33.53
29.7
26.5
24.38
23.49
23.7
24.78
26.42
28.42
30.54
32.53
34.11
34.89
34.53
32.87
29.93
25.95
21.29
16.21
10.88
5.27
-0.68
-6.98
-13.51
-20.02
-26.22
-31.82
-36.74
-41.11
-45.35
-50.18
-56.31
-64.16
-73.38
-82.72
-90.01
-92.78
-88.95
-77.52
-59.03
-35.36
-9.34
16.18
38.89
57.47
71.48
81.15
86.94
89.28
88.63
85.55
80.94
75.91
71.64
69.01
68.23
68.93
70.3
71.63
72.36
72.31
71.52
70.01
67.76
64.62
60.44
55.06
48.4
40.45
31.32
21.28
10.74
0.25
-9.77
-19.05
-27.61
-35.75
-43.95
-52.83
-62.92
-74.4
-86.78
-98.76
-108.18
-112.63
-110.1
-99.62
-81.77
-58.42
-32.35
-6.39
17.0
36.24
50.58
60.01
65.02
66.35
64.88
61.48
57.02
52.31
48.1
44.96
43.2
42.76
43.25
44.16
45.0
45.42
45.28
44.42
42.66
39.75
35.57
30.15
23.8
16.97
10.0
3.01
-4.16
-11.78
-19.97
-28.62
-37.35
-45.69
-53.32
-60.22
-66.7
-73.42
-81.13
-90.47
-101.53
-113.5
-124.48
-131.81
-132.78
-125.51
-109.73
-86.93
-60.0
-32.29
-6.8
14.49
30.67
41.71
48.06
50.42
49.54
46.31
41.7
36.73
32.22
28.77
26.58
25.47
25.14
25.23
25.59
26.2
26.96
27.64
27.81
26.9
24.47
20.45
15.09
8.93
2.49
-3.89
-10.16
-16.5
-23.15
-30.21
-37.51
-44.65
-51.09
-56.35
-60.31
-63.24
-65.94
-69.5
-74.96
-82.85
-92.74
-103.15
-111.63
-115.46
-112.37
-101.3
-82.81
-58.9
-32.46
-6.44
16.81
35.91
50.34
60.28
66.13
68.35
67.48
64.2
59.43
54.31
50.01
47.5
47.25
49.08
52.37
56.22
59.85
62.79
64.88
66.2
66.85
66.84
65.96
63.93
60.42
55.3
48.65
40.82
32.36
23.84
15.75
8.26
1.27
-5.61
-12.93
-21.28
-31.09
-42.31
-54.23
-65.28
-73.23
-75.73
-71.07
-58.82
-40.07
-17.14
7.05
29.77
49.06
63.89
73.97
79.59
81.25
79.63
75.48
69.63
62.91
56.18
50.1
45.16
41.61
39.46
38.58
38.65
39.27
39.96
40.18
39.45
37.49
34.24
29.87
24.67
18.82
12.37
5.17
-2.83
-11.5
-20.52
-29.37
-37.59
-44.92
-51.42
-57.35
-63.29
-69.91
-77.9
-87.66
-98.92
-110.42
-119.95
-124.76
-122.38
-111.52
-92.6
-67.75
-40.16
-13.09
10.86
30.28
44.75
54.61
60.46
62.92
62.59
60.2
56.58
52.62
49.13
46.64
45.31
44.97
45.23
45.71
46.12
46.3
46.1
45.33
43.66
40.79
36.52
30.91
24.25
16.98
9.48
1.95
-5.69
-13.74
-22.43
-31.84
-41.72
-51.55
-60.77
-68.92
-75.91
-82.07
-88.16
-95.1
-103.6
-113.71
-124.43
-133.75
-139.0
-137.69
-128.27
-110.88
-87.24
-60.23
-32.92
-7.86
13.39
30.22
42.62
50.83
55.17
56.09
54.22
50.52
46.14
42.2
39.58
38.74
39.65
41.89
44.79
47.65
49.91
51.28
51.76
51.46
50.49
48.82
46.24
42.55
37.55
31.27
23.97
16.1
8.12
0.49
-6.42
-12.46
-17.66
-22.35
-27.14
-32.82
-40.02
-48.88
-58.7
-67.79
-73.84
-74.47
-68.05
-54.25
-34.23
-10.28
14.82
38.54
59.12
75.51
87.36
94.66
97.61
96.64
92.45
86.06
78.7
71.59
65.79
61.97
60.34
60.64
62.14
63.87
64.71
63.8
60.68
55.42
48.53
40.62
32.2
23.5
14.48
5.02
-4.89
-15.04
-25.08
-34.66
-43.51
-51.61
-59.08
-66.17
-73.32
-81.13
-90.2
-100.82
-112.47
-123.57
-131.65
-133.94
-128.35
-114.23
-92.73
-66.4
-38.5
-12.03
10.91
29.29
42.96
52.33
58.03
60.68
60.95
59.56
57.26
54.81
52.86
51.79
51.68
52.37
53.53
54.83
56.01
56.85
57.15
56.71
55.38
53.07
49.77
45.52
40.34
34.18
27.03
18.94
10.15
1.1
-7.71
-15.83
-22.99
-29.23
-34.85
-40.42
-46.68
-54.47
-64.47
-76.8
-90.54
-103.73
-113.48
-116.86
-111.8
-97.97
-76.87
-51.46
-25.1
-0.6
20.25
36.75
48.91
56.94
61.08
61.62
59.05
54.2
48.12
41.89
36.29
31.75
28.33
25.81
23.89
22.29
20.75
19.11
17.26
15.09
12.49
9.32
5.45
0.72
-4.97
-11.62
-19.1
-27.12
-35.31
-43.28
-50.71
-57.43
-63.4
-68.83
-74.1
-79.82
-86.6
-94.91
-104.69
-115.01
-124.07
-129.49
-128.96
-121.01
-105.47
-83.64
-57.9
-30.94
-5.23
17.49
36.2
50.47
60.21
65.56
66.9
64.97
60.9
56.07
51.89
49.38
48.96
50.36
52.86
55.65
58.13
60.14
61.79
63.26
64.45
64.94
64.06
61.22
56.17
49.07
40.56
31.46
22.49
14.07
6.25
-1.37
-9.37
-18.42
-29.1
-41.46
-54.86
-67.74
-77.78
-82.41
-79.59
-68.6
-50.36
-27.24
-2.33
21.4
41.85
57.93
69.5
76.82
80.24
80.08
76.79
71.07
63.98
56.75
50.53
46.1
43.62
42.69
42.46
42.09
40.99
38.99
36.36
33.51
30.69
27.76
24.3
19.64
13.28
5.09
-4.57
-14.97
-25.29
-34.76
-43.04
-50.12
-56.41
-62.61
-69.54
-78.0
-88.43
-100.59
-113.25
-124.28
-130.92
-130.65
-121.89
-104.68
-80.77
-53.06
-24.89
0.9
22.47
39.07
50.85
58.39
62.48
63.87
63.27
61.41
58.97
56.54
54.57
53.33
52.85
53.02
53.61
54.36
54.91
55.0
54.37
52.85
50.34
46.83
42.32
36.78
30.22
22.64
14.12
4.86
-4.88
-14.79
-24.56
-33.95
-42.77
-50.93
-58.49
-65.79
-73.49
-82.44
-93.32
-105.99
-119.12
-130.15
-135.93
-133.77
-122.44
-102.73
-77.22
-49.32
-22.34
1.31
20.44
34.74
44.45
49.98
51.82
50.61
47.19
42.57
37.87
33.99
31.46
30.35
30.31
30.8
31.25
31.27
30.71
29.62
28.14
26.36
24.26
21.69
18.35
13.95
8.29
1.41
-6.36
-14.47
-22.23
-29.07
-34.7
-39.24
-43.14
-47.09
-51.91
-58.25
-66.4
-75.91
-85.45
-92.9
-95.84
-92.2
-81.01
-62.76
-39.26
-13.11
12.96
36.75
56.79
72.33
83.16
89.42
91.49
90.12
86.35
81.43
76.58
72.78
70.55
69.83
70.11
70.63
70.74
70.03
68.53
66.44
63.98
61.14
57.63
52.94
46.6
38.43
28.6
17.69
6.54
-4.08
-13.69
-22.2
-29.97
-37.59
-45.75
-55.07
-65.9
-78.13
-90.89
-102.45
-110.48
-112.46
-106.54
-92.18
-70.57
-44.29
-16.65
9.31
31.44
48.72
61.04
68.89
72.88
73.71
72.15
69.07
65.31
61.61
58.42
55.9
53.98
52.49
51.39
50.65
50.28
50.23
50.22
49.82
