0
-34.73
-24.76
-14.24
-4.29
4.23
10.8
15.16
17.37
17.7
16.71
15.04
13.4
12.33
12.08
12.61
13.63
14.7
15.41
15.47
14.84
13.7
12.31
10.86
9.47
8.09
6.62
5.07
3.48
1.96
0.56
-0.74
-2.02
-3.38
-4.98
-6.97
-9.58
-12.98
-17.08
-21.43
-25.14
-27.1
-26.39
-22.63
-16.23
-8.16
0.3
8.03
14.29
18.72
21.31
22.19
21.64
20.07
17.98
15.94
14.49
13.96
14.41
15.58
17.05
18.32
19.03
19.05
18.41
17.29
15.91
14.37
12.7
10.86
8.82
6.55
4.12
1.6
-0.94
-3.5
-6.11
-8.93
-12.23
-16.36
-21.53
-27.63
-34.11
-39.93
-43.89
-44.99
-42.79
-37.48
-29.82
-20.83
-11.51
-2.66
5.16
11.56
16.3
19.23
20.39
19.98
18.44
16.37
14.49
13.42
13.58
14.96
17.16
19.56
21.56
22.76
23.04
22.39
20.83
18.44
15.4
12.04
8.84
6.17
4.16
2.6
1.14
-0.53
-2.46
-4.61
-6.86
-9.22
-11.81
-14.76
-18.06
-21.66
-25.55
-29.79
-34.46
-39.4
-44.03
-47.41
-48.48
-46.48
-41.25
-33.31
-23.64
-13.4
-3.63
4.92
11.77
16.7
19.68
20.84
20.51
19.2
17.59
16.34
15.95
16.62
18.21
20.36
22.62
24.61
26.12
27.0
27.18
26.56
25.14
22.98
20.32
17.47
14.71
12.21
10.0
7.99
5.99
3.86
1.47
-1.2
-4.04
-6.8
-9.22
-11.06
-12.32
-13.25
-14.35
-16.22
-19.33
-23.79
-29.22
-34.71
-39.03
-40.97
-39.7
-35.14
-27.85
-18.93
-9.58
-0.78
6.82
12.91
17.35
20.12
21.33
21.24
20.24
18.88
17.64
16.92
16.89
17.52
18.63
19.92
21.02
21.61
21.52
20.71
19.35
17.66
15.83
13.97
12.11
10.27
8.47
6.73
5.01
3.19
1.15
-1.17
-3.75
-6.44
-9.16
-11.9
-14.78
-18.02
-21.81
-26.34
-31.64
-37.51
-43.48
-48.7
-52.12
-52.71
-49.86
-43.6
-34.62
-24.11
-13.36
-3.49
4.75
11.0
15.19
17.45
18.08
17.5
16.23
14.84
13.86
13.67
14.42
16.02
18.14
20.33
22.18
23.38
23.84
23.61
22.84
21.65
20.14
18.38
16.45
14.44
12.4
10.32
8.17
5.91
3.64
1.5
-0.39
-1.97
-3.35
-4.79
-6.54
-8.84
-11.87
-15.75
-20.45
-25.72
-30.96
-35.25
-37.57
-37.08
-33.51
-27.19
-18.96
-9.94
-1.16
6.62
12.95
17.6
20.56
21.9
21.87
20.79
19.17
17.57
16.46
16.23
16.92
18.34
20.04
21.59
22.64
23.08
22.93
22.24
21.01
19.21
16.83
14.0
10.97
8.04
5.45
3.21
1.18
-0.92
-3.31
-6.04
-8.98
-11.85
-14.39
-16.44
-18.01
-19.34
-20.75
-22.68
-25.49
-29.33
-34.04
-39.05
-43.41
-46.02
-45.91
-42.55
-36.14
-27.53
-17.98
-8.74
-0.7
5.77
10.7
14.26
16.6
17.79
17.93
17.31
16.42
15.83
15.99
16.99
18.63
20.55
22.41
24.02
25.3
26.24
26.69
26.49
25.4
23.36
20.47
17.06
13.58
10.44
7.86
5.8
4.04
2.24
0.13
-2.47
-5.54
-8.96
-12.52
-16.01
-19.22
-21.98
-24.34
-26.53
-29.02
-32.31
-36.63
-41.69
-46.61
-50.11
-50.93
-48.29
-42.18
-33.33
-22.95
-12.31
-2.46
5.94
12.55
17.25
19.99
20.88
20.33
18.94
17.53
16.86
17.41
19.21
21.9
24.93
27.76
30.03
31.53
32.22
32.06
31.02
29.12
26.47
23.26
19.78
16.28
12.9
9.68
6.55
3.44
0.29
-2.9
-6.06
-9.12
-12.03
-14.81
-17.52
-20.28
-23.25
-26.64
-30.65
-35.35
-40.55
-45.67
-49.81
-51.93
-51.18
-47.17
-40.1
-30.73
-20.14
-9.46
0.39
8.72
15.14
19.44
21.6
21.83
20.55
18.41
16.17
14.48
13.79
14.14
15.29
16.79
18.25
19.4
20.12
20.4
20.26
19.79
19.14
18.52
18.06
17.74
17.28
16.32
14.56
12.03
9.05
6.09
3.5
1.27
-0.88
-3.33
-6.34
-9.98
-14.21
-18.97
-24.23
-29.78
-35.14
-39.51
-41.88
-41.42
-37.79
-31.29
-22.76
-13.33
-4.11
4.12
10.9
16.07
19.65
21.78
22.57
22.26
21.14
19.68
18.28
17.36
17.05
17.3
17.87
18.48
18.87
18.91
18.53
17.72
16.56
15.14
13.57
11.91
10.1
7.99
5.46
2.5
-0.68
-3.74
-6.4
-8.57
-10.41
-12.21
-14.27
-16.79
-19.94
-23.85
-28.66
-34.27
-40.26
-45.7
-49.4
-50.27
-47.71
-41.84
-33.46
-23.68
-13.62
-4.17
4.09
10.78
15.7
18.78
20.17
20.17
19.3
18.09
17.04
16.51
16.63
17.39
18.6
19.98
21.33
22.45
23.22
23.57
23.4
22.64
21.25
19.3
16.92
14.28
11.5
8.65
5.73
2.76
-0.19
-2.99
-5.5
-7.66
-9.51
-11.16
-12.73
-14.43
-16.46
-19.12
-22.62
-26.95
-31.71
-36.09
-39.02
-39.58
-37.26
-32.19
-25.07
-16.93
-8.76
-1.28
5.12
10.32
14.34
17.17
18.83
19.38
19.08
18.37
17.79
17.83
18.73
20.44
22.65
24.96
27.06
28.67
29.65
29.82
29.07
27.38
24.88
21.82
18.44
14.93
11.29
7.52
3.6
-0.33
-4.02
-7.27
-10.0
-12.32
-14.49
-16.79
-19.44
-22.58
-26.29
-30.59
-35.39
-40.45
-45.22
-48.9
-50.57
-49.48
-45.32
-38.42
-29.65
-20.17
-11.11
-3.2
3.24
8.19
11.75
14.02
15.03
14.94
14.07
12.99
12.28
12.41
13.5
15.43
17.8
20.22
22.39
24.11
25.33
26.03
26.19
25.79
24.82
23.26
21.14
18.56
15.67
12.72
9.89
7.29
4.83
2.37
-0.33
-3.39
-6.87
-10.8
-15.2
-20.01
-24.99
-29.59
-32.97
-34.26
-32.81
-28.53
-21.88
-13.76
-5.21
2.89
10.0
15.81
20.24
23.2
24.62
24.53
23.09
20.77
18.26
16.29
15.41
15.75
17.02
18.65
20.02
20.83
21.06
20.87
20.42
19.69
18.53
16.73
14.33
11.5
8.53
5.61
2.77
-0.09
-3.04
-6.03
-8.92
-11.54
-13.94
-16.34
-19.07
-22.46
-26.75
-31.92
-37.67
-43.45
-48.39
-51.5
-51.86
-48.94
-42.74
-33.9
-23.46
-12.6
-2.39
6.39
13.28
18.09
20.88
21.9
21.59
20.48
19.09
17.89
17.21
17.21
17.89
19.05
20.42
21.75
22.88
23.73
24.24
24.32
23.8
22.46
20.33
17.61
14.7
12.07
9.98
8.47
7.25
5.98
4.31
2.14
-0.49
-3.39
-6.4
-9.42
-12.47
-15.65
-19.11
-23.02
-27.52
-32.63
-38.2
-43.79
-48.67
-51.88
-52.49
-49.92
-44.2
-35.94
-26.23
-16.24
-6.9
1.22
7.84
12.87
16.24
18.02
18.46
18.07
17.52
17.43
18.1
19.5
21.23
22.85
24.06
24.78
25.09
25.04
24.62
23.77
22.43
20.66
18.64
16.58
14.65
12.91
11.27
9.58
7.67
5.38
2.66
-0.42
-3.65
-6.79
-9.69
-12.33
-14.84
-17.48
-20.46
-24.0
-28.18
-33.05
-38.47
-44.03
-48.97
-52.24
-52.84
-50.13
-44.12
-35.49
-25.41
-15.06
-5.44
2.88
9.59
14.55
17.69
19.01
18.7
17.24
15.37
13.86
13.34
14.04
15.79
18.12
20.48
22.42
23.75
24.48
24.77
24.71
24.34
23.6
22.45
20.84
18.84
16.54
14.02
11.34
8.55
5.79
3.21
0.98
-0.82
-2.27
-3.59
-5.13
-7.25
-10.28
-14.41
-19.57
-25.39
-31.14
-35.87
-38.58
-38.57
-35.6
-30.0
-22.51
-14.04
-5.46
2.5
9.27
14.47
17.87
19.47
19.52
18.48
16.92
15.37
14.23
13.65
13.69
14.27
15.32
16.72
18.34
19.97
21.32
22.09
22.06
21.12
19.3
16.77
13.75
10.5
7.29
4.36
1.88
-0.07
-1.58
-2.83
-4.09
-5.59
-7.48
-9.82
-12.6
-15.74
-19.17
-22.82
-26.75
-31.03
-35.71
-40.58
-45.08
-48.27
-49.15
-46.99
-41.71
-33.96
-24.85
-15.54
-6.85
0.8
7.31
12.61
16.56
18.91
19.65
19.02
17.63
16.22
15.41
15.57
16.69
18.53
20.67
22.7
24.29
25.28
25.66
25.58
25.17
24.48
23.44
21.87
19.68
17.02
14.22
11.69
9.75
8.32
7.05
5.45
3.11
-0.08
-3.84
-7.72
-11.26
-14.26
-16.87
-19.56
-22.84
-27.08
-32.3
-38.1
-43.73
-48.29
-50.89
-50.87
-47.89
-42.05
-33.82
-24.05
-13.79
-4.07
4.3
10.82
15.37
18.08
19.25
19.23
18.38
17.1
15.76
14.77
14.39
14.75
15.72
17.01
18.16
18.81
18.78
18.09
16.98
15.7
14.42
13.16
11.84
10.39
8.8
7.1
5.28
3.28
0.99
-1.63
-4.46
-7.24
-9.74
-11.94
-13.99
-16.23
-18.98
-22.41
-26.5
-30.98
-35.35
-38.96
-41.07
-41.0
-38.37
-33.22
-26.08
-17.77
-9.25
-1.27
5.65
11.23
15.36
18.03
19.33
19.53
18.97
18.15
17.52
17.44
18.06
19.33
20.97
22.68
24.18
25.34
26.21
26.95
27.65
28.31
28.72
28.55
27.48
25.34
22.14
18.07
13.46
8.61
3.82
-0.68
-4.82
-8.7
-12.56
-16.81
-21.76
-27.47
-33.63
-39.46
-43.99
-46.24
-45.55
-41.79
-35.35
-27.05
-17.84
-8.66
-0.17
7.1
12.84
16.8
18.93
19.39
18.65
17.35
16.15
15.5
15.5
15.92
16.44
16.8
16.91
16.86
16.72
16.51
16.12
15.41
14.33
12.93
11.43
9.99
8.74
7.6
6.38
4.83
2.79
0.24
-2.6
-5.44
-8.08
-10.52
-12.96
-15.77
-19.27
-23.65
-28.85
-34.6
-40.4
-45.54
-49.17
-50.43
-48.68
-43.72
-35.93
-26.21
-15.74
-5.66
3.16
10.24
15.4
18.69
20.33
20.72
20.36
19.78
19.41
19.46
19.95
20.76
21.73
22.72
23.65
24.43
25.0
25.29
25.24
24.81
23.97
22.74
21.18
19.39
17.49
15.56
13.58
11.44
9.12
6.6
3.99
1.36
-1.24
-3.88
-6.67
-9.69
-12.94
-16.35
-19.95
-23.87
-28.31
-33.45
-39.2
-45.12
-50.38
-54.01
-55.11
-53.17
-48.21
-40.76
-31.68
-21.92
-12.3
-3.39
4.48
11.03
16.05
19.36
21.0
21.21
20.56
19.73
19.27
19.51
20.43
21.84
23.43
24.95
26.24
27.11
27.42
26.94
25.56
23.26
20.18
16.59
12.87
9.35
6.25
3.63
1.44
-0.47
-2.23
-3.91
-5.54
-7.11
-8.64
-10.17
-11.72
-13.3
-14.98
-16.9
-19.28
-22.33
-26.09
-30.2
-33.91
-36.24
-36.32
-33.69
-28.42
-21.08
-12.48
-3.45
5.31
13.23
19.86
24.85
28.01
29.42
29.39
28.46
27.2
26.08
25.42
25.3
25.66
26.3
27.01
27.51
27.57
27.03
25.85
24.18
22.25
20.31
18.51
16.81
15.03
12.91
10.31
7.22
3.85
0.46
-2.69
-5.57
-8.22
-10.82
-13.55
-16.55
-19.95
-23.89
-28.51
-33.75
-39.2
-44.06
-47.2
-47.56
-44.49
-38.12
-29.28
-19.27
-9.43
-0.73
6.31
11.61
15.3
17.58
18.69
18.92
18.67
18.42
18.59
19.42
20.89
22.67
24.34
25.5
25.92
25.64
24.84
23.79
22.67
21.53
20.25
18.66
16.63
14.1
11.18
8.03
4.8
1.57
-1.63
-4.79
-7.9
-10.89
-13.7
-16.3
-18.75
-21.24
-23.99
-27.24
-31.15
-35.62
-40.26
-44.39
-47.13
-47.66
-45.45
-40.46
-33.15
-24.34
-14.97
-5.92
2.14
8.79
13.82
17.19
19.05
19.66
19.39
18.71
18.08
17.84
18.19
19.13
20.45
21.91
23.22
24.2
24.81
25.04
24.86
24.19
22.93
21.05
18.67
16.01
13.33
10.85
8.61
6.54
4.49
2.32
-0.03
-2.53
-5.1
-7.63
-10.08
-12.47
-14.97
-17.82
-21.28
-25.51
-30.45
-35.8
-40.99
-45.34
-48.14
-48.81
-47.05
-42.84
-36.55
-28.78
-20.31
-11.92
-4.25
2.23
7.26
10.72
12.69
13.39
13.17
12.46
11.67
11.14
11.05
11.49
12.5
14.03
15.92
17.88
19.54
20.51
20.54
19.64
18.05
16.12
14.1
12.11
10.17
8.29
6.52
4.93
3.52
2.18
0.73
-1.03
-3.17
-5.63
-8.38
-11.45
-14.93
-18.91
-23.22
-27.4
-30.72
-32.38
-31.75
-28.61
-23.23
-16.23
-8.43
-0.6
6.73
13.25
18.8
23.26
26.47
28.29
28.7
27.93
26.39
24.62
23.12
22.19
21.96
22.31
22.99
23.66
23.94
23.52
22.27
20.33
17.96
15.47
13.01
10.57
8.04
5.33
2.52
-0.21
-2.72
-5.02
-7.27
-9.73
-12.54
-15.78
-19.42
-23.46
-27.91
-32.75
-37.7
-42.22
-45.52
-46.73
-45.29
-41.06
-34.41
-26.07
-17.04
-8.23
-0.4
5.95
10.62
13.7
15.43
16.13
16.13
15.72
15.19
14.85
14.96
15.7
17.04
18.73
20.35
21.48
21.89
21.57
20.68
19.38
17.76
15.76
13.31
10.38
7.16
3.92
0.99
-1.44
-3.37
-4.98
-6.57
-8.41
-10.67
-13.43
-16.7
-20.56
-25.02
-29.97
-35.0
-39.39
-42.23
-42.75
-40.58
-35.94
-29.52
-22.12
-14.42
-6.9
0.21
6.65
12.11
16.26
18.88
19.97
19.81
18.84
17.56
16.4
15.69
15.66
16.41
17.88
19.89
22.09
24.1
25.56
26.22
25.94
24.77
22.81
20.25
17.33
14.32
11.4
8.66
6.07
3.46
0.61
-2.64
-6.34
-10.33
-14.36
-18.1
-21.34
-24.03
-26.41
-28.86
-31.78
-35.36
-39.34
-43.11
-45.81
-46.65
-45.14
-41.22
-35.28
-27.92
-19.85
-11.73
-4.16
2.38
7.49
10.93
12.65
12.84
11.87
10.28
8.7
7.69
7.66
8.71
10.57
12.77
14.77
16.23
17.06
17.41
17.47
17.38
17.14
16.68
15.93
14.89
13.55
11.98
10.21
8.32
6.41
4.54
2.71
0.75
-1.61
-4.67
-8.63
-13.47
-18.83
-24.04
-28.27
-30.62
-30.48
-27.66
-22.51
-15.77
-8.3
-0.82
6.22
12.59
18.11
22.52
25.51
26.88
26.69
25.34
23.39
21.46
19.97
19.16
19.03
19.38
19.87
20.15
19.94
19.15
17.9
16.4
14.85
13.24
11.42
9.21
6.51
3.44
0.16
-3.13
-6.34
-9.47
-12.54
-15.61
-18.69
-21.84
-25.21
-28.99
-33.33
-38.3
-43.66
-48.82
-52.9
-54.86
-53.82
-49.41
-41.91
-32.23
-21.59
-11.11
-1.61
6.53
13.09
17.94
20.92
22.01
21.52
20.06
18.42
17.28
17.02
17.61
18.83
20.36
21.91
23.27
24.2
24.53
24.1
22.95
21.28
19.36
17.43
15.62
13.97
12.4
10.84
9.22
7.43
5.4
3.02
0.21
-3.02
-6.61
-10.43
-14.35
-18.3
-22.33
-26.61
-31.26
-36.18
-40.93
-44.67
-46.37
-45.17
-40.76
-33.5
-24.4
-14.63
-5.23
3.2
10.46
16.49
21.2
24.41
25.98
25.96
24.8
23.25
22.2
22.35
23.93
26.63
29.69
32.28
33.79
34.04
33.3
31.95
30.31
28.42
26.15
23.35
20.08
16.62
13.37
10.61
8.31
6.2
3.88
1.07
-2.3
-6.11
-10.17
-14.33
-18.53
-22.77
-27.16
-31.8
-36.77
-42.01
-47.18
-51.67
-54.66
-55.32
-53.11
-47.99
-40.45
-31.38
-21.77
-12.49
-4.12
3.05
8.86
13.23
16.1
17.48
17.53
16.6
15.25
14.05
13.52
13.93
15.26
17.26
19.49
21.52
23.05
23.93
24.29
24.35
24.35
24.4
24.43
24.15
23.27
21.65
19.36
16.69
14.0
11.55
9.37
7.28
5.03
2.39
-0.81
-4.69
-9.29
-14.58
-20.29
-25.87
-30.44
-33.06
-32.95
-29.82
-23.98
-16.27
-7.76
0.54
7.9
13.9
18.39
21.38
22.94
23.22
22.54
21.36
20.2
19.5
19.53
20.32
21.7
23.42
25.21
26.86
28.15
28.86
28.75
27.62
25.44
22.42
18.93
15.4
12.15
9.24
6.48
3.61
0.47
-2.98
-6.63
-10.36
-14.15
-18.04
-22.07
-26.24
-30.56
-35.04
-39.77
-44.78
-49.75
-53.95
-56.35
-55.92
-52.13
-45.19
-35.99
-25.75
-15.62
-6.34
1.68
8.27
13.25
16.52
18.07
18.17
17.36
16.34
15.77
16.04
17.23
19.09
21.27
23.38
25.19
26.56
27.47
27.96
28.0
27.52
26.47
24.86
22.82
20.58
18.37
16.3
14.37
12.44
10.34
7.96
5.27
2.29
-0.92
-4.29
-7.79
-11.4
-15.2
-19.36
-24.06
-29.39
-35.12
-40.61
-44.93
-47.14
-46.57
-43.12
-37.16
-29.44
-20.81
-12.03
-3.73
3.59
9.54
13.83
16.34
17.21
16.81
15.71
14.56
13.94
14.17
15.24
16.84
18.44
19.58
20.06
19.99
19.67
19.32
18.94
18.31
17.13
15.26
12.78
9.98
7.1
4.28
1.51
-1.32
-4.25
-7.29
-10.34
-13.33
-16.24
-19.07
-21.88
-24.73
-27.7
-30.9
-34.4
-38.25
-42.27
-46.04
-48.93
-50.15
-49.05
-45.3
-39.04
-30.84
-21.55
-12.08
-3.24
4.42
10.52
14.91
17.58
18.68
18.57
17.77
16.87
16.36
16.57
17.58
19.29
21.41
23.56
25.37
26.5
26.77
26.18
24.88
23.09
21.0
18.76
16.44
14.1
11.83
9.75
7.96
6.5
5.29
4.2
3.05
1.72
0.1
-1.9
-4.45
-7.73
-11.8
-16.43
-21.06
-24.78
-26.68
-26.13
-23.0
-17.67
-10.96
-3.76
3.2
9.42
14.62
18.6
21.23
22.43
22.21
20.77
18.5
15.89
13.49
11.71
10.76
10.55
10.77
11.01
10.98
10.53
9.73
8.72
7.56
6.22
4.64
2.76
0.64
-1.58
-3.71
-5.63
-7.34
-8.88
-10.43
-12.12
-14.13
-16.52
-19.29
-22.42
-25.95
-30.0
-34.68
-39.9
-45.12
-49.38
-51.52
-50.59
-46.25
-38.89
-29.51
-19.24
-9.03
0.47
8.87
15.84
21.08
24.33
25.62
25.24
23.79
21.93
20.24
19.09
18.66
18.94
19.77
20.87
21.94
22.75
23.21
23.32
23.1
22.53
21.45
19.78
17.59
15.11
12.66
10.41
8.3
6.03
3.31
0.07
-3.48
-6.96
-10.06
-12.71
-15.17
-17.84
-21.06
-24.99
-29.66
-34.93
-40.57
-46.22
-51.22
-54.68
-55.64
-53.42
-47.88
-39.56
-29.46
-18.81
-8.64
0.34
7.81
13.68
17.94
20.63
21.85
21.8
20.87
19.52
18.25
17.42
17.26
17.77
18.83
20.22
21.65
22.88
23.68
23.92
23.49
22.39
20.69
18.49
15.98
13.34
10.79
8.49
6.5
4.73
2.95
0.87
-1.72
-4.88
-8.46
-12.21
-15.96
-19.69
-23.62
-28.06
-33.24
-39.07
-45.1
-50.49
-54.33
-55.83
-54.52
-50.35
-43.71
-35.24
-25.73
-15.91
-6.46
2.09
9.27
14.71
18.14
19.58
19.38
18.22
16.95
16.31
16.73
18.23
20.51
23.07
25.46
27.32
28.41
28.55
27.72
26.04
23.79
21.41
19.28
17.54
16.07
14.63
12.93
10.87
8.44
5.72
2.82
-0.17
-3.15
-6.01
-8.77
-11.59
-14.77
-18.53
-22.88
-27.47
-31.53
-34.17
-34.6
-32.36
-27.46
-20.33
-11.72
-2.55
6.31
14.1
20.34
24.84
27.57
28.64
28.3
26.93
25.05
23.26
22.07
21.71
22.1
22.96
23.99
24.94
25.66
25.96
25.6
24.37
22.17
19.2
15.88
12.7
10.07
8.12
6.69
5.47
4.05
2.15
-0.37
-3.42
-6.79
-10.19
-13.46
-16.65
-20.02
-23.94
-28.74
-34.57
-41.31
-48.45
-55.13
-60.18
-62.41
-60.89
-55.34
-46.24
-34.74
-22.29
-10.22
0.52
9.31
15.91
20.23
22.37
22.67
21.78
20.48
19.55
19.44
20.26
21.75
23.55
25.3
26.8
27.99
28.91
29.59
29.99
29.99
29.37
27.99
25.77
22.85
19.53
16.12
12.79
9.59
6.43
3.23
0.02
-3.03
-5.75
-8.11
-10.26
-12.49
-15.07
-18.25
-22.19
-27.01
-32.81
-39.49
-46.56
-53.14
-57.99
-59.94
-58.24
-52.86
-44.42
-34.04
-22.93
-12.17
-2.49
5.66
12.08
16.7
19.62
21.08
21.51
21.44
21.42
21.84
22.86
24.38
26.13
27.82
29.26
30.43
31.4
32.23
32.84
32.99
32.39
30.86
28.43
25.42
22.26
19.29
16.64
14.18
11.59
8.55
4.88
0.57
-4.21
-9.24
-14.29
-19.19
-23.91
-28.53
-33.27
-38.38
-43.96
-49.76
-55.16
-59.2
-60.91
-59.57
-54.98
-47.49
-37.83
-26.98
-15.89
-5.4
3.83
11.34
16.84
20.22
21.59
21.3
19.91
18.1
16.59
15.91
16.3
17.65
19.61
21.71
23.55
24.82
25.45
25.45
24.95
24.15
23.16
22.04
20.69
18.96
16.72
13.97
10.85
7.59
4.38
1.21
-2.02
-5.52
-9.44
-13.88
-18.77
-23.99
-29.23
-33.97
-37.48
-38.9
-37.51
-33.04
-25.79
-16.54
-6.33
3.83
13.15
21.04
27.07
30.99
32.72
32.51
30.86
28.47
26.01
23.99
22.64
22.01
22.0
22.42
23.03
23.56
23.76
23.45
22.57
21.12
19.08
16.44
13.19
9.39
5.31
1.26
-2.44
-5.62
-8.3
-10.67
-12.94
-15.36
-18.13
-21.4
-25.33
-29.99
-35.31
-40.87
-45.96
-49.59
-50.81
-48.93
-43.87
-36.21
-27.06
-17.61
-8.83
-1.19
5.32
10.83
15.39
18.88
21.09
22.0
21.95
21.53
21.39
21.98
23.39
25.35
27.42
29.17
30.33
30.72
30.33
29.15
27.24
24.62
21.34
17.55
13.49
9.46
5.8
2.71
0.18
-2.05
-4.32
-6.91
-9.88
-13.17
-16.64
-20.21
-24.0
-28.24
-33.11
-38.6
-44.33
-49.53
-53.17
-54.24
-52.04
-46.5
-38.21
-28.24
-17.89
-8.21
0.18
7.07
12.5
16.55
19.18
20.42
20.42
19.54
18.3
17.28
16.89
17.35
18.62
20.5
22.68
24.76
26.39
27.3
27.37
26.57
24.99
22.79
20.11
17.15
14.14
11.27
8.68
6.34
4.08
1.71
-0.99
-4.1
-7.58
-11.36
-15.37
-19.68
-24.44
-29.76
-35.62
-41.69
-47.3
-51.49
-53.31
-52.08
-47.73
-40.77
-32.09
-22.74
-13.52
-4.95
2.71
9.27
14.48
18.07
19.93
20.15
19.25
17.92
16.93
16.82
17.76
19.56
21.72
23.69
25.0
25.41
24.92
23.68
21.87
19.68
17.2
14.52
11.74
8.96
6.34
3.97
1.9
0.03
-1.83
-3.95
-6.58
-9.92
-14.04
-18.88
-24.2
-29.58
-34.36
-37.73
-38.86
-37.13
-32.43
-25.12
-16.07
-6.32
3.16
11.71
18.97
24.82
29.2
32.09
33.51
33.55
32.52
30.8
28.87
27.15
25.96
25.42
25.48
25.87
26.25
26.31
25.89
24.97
23.61
21.83
19.55
16.63
12.98
8.72
4.19
-0.17
-4.0
-7.16
-9.81
-12.33
-15.13
-18.61
-22.99
-28.25
-34.14
-40.11
-45.4
-49.11
-50.37
-48.54
-43.43
-35.38
-25.21
-14.13
-3.3
6.3
14.16
20.12
24.27
26.77
27.82
27.6
26.5
25.02
23.72
23.02
22.99
23.4
23.87
24.08
23.87
23.25
22.3
21.08
19.57
17.69
15.36
12.55
9.28
5.72
2.1
-1.24
-4.03
-6.17
-7.79
-9.28
-11.09
-13.61
-17.04
-21.48
-26.95
-33.31
-40.12
-46.63
-51.72
-54.3
-53.6
-49.53
-42.62
-33.86
-24.32
-14.88
-6.14
1.56
8.02
13.13
16.9
19.46
21.04
22.0
22.73
23.62
24.93
26.73
28.88
31.03
32.84
34.05
34.53
34.31
33.46
32.05
30.13
27.82
25.24
22.49
19.65
16.75
13.78
10.8
7.84
4.96
2.14
-0.73
-3.76
-7.01
-10.43
-14.0
-17.77
-21.99
-27.04
-33.2
-40.39
-48.0
-54.98
-60.1
-62.26
-60.91
-56.12
-48.51
-39.1
-28.93
-18.89
-9.56
-1.3
5.68
11.21
15.18
17.59
18.64
18.76
18.49
18.32
18.57
19.31
20.47
21.89
23.4
24.85
25.97
26.52
26.31
25.29
23.64
21.64
19.52
17.37
15.12
12.64
9.94
7.14
4.45
2.01
-0.2
-2.32
-4.52
-6.92
-9.51
-12.34
-15.56
-19.37
-23.96
-29.27
-34.81
-39.77
-43.12
-44.01
-41.95
-36.99
-29.67
-20.81
-11.32
-1.98
6.66
14.25
20.58
25.52
28.93
30.82
31.34
30.89
30.08
29.48
29.5
30.26
31.55
33.03
34.32
35.12
35.2
34.43
32.71
30.09
26.79
23.14
19.5
16.12
13.1
10.28
7.5
4.61
1.62
-1.36
-4.18
-6.75
-9.09
-11.39
-13.91
-16.94
-20.73
-25.39
-30.84
-36.74
-42.44
-47.06
-49.66
-49.44
-45.98
-39.43
-30.5
-20.3
-9.99
-0.55
7.41
13.64
18.11
20.93
22.27
22.38
21.72
20.85
20.37
20.68
21.84
23.58
25.43
26.94
27.85
28.11
27.84
27.19
26.31
25.31
24.24
23.1
21.86
20.44
18.77
16.84
14.66
12.31
9.85
7.27
4.45
1.29
-2.26
-6.09
-10.02
-13.82
-17.29
-20.38
-23.15
-25.8
-28.66
-32.17
-36.67
-42.33
-48.86
-55.52
-61.15
-64.48
-64.52
-60.86
-53.79
-44.27
-33.51
-22.74
-12.84
-4.3
2.78
8.44
12.77
15.82
17.71
18.7
19.2
19.71
20.59
22.0
23.79
25.66
27.28
28.52
29.42
30.1
30.64
30.96
30.81
29.92
28.13
25.5
22.29
18.83
15.41
12.17
9.11
6.19
3.34
0.51
-2.4
-5.63
-9.42
-13.96
-19.19
-24.7
-29.95
-34.46
-38.13
-41.23
-44.35
-48.12
-52.93
-58.91
-65.88
-73.45
-81.05
-87.87
-92.94
-95.36
-94.5
-90.41
-83.78
-75.83
-67.87
-60.96
-55.72
-52.31
-50.59
-50.28
-50.86
-51.64
-51.73
-50.25
-46.43
-39.85
-30.46
-18.57
-4.63
10.82
27.18
43.79
59.87
74.56
87.05
96.69
103.19
106.59
107.21
105.56
102.17
97.47
91.78
85.37
78.52
71.53
64.68
58.18
52.04
46.17
40.39
34.61
28.79
22.9
16.86
10.44
3.42
-4.16
-11.85
-18.74
-23.76
-26.01
-25.11
-21.29
-15.25
-7.91
-0.11
7.48
14.36
20.18
24.66
27.62
29.02
28.98
27.83
26.0
23.93
22.05
20.65
19.9
19.78
20.15
20.84
21.67
22.45
22.97
23.07
22.56
21.34
19.43
16.99
14.25
11.46
8.8
6.32
3.96
1.56
-1.1
-4.17
-7.63
-11.32
-14.91
-18.06
-20.62
-22.66
-24.52
-26.64
-29.42
-33.09
-37.64
-42.81
-48.1
-52.74
-55.83
-56.44
-53.96
-48.29
-39.94
-29.96
-19.55
-9.75
-1.25
5.67
11.01
14.83
17.21
18.29
18.28
17.54
16.58
15.94
16.04
17.08
19.01
21.54
24.28
26.86
29.01
30.64
31.68
32.11
31.88
30.91
29.16
26.72
23.74
20.45
17.04
13.61
10.11
6.45
2.52
-1.72
-6.18
-10.68
-15.0
-18.89
-22.22
-24.98
-27.35
-29.62
-32.19
-35.4
-39.45
-44.28
-49.51
-54.42
-58.1
-59.6
-58.24
-53.82
-46.65
-37.53
-27.44
-17.34
-7.9
0.4
7.23
12.39
15.72
17.28
17.35
16.45
15.18
14.08
13.48
13.52
14.19
15.39
17.01
18.86
20.71
22.25
23.21
23.37
22.62
21.03
18.76
16.05
13.21
10.48
8.04
5.93
4.04
2.23
0.25
-2.07
-4.85
-8.08
-11.59
-15.15
-18.42
-21.22
-23.57
-25.77
-28.28
-31.52
-35.6
-40.15
-44.36
-47.22
-47.79
-45.51
-40.32
-32.62
-23.22
-13.05
-3.08
5.87
13.24
18.71
22.27
24.06
24.44
23.8
22.6
21.3
20.33
20.01
20.47
21.67
23.39
25.3
27.09
28.45
29.21
29.28
28.69
27.54
25.94
23.97
21.66
19.02
16.09
12.97
9.77
6.58
3.37
0.07
-3.4
-7.03
-10.77
-14.6
-18.61
-23.02
-28.02
-33.5
-38.95
-43.5
-46.1
-45.92
-42.59
-36.35
-27.91
-18.28
-8.51
0.55
8.28
14.37
18.7
21.29
22.25
21.83
20.45
18.76
17.45
17.04
17.68
19.11
20.85
22.43
23.59
24.28
24.48
24.14
23.13
21.37
18.94
16.13
13.32
10.78
8.56
6.5
4.35
1.88
-0.98
-4.16
-7.5
-10.83
-13.93
-16.71
-19.18
-21.5
-23.96
-26.92
-30.66
-35.29
-40.57
-45.89
-50.29
-52.61
-51.83
-47.4
-39.52
-29.11
-17.61
-6.49
3.09
10.56
15.82
19.09
20.65
20.77
19.82
18.3
16.87
16.13
16.42
17.71
19.64
21.75
23.71
25.37
26.75
27.87
28.68
29.05
28.82
27.92
26.32
24.07
21.3
18.06
14.46
10.5
6.15
1.4
-3.6
-8.57
-13.1
-16.88
-19.85
-22.32
-24.8
-27.8
-31.64
-36.26
-41.29
-46.07
-49.74
-51.39
-50.21
-45.79
-38.31
-28.55
-17.7
-7.01
2.57
10.54
16.73
21.1
23.69
24.58
24.03
22.57
20.87
19.61
19.18
19.69
20.89
22.34
23.58
24.23
24.06
23.08
21.44
19.39
17.17
14.89
12.54
10.02
7.29
4.37
1.41
-1.48
-4.19
-6.69
-8.94
-10.95
-12.72
-14.33
-15.99
-18.08
-20.98
-24.96
-30.01
-35.67
-41.1
-45.3
-47.25
-46.24
-42.11
-35.23
-26.46
-16.87
-7.42
1.15
8.43
14.18
18.31
20.8
21.73
21.38
20.3
19.14
18.54
18.89
20.2
22.14
24.23
25.97
27.06
27.42
27.13
26.35
25.17
23.6
21.56
18.95
15.8
12.25
8.6
5.13
2.03
-0.69
-3.13
-5.52
-8.1
-11.09
-14.69
-19.08
-24.28
-30.04
-35.78
-40.65
-43.68
-44.08
-41.44
-35.9
-28.02
-18.7
-8.93
0.38
8.49
14.95
19.58
22.42
23.7
23.8
23.13
22.15
21.27
20.82
21.0
21.76
22.86
23.92
24.55
24.48
23.65
22.16
20.23
18.08
15.86
13.58
11.22
8.73
6.1
3.32
0.43
-2.59
-5.76
-9.05
-12.37
-15.57
-18.52
-21.27
-24.07
-27.33
-31.46
-36.57
-42.31
-47.82
-51.94
-53.59
-52.08
-47.29
-39.69
-30.08
-19.46
-8.8
1.06
9.44
15.93
20.38
22.9
23.8
23.5
22.52
21.41
20.66
20.66
21.55
23.17
25.15
27.12
28.78
30.04
30.93
31.46
31.5
30.81
29.17
26.54
23.11
19.23
15.35
11.78
8.69
6.08
3.78
1.55
-0.86
-3.6
-6.75
-10.16
-13.67
-17.14
-20.51
-23.92
-27.64
-31.99
-37.2
-43.18
-49.43
-55.05
-58.88
-59.85
-57.31
-51.31
-42.52
-32.06
-21.07
-10.46
-0.8
7.54
14.28
19.16
22.01
22.95
22.45
21.23
20.02
19.39
19.56
20.48
21.93
23.63
25.34
26.81
27.86
28.31
28.11
27.26
25.81
23.87
21.55
18.98
16.32
13.66
11.08
8.52
5.88
3.07
0.07
-2.97
-5.84
-8.37
-10.5
-12.34
-14.17
-16.38
-19.37
-23.48
-28.77
-34.9
-41.11
-46.3
-49.36
-49.44
-46.2
-39.85
-31.08
-20.81
-10.06
0.23
9.31
16.65
21.99
25.33
26.91
27.19
26.71
26.13
25.95
26.48
27.73
29.45
31.23
32.75
33.84
34.46
34.63
34.29
33.33
31.64
29.23
26.32
23.15
19.97
16.91
13.97
11.09
8.19
5.21
2.1
-1.12
-4.43
-7.75
-10.98
-14.05
-17.02
-20.06
-23.42
-27.32
-31.78
-36.56
-41.07
-44.52
-46.05
-45.03
-41.23
-35.0
-27.05
-18.32
-9.67
-1.67
5.37
11.27
15.88
19.0
20.49
20.44
19.22
17.49
16.01
15.41
16.02
17.78
20.35
23.23
25.92
28.05
29.41
29.93
29.67
28.79
27.38
25.52
23.29
20.82
18.31
15.99
14.04
12.53
11.38
10.39
9.42
8.32
7.01
5.39
3.33
0.72
-2.51
-6.3
-10.48
-14.82
-19.11
-23.22
-27.1
-30.81
-34.5
-38.47
-43.06
-48.45
-54.52
-60.62
-65.73
-68.61
-68.28
-64.31
-57.01
-47.27
-36.25
-25.09
-14.67
-5.49
2.23
8.42
13.12
16.44
18.61
19.94
20.79
21.54
22.46
23.71
25.31
27.16
29.13
31.06
32.79
34.18
35.1
35.45
35.21
34.41
33.1
31.29
29.01
26.31
23.32
20.31
17.58
15.37
13.73
12.49
11.22
9.52
7.08
3.88
0.15
-3.77
-7.54
-10.96
-14.03
-16.86
-19.7
-22.81
-26.44
-30.82
-36.1
-42.32
-49.25
-56.3
-62.5
-66.71
-67.87
-65.33
-59.15
-50.02
-39.12
-27.64
-16.64
-6.81
1.53
8.25
13.3
16.73
18.69
19.53
19.74
19.9
20.48
21.7
23.52
25.63
27.63
29.13
29.88
29.87
29.21
28.1
26.76
25.27
23.62
21.72
19.55
17.2
14.91
12.98
11.59
10.69
9.97
9.03
7.53
5.38
2.72
-0.17
-3.01
-5.67
-8.22
-10.84
-13.79
-17.33
-21.66
-26.88
-32.89
-39.35
-45.68
-51.08
-54.69
-55.78
-53.88
-48.9
-41.22
-31.56
-20.94
-10.43
-0.99
6.82
12.78
17.02
19.84
21.56
22.51
22.98
23.27
23.69
24.46
25.68
27.3
29.18
31.12
32.9
34.3
35.13
35.21
34.48
32.97
30.77
28.03
24.87
21.43
17.89
