0
21.65
33.16
42.22
48.85
53.21
55.57
56.22
55.53
53.9
51.68
49.18
46.66
44.29
42.15
40.28
38.68
37.32
36.14
35.07
34.02
32.84
31.45
29.78
27.75
25.3
22.28
18.57
14.06
8.82
3.03
-3.06
-9.24
-15.36
-21.37
-27.3
-33.24
-39.37
-45.98
-53.4
-61.75
-70.69
-79.25
-85.84
-88.74
-86.55
-78.74
-65.91
-49.6
-31.88
-14.71
0.4
12.71
22.07
28.77
33.23
35.95
37.43
38.19
38.68
39.21
39.86
40.48
40.82
40.7
40.12
39.27
38.44
37.89
37.76
38.06
38.65
39.27
39.54
39.04
37.45
34.7
30.95
26.56
21.91
17.25
12.64
8.01
3.19
-1.93
-7.38
-13.16
-19.19
-25.33
-31.46
-37.43
-43.24
-49.0
-55.04
-61.78
-69.58
-78.45
-87.87
-96.63
-103.05
-105.36
-102.31
-93.58
-79.97
-63.14
-45.09
-27.64
-12.06
1.01
11.42
19.3
24.88
28.51
30.58
31.52
31.77
31.72
31.64
31.66
31.8
31.95
32.0
31.85
31.52
31.1
30.79
30.7
30.83
31.01
30.92
30.21
28.58
25.98
22.56
18.73
14.93
11.51
8.55
5.83
2.95
-0.49
-4.65
-9.4
-14.4
-19.21
-23.57
-27.42
-30.98
-34.59
-38.76
-43.95
-50.54
-58.49
-67.19
-75.32
-81.11
-82.7
-78.81
-69.25
-54.98
-37.88
-20.18
-3.87
9.72
20.1
27.39
32.17
35.13
36.93
38.04
38.75
39.2
39.4
39.35
39.01
38.36
37.43
36.37
35.42
34.82
34.81
35.43
36.54
37.77
38.67
38.86
38.14
36.57
34.39
31.84
29.12
26.18
22.85
18.91
14.26
8.96
3.27
-2.51
-8.12
-13.5
-18.76
-24.28
-30.48
-37.71
-45.98
-54.68
-62.61
-68.1
-69.49
-65.71
-56.64
-43.26
-27.26
-10.58
5.19
19.01
30.38
39.22
45.64
49.87
52.26
53.3
53.56
53.58
53.63
53.74
53.75
53.44
52.76
51.85
50.98
50.39
50.18
50.17
50.06
49.52
48.37
46.61
44.4
41.91
39.18
36.11
32.57
28.51
24.03
19.38
14.86
10.62
6.6
2.58
-1.73
-6.46
-11.55
-16.75
-21.75
-26.39
-30.66
-34.77
-38.99
-43.65
-49.03
-55.38
-62.88
-71.35
-80.09
-87.77
-92.61
-92.89
-87.54
-76.59
-61.24
-43.43
-25.26
-8.47
5.82
17.15
25.49
31.13
34.51
36.2
36.77
36.71
36.4
36.02
35.67
35.36
35.05
34.7
34.25
33.65
32.94
32.25
31.69
31.32
30.98
30.42
29.32
27.52
25.02
21.97
18.56
14.91
11.09
7.13
3.07
-0.96
-4.87
-8.6
-12.31
-16.18
-20.4
-25.0
-29.78
-34.45
-38.75
-42.53
-45.89
-49.08
-52.39
-56.18
-60.75
-66.35
-73.01
-80.24
-87.02
-91.79
-92.9
-89.13
-80.22
-66.98
-51.03
-34.27
-18.35
-4.34
7.27
16.31
22.87
27.09
29.31
30.05
29.91
29.44
28.96
28.58
28.2
27.73
27.16
26.58
26.18
26.08
26.35
26.93
27.64
28.19
28.27
27.61
26.09
23.83
21.07
18.17
15.39
12.84
10.43
7.94
5.16
1.97
-1.57
-5.28
-8.88
-12.17
-15.12
-17.94
-21.13
-25.25
-30.65
-37.21
-44.19
-50.3
-53.96
-53.81
-49.11
-39.97
-27.35
-12.74
2.2
16.1
28.03
37.58
44.77
49.79
53.0
54.72
55.36
55.28
54.76
54.03
53.13
52.05
50.7
49.06
47.16
45.21
43.43
42.07
41.26
40.92
40.74
40.25
38.98
36.6
33.12
28.78
24.08
19.51
15.35
11.68
8.3
4.91
1.18
-3.1
-7.92
-13.13
-18.45
-23.62
-28.47
-33.02
-37.47
-42.21
-47.75
-54.55
-62.68
-71.56
-79.89
-85.8
-87.48
-83.73
-74.5
-60.89
-44.75
-28.12
-12.63
0.68
11.43
19.65
25.63
29.75
32.5
34.32
35.6
36.58
37.36
37.94
38.27
38.29
37.95
37.28
36.34
35.28
34.33
33.7
33.5
33.64
33.88
33.91
33.46
32.37
30.64
28.38
25.72
22.75
19.52
16.03
12.31
8.34
4.12
-0.39
-5.24
-10.52
-16.17
-22.03
-27.83
-33.33
-38.39
-43.05
-47.46
-51.86
-56.52
-61.75
-67.89
-75.16
-83.34
-91.6
-98.43
-101.98
-100.69
-93.84
-81.9
-66.31
-49.03
-31.89
-16.25
-2.88
7.86
15.88
21.28
24.33
25.48
25.35
24.6
23.8
23.25
23.06
23.12
23.21
23.15
22.9
22.53
22.2
22.06
22.14
22.36
22.46
22.17
21.26
19.59
17.24
14.43
11.48
8.69
6.16
3.72
0.98
-2.43
-6.68
-11.54
-16.55
-21.15
-25.01
-28.14
-30.87
-33.65
-36.99
-41.27
-46.71
-53.21
-60.16
-66.45
-70.57
-70.99
-66.62
-57.31
-43.91
-28.05
-11.64
3.63
16.65
26.96
34.57
39.84
43.16
44.9
45.44
45.09
44.23
43.24
42.44
41.97
41.86
42.0
42.31
42.71
43.16
43.61
43.95
44.0
43.52
42.37
40.5
37.98
34.96
31.56
27.83
23.71
19.08
13.88
8.19
2.19
-3.81
-9.47
-14.63
-19.32
-23.87
-28.8
-34.69
-41.83
-49.93
-58.03
-64.56
-67.78
-66.33
-59.75
-48.6
-34.33
-18.75
-3.54
10.04
21.34
30.07
36.23
40.01
41.8
42.13
41.63
40.79
39.9
38.99
37.96
36.71
35.2
33.52
31.83
30.32
29.16
28.44
28.11
28.0
27.75
26.94
25.25
22.59
19.12
15.25
11.36
7.7
4.29
0.87
-2.87
-7.21
-12.15
-17.48
-22.81
-27.7
-31.94
-35.63
-39.21
-43.38
-48.78
-55.8
-64.2
-73.09
-80.93
-85.88
-86.36
-81.51
-71.52
-57.55
-41.37
-24.88
-9.53
3.75
14.57
22.88
28.77
32.43
34.21
34.58
34.2
33.62
33.25
33.2
33.33
33.37
33.06
32.29
31.13
29.82
28.68
27.9
27.52
27.35
27.01
26.16
24.56
22.15
19.05
15.42
11.52
7.59
3.84
0.37
-2.86
-6.05
-9.51
-13.48
-18.03
-22.93
-27.79
-32.28
-36.29
-39.99
-43.78
-48.14
-53.48
-60.04
-67.75
-76.13
-84.11
-90.17
-92.58
-89.95
-81.73
-68.54
-51.98
-34.14
-17.0
-1.97
10.3
19.65
26.28
30.44
32.47
32.79
31.97
30.58
29.08
27.75
26.62
25.61
24.66
23.8
23.15
22.89
23.18
24.09
25.48
27.01
28.22
28.58
27.75
25.68
22.66
19.17
15.72
12.58
9.72
6.87
3.61
-0.36
-5.12
-10.49
-16.12
-21.62
-26.67
-31.13
-35.12
-38.98
-43.26
-48.49
-54.9
-62.1
-68.95
-73.68
-74.51
-70.16
-60.46
-46.38
-29.75
-12.6
3.35
17.02
27.94
36.13
41.78
45.24
46.96
47.42
47.16
46.6
46.03
45.58
45.22
44.87
44.43
43.88
43.25
42.68
42.3
42.24
42.47
42.83
43.03
42.73
41.66
39.64
36.7
33.03
28.92
24.73
20.78
17.24
14.16
11.4
8.69
5.72
2.26
-1.79
-6.34
-11.18
-16.03
-20.66
-24.91
-28.81
-32.56
-36.59
-41.41
-47.41
-54.64
-62.48
-69.73
-74.76
-76.01
-72.46
-63.93
-51.17
-35.54
-18.72
-2.3
12.46
24.8
34.39
41.3
45.88
48.58
49.87
50.2
49.94
49.44
48.95
48.6
48.38
48.18
47.88
47.48
47.03
46.67
46.4
46.14
45.65
44.7
43.15
41.04
38.54
35.85
33.11
30.33
27.38
24.09
20.39
16.3
12.02
7.84
3.97
0.52
-2.62
-5.72
-9.11
-13.03
-17.55
-22.57
-27.83
-33.04
-37.98
-42.58
-47.02
-51.6
-56.72
-62.68
-69.55
-76.88
-83.71
-88.62
-90.08
-86.91
-78.68
-65.95
-50.15
-33.15
-16.74
-2.25
9.68
18.91
25.72
30.49
33.64
35.6
36.77
37.55
38.23
38.96
39.69
40.28
40.55
40.48
40.15
39.87
39.92
40.45
41.4
42.42
43.08
42.94
41.8
39.69
36.9
33.79
30.72
27.91
25.37
22.92
20.29
17.2
13.53
9.39
5.07
0.93
-2.74
-5.9
-8.79
-11.77
-15.21
-19.27
-23.85
-28.66
-33.39
-37.86
-42.12
-46.42
-51.09
-56.47
-62.76
-69.98
-77.76
-85.28
-91.31
-94.39
-93.22
-87.07
-76.14
-61.56
-45.09
-28.6
-13.59
-0.92
9.19
16.88
22.4
26.01
27.94
28.53
28.19
27.4
26.51
25.73
25.07
24.45
23.8
23.18
22.77
22.8
23.41
24.59
26.1
27.51
28.33
28.2
27.05
25.12
22.88
20.75
18.96
17.4
15.74
13.68
11.06
7.95
4.56
1.07
-2.43
-6.0
-9.79
-13.91
-18.35
-23.01
-27.67
-32.07
-35.96
-39.25
-42.03
-44.66
-47.64
-51.54
-56.73
-63.25
-70.57
-77.65
-82.93
-84.84
-82.14
-74.36
-62.07
-46.66
-30.01
-13.94
0.17
11.58
20.1
25.93
29.43
31.07
31.34
30.76
29.83
28.87
28.06
27.41
26.82
26.26
25.77
25.48
25.59
26.2
27.32
28.8
30.35
31.69
32.58
32.83
32.36
31.1
29.06
26.3
22.97
19.36
15.81
12.61
9.85
7.35
4.77
1.72
-2.02
-6.37
-10.96
-15.3
-19.03
-22.11
-24.84
-27.78
-31.55
-36.59
-42.98
-50.35
-57.78
-63.96
-67.38
-66.74
-61.29
-51.13
-37.2
-21.04
-4.37
11.32
25.05
36.33
45.08
51.47
55.8
58.44
59.82
60.34
60.32
59.98
59.46
58.75
57.81
56.59
55.1
53.48
51.96
50.83
50.29
50.32
50.61
50.7
50.11
48.54
45.94
42.46
38.39
34.03
29.64
25.42
21.46
17.73
14.07
10.3
6.2
1.66
-3.34
-8.67
-14.21
-19.77
-25.23
-30.56
-35.79
-41.2
-47.13
-53.96
-61.75
-70.14
-78.16
-84.38
-87.22
-85.5
-78.74
-67.4
-52.74
-36.44
-20.19
-5.32
7.38
17.6
25.35
30.88
34.56
36.79
38.04
38.68
38.98
39.03
38.7
37.94
36.74
35.29
33.88
32.84
32.33
32.32
32.68
33.09
33.33
33.14
32.32
30.75
28.38
25.31
21.71
17.81
13.76
9.69
5.58
1.41
-2.87
-7.26
-11.79
-16.49
-21.38
-26.46
-31.66
-36.87
-41.98
-46.9
-51.59
-56.06
-60.45
-65.0
-70.06
-75.97
-82.79
-90.01
-96.47
-100.57
-100.69
-95.75
-85.64
-71.27
-54.28
-36.61
-19.93
-5.41
6.45
15.6
22.31
26.91
29.77
31.24
31.68
31.5
31.06
30.63
30.32
30.07
29.74
29.18
28.44
27.65
27.01
26.71
26.81
27.22
27.7
27.89
27.5
26.29
24.28
21.67
18.79
15.94
13.28
10.79
8.33
5.72
2.84
-0.42
-4.14
-8.34
-12.98
-17.8
-22.51
-26.84
-30.76
-34.55
-38.79
-44.09
-50.77
-58.62
-66.74
-73.68
-77.77
-77.59
-72.39
-62.29
-48.28
-31.89
-14.8
1.52
15.95
27.81
36.77
42.79
46.18
47.51
47.54
46.98
46.34
45.78
45.28
44.74
44.1
43.44
42.94
42.77
43.02
43.67
44.65
45.79
46.93
47.89
48.47
48.47
47.68
45.96
43.34
39.97
36.21
32.45
29.0
25.99
23.24
20.38
16.97
12.74
7.65
1.97
-3.85
-9.34
-14.18
-18.39
-22.22
-26.21
-30.9
-36.76
-43.98
-52.38
-61.25
-69.45
-75.47
-77.81
-75.36
-67.77
-55.64
-40.41
-23.94
-8.02
6.02
17.53
26.4
32.87
37.36
40.25
41.96
42.87
43.31
43.51
43.59
43.54
43.3
42.8
42.05
41.16
40.32
39.74
39.57
39.83
40.32
40.66
40.43
39.31
37.32
34.75
31.93
29.07
26.08
22.74
18.82
14.41
9.83
5.57
1.88
-1.32
-4.39
-7.83
-11.95
-16.76
-21.93
-27.1
-31.98
-36.5
-40.85
-45.36
-50.44
-56.44
-63.54
-71.57
-79.88
-87.31
-92.26
-93.18
-88.97
-79.46
-65.51
-48.78
-31.31
-14.87
-0.68
10.72
19.31
25.32
29.1
31.1
31.74
31.54
30.97
30.35
29.87
29.55
29.3
29.03
28.64
28.17
27.68
27.33
27.24
27.47
27.91
28.23
28.01
26.82
24.45
20.98
16.78
12.3
7.97
4.0
0.36
-3.09
-6.52
-10.09
-13.85
-17.86
-22.15
-26.69
-31.37
-36.04
-40.48
-44.58
-48.39
-52.15
-56.28
-61.23
-67.28
-74.19
-81.18
-86.92
-89.86
-88.7
-82.8
-72.38
-58.47
-42.57
-26.21
-10.66
3.19
14.83
23.94
30.43
34.36
36.06
36.07
35.06
33.66
32.34
31.32
30.53
29.82
29.0
28.02
26.99
26.11
25.56
25.39
25.4
25.25
24.54
23.01
20.66
17.77
14.73
11.86
9.24
6.66
3.77
0.26
-3.92
-8.58
-13.28
-17.63
-21.42
-24.72
-27.87
-31.41
-35.84
-41.52
-48.35
-55.68
-62.32
-66.69
-67.32
-63.29
-54.54
-41.98
-27.15
-11.71
2.84
15.49
25.67
33.16
38.08
40.79
41.88
42.01
41.77
41.53
41.37
41.18
40.83
40.32
39.77
39.41
39.46
39.96
40.8
41.71
42.43
42.77
42.7
42.21
41.34
40.01
38.08
35.4
31.93
27.73
23.0
17.94
12.64
7.2
1.64
-3.97
-9.59
-15.32
-21.42
-28.29
-36.21
-45.13
-54.36
-62.59
-68.19
-69.68
-66.19
-57.81
-45.48
-30.7
-15.06
0.12
13.97
25.96
35.81
43.38
48.7
51.95
53.54
53.98
53.74
53.15
52.33
51.29
49.95
48.34
46.53
44.69
43.0
41.6
40.57
39.83
39.18
38.25
36.7
34.24
30.86
26.79
22.44
18.16
14.17
10.36
6.41
1.96
-3.29
-9.34
-15.96
-22.74
-29.26
-35.26
-40.74
-45.96
-51.35
-57.32
-64.2
-71.96
-80.13
-87.79
-93.61
-96.13
-94.16
-87.18
-75.54
-60.38
-43.42
-26.44
-10.92
2.15
12.4
19.88
24.89
27.87
29.31
29.74
29.7
29.63
29.85
30.38
31.05
31.57
31.63
31.15
30.22
29.06
27.92
26.99
26.29
25.75
25.19
24.38
23.07
21.05
18.23
14.71
10.68
6.41
2.18
-1.93
-5.88
-9.75
-13.64
-17.62
-21.77
-26.12
-30.65
-35.24
-39.71
-43.92
-47.82
-51.63
-55.86
-61.11
-67.79
-75.79
-84.16
-91.34
-95.4
-94.73
-88.59
-77.34
-62.41
-45.73
-29.2
-14.17
-1.34
9.14
17.4
23.62
27.92
30.46
31.47
31.34
30.55
29.55
28.65
28.01
27.59
27.3
27.1
26.99
27.06
27.34
27.75
28.05
27.95
27.27
26.0
24.34
22.55
20.77
18.89
16.61
13.62
9.76
5.2
0.33
-4.42
-8.77
-12.69
-16.29
-19.84
-23.6
-27.88
-32.96
-39.0
-45.76
-52.46
-57.76
-60.02
-57.81
-50.46
-38.32
-22.73
-5.6
11.21
26.25
38.78
48.64
56.0
61.18
64.52
66.38
67.21
67.51
67.69
67.94
68.18
68.1
67.43
66.05
64.13
62.03
60.07
58.39
56.92
55.42
53.61
51.3
48.37
44.85
40.8
36.3
31.42
26.2
20.59
14.55
8.1
1.38
-5.33
-11.71
-17.54
-22.87
-28.02
-33.49
-39.89
-47.61
-56.69
-66.63
-76.25
-83.9
-87.79
-86.54
-79.64
-67.68
-52.17
-35.07
-18.19
-2.86
10.24
20.95
29.37
35.75
40.35
43.45
45.38
46.52
47.2
47.67
48.03
48.25
48.25
47.89
47.15
46.1
44.92
43.78
42.8
41.94
41.07
39.99
38.52
36.52
33.95
30.77
27.03
22.82
18.27
13.55
8.76
3.98
-0.82
-5.69
-10.68
-15.82
-21.03
-26.25
-31.37
-36.36
-41.17
-45.88
-50.57
-55.45
-60.86
-67.13
-74.54
-83.02
-91.94
-100.06
-105.7
-107.19
-103.43
-94.32
-80.79
-64.6
-47.74
-31.87
-18.1
-6.89
1.77
8.15
12.63
15.62
17.61
19.04
20.28
21.49
22.61
23.45
23.81
23.57
22.88
21.99
21.25
20.97
21.22
21.92
22.77
23.43
23.59
23.0
21.61
19.5
16.84
13.89
10.91
8.04
5.21
2.21
-1.19
-5.15
-9.61
-14.35
-19.07
-23.55
-27.74
-31.74
-35.8
-40.26
-45.54
-51.88
-59.22
-66.86
-73.46
-77.27
-76.64
-70.69
-59.62
-44.74
-27.97
-11.28
3.77
16.33
26.08
33.13
37.82
40.64
42.14
42.87
43.25
43.53
43.77
43.94
44.02
44.02
44.04
44.23
44.74
45.61
46.82
48.2
49.46
50.27
50.4
49.75
48.41
46.59
44.42
41.93
39.0
35.39
31.02
25.93
20.37
14.67
9.09
3.77
-1.29
-6.22
-11.33
-16.95
-23.49
-31.1
-39.57
-48.0
-54.99
-58.89
-58.38
-52.87
-42.8
-29.46
-14.54
0.28
13.81
25.35
34.64
41.68
46.63
49.79
51.51
52.19
52.18
51.7
50.84
49.57
47.9
45.88
43.75
41.75
40.15
39.12
38.67
38.68
38.9
39.05
38.83
38.0
36.45
34.16
31.21
27.68
23.71
19.43
15.02
10.66
6.46
2.44
-1.54
-5.66
-10.11
-14.97
-20.21
-25.69
-31.17
-36.44
-41.41
-46.05
-50.54
-55.27
-60.73
-67.36
-75.32
-84.22
-92.98
-100.0
-103.51
-102.14
-95.33
-83.55
-68.21
-51.2
-34.4
-19.29
-6.72
3.06
10.19
15.05
18.09
19.79
20.64
21.08
21.45
21.89
22.35
22.65
22.56
22.03
21.17
20.23
19.51
19.18
19.18
19.32
19.36
19.07
18.37
17.25
15.73
13.77
11.39
8.57
5.41
2.09
-1.19
-4.27
-7.1
-9.77
-12.42
-15.25
-18.4
-21.91
-25.71
-29.69
-33.69
-37.57
-41.22
-44.68
-48.09
-51.84
-56.4
-62.1
-68.84
-75.84
-81.68
-84.6
-83.14
-76.62
-65.42
-50.79
-34.48
-18.16
-3.15
9.74
20.16
27.98
33.32
36.4
37.64
37.56
36.7
35.56
34.46
33.54
32.78
32.12
31.56
31.18
31.14
31.56
32.48
33.76
35.14
36.31
37.04
37.26
37.02
36.44
35.6
34.42
32.77
30.52
27.63
24.26
20.69
17.22
13.97
10.85
7.57
3.74
-1.04
-7.14
-14.74
-23.76
-33.55
-42.92
-50.23
-53.84
-52.62
-46.37
-35.87
-22.62
-8.36
5.39
17.6
27.74
35.68
41.52
45.46
47.74
48.67
48.56
47.72
46.41
44.85
43.19
41.49
39.79
38.07
36.38
34.81
33.52
32.66
32.22
32.05
31.8
31.05
29.5
27.02
23.73
19.92
15.91
11.97
8.15
4.35
0.36
-4.01
-8.79
-13.88
-19.07
-24.13
-28.93
-33.47
-37.87
-42.34
-47.19
-52.76
-59.36
-67.03
-75.33
-83.17
-88.94
-90.9
-87.83
-79.42
-66.46
-50.57
-33.68
-17.5
-3.2
8.63
17.83
24.51
28.93
31.45
32.53
32.71
32.44
32.09
31.86
31.8
31.84
31.92
31.93
31.83
31.69
31.57
31.56
31.73
31.99
32.12
31.83
30.83
28.92
26.11
22.59
18.6
14.39
10.09
5.71
1.24
-3.33
-7.96
-12.62
-17.36
-22.24
-27.35
-32.68
-38.1
-43.41
-48.45
-53.21
-57.85
-62.65
-67.93
-73.94
-80.74
-87.99
-94.89
-100.2
-102.41
-100.25
-93.07
-81.21
-65.85
-48.74
-31.63
-15.92
-2.44
8.42
16.58
22.18
25.46
26.87
26.92
26.15
25.0
23.74
22.5
21.37
20.43
19.78
19.51
19.61
19.95
20.3
20.44
20.22
19.62
18.72
17.62
16.4
15.0
13.33
11.17
8.36
4.81
0.58
-4.19
-9.23
-14.29
-19.17
-23.84
-28.38
-33.03
-38.11
-43.92
-50.59
-57.79
-64.63
-69.68
-71.39
-68.54
-60.76
-48.68
-33.7
-17.61
-2.04
11.78
23.11
31.66
37.46
40.85
42.36
42.61
42.21
41.53
40.72
39.77
38.7
37.54
36.45
35.59
35.04
34.8
34.81
34.96
35.1
35.11
34.84
34.18
33.02
31.36
29.17
26.43
23.14
19.32
15.09
10.61
6.08
1.62
-2.78
-7.26
-12.08
-17.59
-24.13
-31.83
-40.43
-49.06
-56.35
-60.61
-60.42
-55.04
-44.75
-30.79
-14.91
1.11
15.85
28.43
38.45
45.89
50.93
53.9
55.22
55.38
54.8
53.81
52.63
51.35
49.99
48.56
47.11
45.72
44.5
43.55
42.93
42.6
42.47
42.35
42.01
41.2
39.66
37.24
33.91
29.86
25.47
21.05
16.78
12.53
8.0
2.88
-2.91
-9.19
-15.56
-21.63
-27.17
-32.2
-36.92
-41.71
-47.0
-53.18
-60.56
-69.08
-78.18
-86.68
-92.88
-95.05
-91.94
-83.28
-69.86
-53.37
-35.81
-18.98
-4.08
8.34
18.22
25.75
31.13
34.59
36.45
37.16
37.27
37.26
37.37
37.58
37.63
37.25
36.32
34.89
33.22
31.6
30.22
29.12
28.19
27.16
25.72
23.59
20.66
16.99
12.82
8.51
4.33
0.35
-3.61
-7.88
-12.81
-18.54
-24.88
-31.45
-37.72
-43.3
-48.03
-52.09
-55.88
-60.02
-65.08
-71.44
-79.05
-87.21
-94.68
-99.8
-100.96
-97.05
-87.87
-74.25
-57.78
-40.34
-23.63
-8.82
3.5
13.18
20.31
25.16
28.13
29.72
30.46
30.78
30.92
30.85
30.43
29.54
28.23
26.76
25.5
24.8
24.85
25.59
26.73
27.8
28.27
27.8
26.31
24.02
21.35
18.66
16.12
13.58
10.71
7.14
2.67
-2.6
-8.32
-13.96
-19.05
-23.29
-26.73
-29.7
-32.82
-36.75
-41.99
-48.6
-56.1
-63.4
-68.97
-71.26
-69.07
-62.01
-50.55
-35.94
-19.86
-3.93
10.55
22.83
32.62
39.95
45.09
48.37
50.22
51.09
51.38
51.4
51.32
51.23
51.16
51.15
51.29
51.71
52.55
53.88
55.62
57.58
59.44
60.79
61.33
60.87
59.46
57.34
54.82
52.1
49.18
45.82
41.73
36.63
30.54
23.69
16.57
9.68
3.36
-2.28
-7.5
-12.81
-18.86
-26.16
-34.89
-44.62
-54.25
-62.2
-66.8
-66.73
-61.46
-51.39
-37.77
-22.29
-6.71
7.54
19.59
29.04
35.95
40.61
43.46
44.93
45.38
45.11
44.31
43.13
41.72
40.26
38.96
37.99
37.38
37.05
36.82
36.52
36.12
35.67
35.23
34.72
33.92
32.5
30.16
26.85
22.78
18.31
13.82
9.61
5.74
2.11
-1.53
-5.47
-9.95
-15.06
-20.7
-26.63
-32.48
-37.93
-42.78
-47.08
-51.06
-55.2
-60.1
-66.28
-73.87
-82.29
-90.19
-95.67
-96.88
-92.64
-82.9
-68.74
-51.89
-34.28
-17.49
-2.62
9.73
19.33
26.22
30.71
33.32
34.64
35.22
35.45
35.47
35.3
34.86
34.04
32.76
31.0
28.93
26.78
24.91
23.63
22.98
22.74
22.48
21.74
20.22
17.84
14.71
11.01
6.97
2.78
-1.36
-5.3
-8.95
-12.34
-15.62
-19.04
-22.85
-27.18
-31.99
-37.05
-42.04
-46.67
-50.73
-54.28
-57.58
-61.09
-65.33
-70.69
-77.2
-84.34
-90.98
-95.58
-96.54
-92.68
-83.72
-70.34
-54.05
-36.73
-20.06
-5.28
6.99
16.5
23.38
27.87
30.33
31.25
31.13
30.45
29.52
28.5
27.43
26.4
25.5
24.92
24.81
25.17
25.88
26.67
27.28
27.53
27.41
26.98
26.31
25.44
24.26
22.6
20.26
17.16
13.34
8.98
4.37
-0.21
-4.53
-8.51
-12.22
-15.95
-20.16
-25.24
-31.28
-37.81
-43.69
-47.31
-47.12
-42.13
-32.31
-18.67
-2.83
13.42
28.61
41.82
52.62
60.92
66.79
70.34
71.78
71.43
69.74
67.19
64.25
61.29
58.52
56.02
53.72
51.49
49.18
46.7
44.01
41.16
38.28
35.47
32.74
29.88
26.62
22.59
17.59
11.65
5.09
-1.64
-8.11
-14.07
-19.49
-24.56
-29.62
-35.06
-41.24
-48.44
-56.6
-65.12
-72.82
-78.19
-79.67
-76.35
-68.13
-55.91
-41.2
-25.72
-10.97
2.04
12.77
21.12
27.21
31.34
33.9
35.29
35.92
36.12
36.13
36.02
35.79
35.36
34.68
33.73
32.55
31.21
29.77
28.22
26.51
24.58
22.37
19.9
17.2
14.25
11.0
7.31
3.03
-1.94
-7.56
-13.65
-19.94
-26.07
-31.76
-36.86
-41.53
-46.21
-51.61
-58.36
-66.77
-76.48
-86.32
-94.52
-99.2
-98.89
-93.06
-82.26
-67.93
-51.96
-36.16
-21.9
-9.91
-0.42
6.72
11.87
15.42
17.76
19.21
20.06
20.53
20.79
20.96
21.07
21.11
21.03
20.82
20.44
19.99
19.59
19.27
19.01
18.57
17.56
15.61
12.46
8.1
2.74
-3.2
-9.26
-15.0
-20.15
-24.58
-28.4
-31.93
-35.63
-40.04
-45.56
-52.25
-59.65
-66.68
-71.85
-73.67
-71.04
-63.66
-52.13
-37.81
-22.34
-7.32
6.09
17.25
25.91
32.1
36.02
37.98
38.42
37.98
37.33
37.01
37.33
38.22
39.36
40.28
40.64
40.36
39.68
39.02
38.79
39.19
40.03
40.86
41.1
40.3
38.31
35.26
31.52
27.46
23.35
19.22
14.94
10.29
4.92
-1.51
-9.23
-18.15
-27.66
-36.52
-43.09
-45.77
-43.54
-36.33
-25.04
-11.25
3.32
17.17
29.32
39.29
47.01
52.63
56.43
58.69
59.72
59.77
59.03
57.65
55.76
53.44
50.79
47.91
44.96
42.09
39.39
36.91
34.55
32.19
29.69
26.93
23.86
20.47
16.68
12.4
7.62
2.37
-3.17
-8.79
-14.3
-19.62
-24.77
-29.88
-35.16
-40.87
-47.33
-54.84
-63.48
-72.87
-82.0
-89.34
-93.15
-92.04
-85.42
-73.83
-58.69
-41.91
-25.32
-10.26
2.59
13.05
21.3
27.63
32.32
35.74
38.22
40.12
41.66
42.93
43.82
44.1
43.64
42.45
40.76
38.95
37.37
36.15
35.16
34.0
32.23
29.49
25.74
21.21
16.3
11.44
6.86
2.58
-1.59
-5.92
-10.7
-16.06
-21.98
-28.29
-34.7
-40.92
-46.76
-52.26
-57.66
-63.4
-69.93
-77.57
-86.12
-94.83
-102.3
-106.83
-106.9
-101.62
-91.11
-76.37
-59.1
-41.18
-24.19
-9.29
2.91
12.24
18.83
23.05
25.45
26.65
27.29
27.81
28.47
29.27
30.0
30.44
30.38
29.83
28.99
28.14
27.59
27.42
27.51
27.52
27.06
25.84
23.81
21.04
17.73
14.05
10.03
5.69
1.08
-3.67
-8.37
-12.75
-16.69
-20.15
-23.25
-26.31
-29.73
-33.99
-39.39
-45.89
-52.79
-58.79
-62.19
-61.41
-55.55
-44.73
-30.07
-13.37
3.49
19.0
32.25
42.9
50.98
56.77
60.61
62.93
64.14
64.62
64.67
64.42
63.92
63.16
62.12
60.88
59.55
58.28
57.14
56.13
55.13
53.94
52.29
50.03
47.07
43.52
39.52
35.16
30.43
25.13
19.12
12.39
5.16
-2.22
-9.34
-15.95
-22.01
-27.69
-33.33
-39.32
-46.04
-53.64
-61.84
-69.81
-76.18
-79.33
-77.91
-71.35
-60.1
-45.54
-29.49
-13.73
0.48
12.45
21.98
29.19
34.35
37.82
39.98
41.28
42.09
42.66
43.08
43.28
43.15
42.58
41.55
40.12
38.46
36.85
35.55
34.77
34.5
34.5
34.29
33.39
31.5
28.62
25.08
21.34
17.77
14.5
11.36
7.95
3.87
-1.09
-6.87
-13.18
-19.56
-25.58
-30.97
-35.71
-40.06
-44.47
-49.5
-55.72
-63.45
-72.49
-82.0
-90.46
-96.04
-97.17
-93.03
-83.9
-71.02
-56.2
-41.16
-27.23
-15.11
-5.05
2.92
8.89
13.05
15.69
17.22
18.1
18.71
19.31
19.92
20.45
20.73
20.61
20.06
19.19
18.26
17.54
17.24
17.37
17.7
17.84
17.36
15.97
13.59
10.47
7.03
3.72
0.84
-1.55
-3.69
-5.94
-8.67
-12.02
-15.94
-20.16
-24.38
-28.31
-31.87
-35.09
-38.19
-41.46
-45.3
-50.13
-56.12
-63.03
-69.9
-75.24
-77.35
-74.87
-67.27
-55.15
-39.98
-23.66
-8.01
5.69
16.75
25.01
30.62
33.92
35.4
35.57
35.0
34.09
33.08
32.04
30.95
29.86
28.85
28.11
27.79
27.95
28.51
29.28
30.02
30.52
30.66
30.37
29.62
28.42
26.76
24.66
22.18
19.39
16.41
13.28
10.04
6.7
3.26
-0.22
-3.75
-7.48
-11.73
-16.92
-23.33
-30.79
-38.56
-45.28
-49.36
-49.43
-44.8
-35.68
-23.14
-8.76
5.84
19.3
30.78
39.92
46.73
51.48
54.5
56.16
56.82
56.73
56.05
54.83
53.17
51.14
48.92
46.67
44.54
42.62
40.9
39.32
37.82
36.3
34.62
32.63
30.19
27.27
23.95
20.36
16.6
12.63
8.33
3.56
-1.74
-7.46
-13.34
-19.14
-24.65
-29.85
-34.87
-39.98
-45.56
-52.01
-59.47
-67.66
-75.73
-82.27
-85.67
-84.61
-78.55
-67.91
-53.95
-38.38
-22.8
-8.44
3.97
14.15
22.08
27.88
31.81
34.23
35.66
36.6
37.43
38.3
39.15
39.75
39.93
39.61
38.91
38.01
37.18
36.55
36.17
35.94
35.68
35.15
34.0
31.93
28.73
24.45
19.43
14.26
9.48
5.38
1.83
-1.64
-5.59
-10.41
-16.09
-22.27
-28.37
-33.88
-38.64
-42.74
-46.62
-50.8
-55.83
-62.12
-69.81
-78.6
-87.67
-95.62
-100.78
-101.54
-96.9
-86.86
-72.46
-55.5
-38.04
-21.78
-7.83
3.38
11.85
17.85
21.71
23.84
24.77
25.04
25.12
25.26
25.47
25.58
25.45
25.04
24.5
24.06
23.9
24.09
24.58
25.27
25.99
26.59
26.84
26.52
25.39
23.29
20.28
16.62
12.72
9.0
5.74
3.0
0.55
-1.93
-4.78
-8.19
-12.17
-16.55
-21.07
-25.49
-29.61
-33.38
-36.86
-40.29
-44.05
-48.6
-54.31
-61.26
-68.93
-76.18
-81.42
-83.01
-79.78
-71.49
-58.91
-43.6
-27.41
-11.98
1.53
12.53
20.9
26.73
30.3
32.04
32.48
32.21
31.69
31.2
30.74
30.2
29.51
28.74
28.11
27.9
28.26
29.05
29.99
30.69
30.84
30.29
29.05
27.26
25.11
22.72
20.14
17.33
14.22
10.72
6.84
2.65
-1.71
-6.04
-10.15
-13.85
-17.05
-19.83
-22.57
-25.9
-30.44
-36.57
-44.03
-51.74
-57.96
-60.83
-58.91
-51.69
-39.79
-24.65
-8.1
8.17
22.94
35.54
45.74
53.6
59.28
62.97
65.0
65.74
65.68
65.25
64.7
64.13
63.45
62.57
61.42
60.1
58.75
57.58
56.67
56.03
55.51
54.93
54.02
52.53
50.24
47.03
42.93
38.13
32.99
27.89
23.15
18.78
14.59
10.23
5.36
-0.24
-6.49
-13.1
-19.67
-25.84
-31.39
-36.35
-40.97
-45.64
-50.86
-57.1
-64.6
-73.16
-81.93
-89.49
-94.1
-94.21
-89.0
-78.63
-64.26
-47.63
-30.69
-14.97
-1.5
9.32
17.59
23.69
28.15
31.44
33.93
35.81
37.19
38.08
38.56
38.75
38.78
38.78
38.84
39.02
39.39
40.0
40.85
41.86
42.77
43.25
42.94
41.69
39.51
36.62
33.32
29.83
26.26
22.53
18.53
14.18
9.55
4.84
0.23
-4.15
-8.41
-12.75
-17.4
-22.42
-27.65
-32.78
-37.51
-41.76
-45.71
-49.77
-54.43
-60.13
-67.1
-75.23
-83.97
-92.25
-98.6
-101.48
-99.64
-92.56
-80.68
-65.27
-48.07
-30.85
-15.0
-1.46
9.33
17.28
22.55
25.49
26.63
26.55
25.83
24.92
24.09
23.44
22.93
22.49
22.06
21.66
21.34
21.18
21.15
21.2
21.21
21.1
20.83
20.44
20.0
19.52
18.87
17.86
16.26
13.98
11.14
8.03
4.99
2.25
-0.2
-2.63
-5.44
-8.94
-13.19
-17.99
-22.95
-27.71
-32.02
-35.9
-39.6
-43.48
-48.01
-53.63
-60.51
-68.34
-76.24
-82.73
-86.17
-85.18
-79.17
-68.53
-54.44
-38.53
-22.39
-7.33
5.77
16.38
24.29
29.55
32.47
33.56
33.41
32.58
31.53
30.56
29.86
29.53
29.61
30.05
30.72
31.51
32.29
33.03
33.71
34.29
34.66
34.74
34.47
33.82
32.81
31.46
29.71
27.42
24.53
21.05
17.13
13.09
9.21
5.63
2.35
-0.85
-4.33
-8.54
-13.9
-20.68
-28.72
-37.27
-45.0
-50.19
-51.25
-47.22
-38.17
-25.17
-9.91
5.79
20.43
33.04
43.15
50.62
55.53
58.15
58.94
58.45
57.22
55.64
53.89
52.02
49.96
47.68
45.26
42.81
40.49
38.4
36.61
35.1
33.68
32.09
30.09
27.5
24.34
20.75
16.87
12.8
8.54
4.01
-0.82
-5.93
-11.2
-16.52
-21.79
-27.02
-32.27
-37.76
-43.84
-50.92
-59.25
-68.68
-78.38
-86.91
-92.5
-93.59
-89.29
-79.7
-65.91
-49.56
-32.52
-16.39
-2.24
9.41
18.48
25.2
29.87
32.85
34.53
35.32
35.68
35.94
36.25
36.52
36.49
35.98
35.03
33.97
33.26
33.24
33.89
34.82
35.41
35.03
33.33
30.33
26.36
21.91
17.46
13.27
9.29
5.19
0.56
-4.99
-11.49
-18.71
-26.18
-33.35
-39.87
-45.58
-50.62
-55.34
-60.3
-66.03
-72.92
-80.86
-89.1
-96.28
-100.62
-100.59
-95.33
-85.02
-70.82
-54.46
-37.77
-22.23
-8.75
2.21
10.65
16.74
20.75
23.07
24.16
24.49
24.5
24.51
24.62
24.86
25.11
25.27
25.26
25.09
24.75
24.36
23.95
23.57
23.21
22.79
22.2
21.26
19.82
17.72
14.84
11.08
6.39
0.89
-5.12
-11.2
-16.94
-22.09
-26.75
-31.3
-36.28
-42.23
-49.33
-57.32
-65.27
-71.82
-75.34
-74.41
-68.26
-57.09
-42.07
-24.97
-7.77
7.94
21.16
31.52
39.16
44.45
47.82
49.69
50.47
50.54
50.32
50.12
50.2
