0
49.38
44.74
41.33
39.44
38.76
38.7
38.7
38.41
37.75
36.71
35.17
32.93
29.71
25.39
20.12
14.36
8.67
3.56
-0.81
-4.63
-8.35
-12.46
-17.21
-22.54
-28.15
-33.64
-38.69
-43.21
-47.31
-51.31
-55.74
-61.17
-68.09
-76.57
-86.04
-95.11
-101.82
-104.08
-100.4
-90.38
-74.9
-55.85
-35.53
-16.0
1.38
16.02
27.98
37.51
44.85
50.05
53.13
54.21
53.7
52.21
50.47
49.06
48.26
48.06
48.2
48.39
48.44
48.25
47.79
47.02
45.83
44.05
41.55
38.24
34.16
29.51
24.59
19.76
15.31
11.42
8.02
4.89
1.69
-1.9
-6.08
-10.87
-16.11
-21.51
-26.77
-31.71
-36.34
-40.93
-45.94
-51.96
-59.41
-68.31
-78.06
-87.35
-94.39
-97.33
-94.77
-86.23
-72.28
-54.5
-34.94
-15.63
1.83
16.54
28.22
36.9
42.81
46.15
47.25
46.53
44.65
42.33
40.22
38.77
38.08
38.04
38.41
39.0
39.6
40.07
40.19
39.7
38.35
35.96
32.57
28.34
23.55
18.47
13.31
8.2
3.2
-1.64
-6.32
-10.82
-15.15
-19.37
-23.59
-27.93
-32.58
-37.78
-43.81
-50.88
-58.82
-66.91
-73.78
-77.7
-77.04
-70.87
-59.36
-43.69
-25.72
-7.42
9.59
24.26
36.05
44.74
50.35
53.11
53.47
52.1
49.79
47.27
45.02
43.27
42.01
41.07
40.34
39.76
39.31
39.02
38.8
38.42
37.55
35.83
33.01
29.02
24.09
18.6
13.05
7.85
3.17
-1.1
-5.3
-9.83
-14.93
-20.58
-26.53
-32.39
-37.82
-42.64
-46.92
-51.0
-55.43
-60.86
-67.81
-76.33
-85.69
-94.31
-100.08
-100.93
-95.55
-83.92
-67.27
-47.67
-27.36
-8.2
8.69
22.74
33.81
41.91
47.14
49.74
50.19
49.14
47.26
45.16
43.2
41.57
40.33
39.48
39.1
39.19
39.69
40.43
41.07
41.23
40.53
38.66
35.51
31.21
26.16
20.89
15.88
11.38
7.29
3.25
-1.12
-6.08
-11.51
-17.09
-22.39
-27.11
-31.21
-34.94
-38.74
-43.17
-48.75
-55.71
-63.78
-72.0
-78.73
-82.11
-80.46
-73.0
-60.08
-43.17
-24.44
-6.05
10.39
24.02
34.62
42.37
47.45
50.0
50.21
48.48
45.48
42.05
38.98
36.76
35.48
34.94
34.81
34.81
34.76
34.53
33.99
32.95
31.22
28.66
25.24
21.0
16.04
10.52
4.64
-1.32
-7.04
-12.25
-16.85
-20.91
-24.75
-28.79
-33.55
-39.45
-46.75
-55.29
-64.36
-72.67
-78.51
-80.18
-76.57
-67.5
-53.89
-37.41
-19.98
-3.24
11.72
24.34
34.4
41.8
46.48
48.55
48.36
46.54
43.88
41.09
38.68
36.85
35.58
34.81
34.48
34.5
34.71
34.77
34.28
32.84
30.21
26.47
21.85
16.72
11.44
6.26
1.28
-3.53
-8.3
-13.23
-18.49
-24.14
-30.04
-35.88
-41.26
-45.92
-49.94
-53.75
-58.16
-63.9
-71.3
-79.88
-88.27
-94.51
-96.52
-92.82
-82.98
-67.79
-48.98
-28.72
-9.06
8.46
22.98
34.25
42.41
47.81
50.84
51.89
51.4
49.83
47.75
45.73
44.24
43.48
43.38
43.6
43.73
43.43
42.52
40.98
38.85
36.11
32.65
28.39
23.28
17.44
11.05
4.28
-2.77
-10.04
-17.38
-24.54
-31.06
-36.57
-40.96
-44.49
-47.8
-51.65
-56.7
-63.19
-70.87
-78.9
-85.99
-90.58
-91.11
-86.47
-76.32
-61.3
-42.87
-23.01
-3.66
13.71
28.21
39.47
47.45
52.23
54.02
53.25
50.68
47.35
44.32
42.4
41.86
42.38
43.27
43.8
43.59
42.63
41.25
39.75
38.2
36.35
33.72
29.9
24.81
18.71
12.16
5.73
-0.19
-5.54
-10.54
-15.57
-21.05
-27.31
-34.57
-42.82
-51.64
-60.12
-66.86
-70.24
-68.87
-62.11
-50.33
-34.8
-17.34
0.27
16.6
30.8
42.47
51.4
57.5
60.74
61.26
59.52
56.28
52.47
48.93
46.27
44.69
44.03
43.88
43.75
43.23
42.02
39.96
37.02
33.26
28.86
24.04
18.99
13.87
8.66
3.27
-2.39
-8.35
-14.49
-20.55
-26.24
-31.33
-35.78
-39.78
-43.72
-48.14
-53.65
-60.66
-69.22
-78.73
-87.85
-94.66
-97.04
-93.42
-83.24
-67.22
-47.22
-25.64
-4.77
13.76
29.13
41.18
50.07
56.05
59.31
60.11
58.95
56.53
53.71
51.24
49.54
48.67
48.41
48.46
48.58
48.59
48.39
47.83
46.68
44.68
41.66
37.63
32.73
27.3
21.69
16.18
10.92
5.87
0.84
-4.38
-9.88
-15.57
-21.13
-26.24
-30.76
-34.89
-39.17
-44.34
-51.05
-59.53
-69.36
-79.39
-87.88
-92.88
-92.68
-86.37
-74.08
-57.04
-37.27
-16.99
1.91
18.23
31.44
41.48
48.46
52.48
53.66
52.32
49.12
45.05
41.16
38.29
36.73
36.24
36.17
35.89
35.02
33.61
31.91
30.18
28.36
26.09
22.84
18.21
12.14
5.01
-2.52
-9.71
-16.04
-21.31
-25.66
-29.55
-33.59
-38.47
-44.77
-52.81
-62.43
-72.88
-82.78
-90.38
-93.83
-91.66
-83.2
-68.74
-49.6
-27.76
-5.47
15.26
33.0
46.99
57.09
63.55
66.79
67.26
65.45
61.96
57.55
53.09
49.37
46.88
45.64
45.2
44.85
43.92
42.01
39.08
35.36
31.17
26.78
22.27
17.68
12.97
8.13
3.12
-2.12
-7.65
-13.43
-19.29
-24.9
-29.93
-34.18
-37.71
-40.91
-44.42
-48.96
-55.11
-63.03
-72.17
-81.17
-88.02
-90.52
-86.97
-76.72
-60.54
-40.32
-18.55
2.39
20.79
35.78
47.2
55.3
60.43
63.04
63.57
62.56
60.57
58.13
55.66
53.4
51.42
49.75
48.38
47.35
46.64
46.12
45.49
44.36
42.31
39.09
34.74
29.53
23.94
18.44
13.36
8.83
4.72
0.85
-3.04
-7.1
-11.42
-15.94
-20.53
-25.05
-29.42
-33.74
-38.41
-43.98
-50.95
-59.38
-68.58
-77.07
-82.86
-84.09
-79.61
-69.4
-54.53
-36.82
-18.23
-0.41
15.51
28.91
39.57
47.44
52.54
54.95
54.9
52.82
49.37
45.38
41.69
38.92
37.33
36.77
36.81
36.92
36.62
35.69
34.04
31.71
28.79
25.31
21.27
16.65
11.54
6.12
0.68
-4.49
-9.18
-13.32
-17.04
-20.55
-24.11
-28.0
-32.5
-37.88
-44.35
-51.85
-59.86
-67.3
-72.64
-74.26
-70.93
-62.27
-48.91
-32.26
-14.22
3.42
19.23
32.3
42.2
48.79
52.08
52.33
50.04
46.0
41.23
36.72
33.25
31.14
30.23
30.02
29.91
29.41
28.28
26.56
24.45
22.09
19.51
16.55
12.89
8.28
2.72
-3.5
-9.87
-15.82
-20.96
-25.22
-28.92
-32.58
-36.85
-42.25
-49.14
-57.44
-66.54
-75.21
-81.71
-84.17
-81.12
-72.01
-57.45
-39.1
-19.17
0.17
17.26
31.23
41.82
49.17
53.56
55.25
54.54
51.86
47.87
43.31
38.95
35.34
32.69
30.96
29.92
29.35
29.05
28.82
28.38
27.36
25.41
22.32
18.21
13.42
8.46
3.74
-0.54
-4.47
-8.32
-12.34
-16.66
-21.21
-25.79
-30.15
-34.24
-38.19
-42.34
-47.19
-53.24
-60.79
-69.58
-78.63
-86.25
-90.33
-89.05
-81.44
-67.86
-49.87
-29.76
-9.82
8.25
23.56
35.9
45.37
52.15
56.35
58.13
57.8
55.88
53.03
49.94
47.19
45.12
43.85
43.24
42.98
42.66
41.85
40.23
37.72
34.44
30.65
26.61
22.47
18.18
13.6
8.56
3.02
-2.88
-8.84
-14.54
-19.79
-24.51
-28.8
-32.85
-36.94
-41.45
-46.78
-53.29
-61.0
-69.38
-77.21
-82.77
-84.33
-80.67
-71.51
-57.63
-40.55
-22.12
-3.99
12.49
26.41
37.18
44.4
48.02
48.34
46.09
42.3
38.12
34.51
32.04
30.79
30.47
30.53
30.42
29.75
28.38
26.4
24.02
21.38
18.43
14.9
10.42
4.79
-1.86
-9.04
-16.02
-22.13
-27.04
-30.91
-34.34
-38.11
-42.95
-49.26
-56.93
-65.28
-73.01
-78.43
-79.86
-76.08
-66.73
-52.51
-35.02
-16.29
1.75
17.7
30.87
41.09
48.47
53.14
55.19
54.75
52.18
48.22
43.82
40.02
37.53
36.55
36.69
37.21
37.34
36.57
34.8
32.24
29.17
25.78
22.07
17.92
13.21
7.94
2.22
-3.71
-9.63
-15.31
-20.57
-25.26
-29.42
-33.19
-36.93
-41.07
-46.06
-52.26
-59.74
-68.1
-76.35
-82.94
-86.02
-83.9
-75.69
-61.66
-43.31
-22.9
-2.85
15.02
29.7
41.02
49.29
54.87
58.07
59.13
58.38
56.3
53.55
50.74
48.32
46.47
45.1
44.06
43.22
42.53
41.97
41.47
40.77
39.48
37.18
33.6
28.81
23.18
17.29
11.7
6.74
2.39
-1.67
-5.92
-10.7
-16.0
-21.54
-26.83
-31.46
-35.36
-38.85
-42.6
-47.42
-53.95
-62.19
-71.37
-79.91
-85.73
-86.85
-81.98
-70.96
-54.86
-35.67
-15.61
3.37
19.97
33.56
43.96
51.14
55.14
56.14
54.53
51.03
46.59
42.2
38.67
36.38
35.32
35.11
35.22
35.14
34.58
33.45
31.83
29.82
27.46
24.61
21.08
16.7
11.43
5.45
-0.85
-7.03
-12.69
-17.58
-21.72
-25.36
-28.92
-32.88
-37.7
-43.69
-50.93
-59.12
-67.43
-74.53
-78.71
-78.37
-72.48
-61.08
-45.32
-27.07
-8.41
8.98
24.02
36.17
45.19
50.95
53.42
52.84
49.83
45.41
40.71
36.73
34.05
32.75
32.47
32.61
32.57
31.93
30.55
28.55
26.17
23.57
20.69
17.23
12.88
7.44
1.06
-5.85
-12.71
-19.05
-24.63
-29.48
-33.87
-38.18
-42.89
-48.55
-55.59
-64.08
-73.46
-82.37
-88.84
-90.82
-86.83
-76.58
-61.1
-42.39
-22.75
-4.15
12.23
25.89
36.71
44.61
49.45
51.16
50.03
46.78
42.5
38.33
35.11
33.13
32.29
32.22
32.54
33.0
33.4
33.56
33.26
32.23
30.32
27.53
23.99
19.93
15.57
11.02
6.31
1.46
-3.5
-8.47
-13.35
-18.09
-22.69
-27.22
-31.84
-36.78
-42.35
-48.9
-56.63
-65.35
-74.23
-81.79
-86.06
-85.2
-78.08
-64.82
-46.8
-26.3
-5.73
12.88
28.38
40.38
48.98
54.46
57.14
57.34
55.56
52.48
48.93
45.66
43.18
41.75
41.28
41.46
41.86
41.99
41.4
39.78
37.06
33.41
29.15
24.63
20.14
15.82
11.62
7.4
3.0
-1.67
-6.62
-11.75
-16.92
-21.92
-26.56
-30.71
-34.38
-37.85
-41.62
-46.36
-52.61
-60.38
-68.92
-76.64
-81.47
-81.49
-75.57
-63.8
-47.47
-28.63
-9.43
8.37
23.68
36.0
45.26
51.5
54.86
55.6
54.14
51.15
47.48
43.98
41.33
39.89
39.64
40.26
41.18
41.86
41.86
40.93
39.01
36.19
32.62
28.43
23.71
18.47
12.75
6.65
0.32
-5.97
-11.94
-17.38
-22.23
-26.56
-30.66
-34.85
-39.54
-45.12
-51.87
-59.87
-68.79
-77.69
-85.11
-89.16
-88.11
-80.92
-67.71
-49.85
-29.58
-9.34
8.88
23.96
35.6
44.03
49.62
52.67
53.43
52.28
49.81
46.8
43.99
41.91
40.66
40.09
39.87
39.75
39.64
39.55
39.49
39.37
38.96
37.91
35.89
32.75
28.55
23.6
18.38
13.33
8.67
4.34
0.03
-4.6
-9.74
-15.24
-20.74
-25.78
-30.09
-33.73
-37.05
-40.64
-45.12
-51.01
-58.54
-67.48
-76.94
-85.39
-90.92
-91.62
-86.27
-74.71
-58.03
-38.26
-17.75
1.49
18.17
31.82
42.5
50.49
56.01
59.2
60.2
59.3
57.03
54.09
51.19
48.79
47.06
45.89
45.06
44.31
43.5
42.47
41.05
39.01
36.09
32.2
27.45
22.16
16.76
11.58
6.79
2.27
-2.14
-6.67
-11.42
-16.33
-21.28
-26.06
-30.56
-34.77
-38.89
-43.34
-48.65
-55.24
-63.06
-71.39
-78.76
-83.24
-83.02
-76.99
-65.13
-48.63
-29.46
-9.8
8.49
24.2
36.79
46.13
52.31
55.52
56.02
54.28
51.05
47.16
43.52
40.78
39.25
38.84
39.12
39.53
39.56
38.85
37.3
34.97
32.07
28.73
24.97
20.7
15.77
10.1
3.78
-2.88
-9.48
-15.66
-21.2
-26.07
-30.44
-34.63
-39.08
-44.28
-50.7
-58.56
-67.67
-77.23
-85.78
-91.46
-92.43
-87.48
-76.44
-60.32
-41.01
-20.77
-1.58
15.31
29.36
40.56
49.02
54.74
57.66
57.89
55.93
52.65
49.07
46.02
43.91
42.65
41.94
41.5
41.21
41.08
41.09
41.05
40.55
39.12
36.41
32.37
27.26
21.57
15.9
10.72
6.26
2.46
-1.01
-4.63
-8.8
-13.72
-19.3
-25.18
-30.88
-35.97
-40.29
-44.05
-47.78
-52.25
-58.17
-65.86
-75.01
-84.45
-92.35
-96.57
-95.27
-87.5
-73.54
-54.85
-33.66
-12.37
7.06
23.46
36.43
46.11
52.82
56.88
58.6
58.33
56.62
54.15
51.61
49.55
48.16
47.31
46.7
46.01
45.14
44.11
43.06
42.0
40.7
38.83
35.98
31.96
26.93
21.34
15.78
10.75
6.42
2.57
-1.22
-5.37
-10.09
-15.28
-20.63
-25.72
-30.28
-34.28
-37.97
-41.83
-46.44
-52.31
-59.62
-68.01
-76.49
-83.48
-87.14
-85.83
-78.65
-65.7
-48.18
-28.05
-7.55
11.32
27.26
39.76
48.89
55.0
58.45
59.45
58.28
55.39
51.53
47.66
44.6
42.8
42.16
42.23
42.45
42.42
41.97
41.05
39.59
37.37
34.16
29.86
24.65
18.97
13.32
8.08
3.24
-1.5
-6.57
-12.22
-18.39
-24.64
-30.45
-35.45
-39.7
-43.64
-47.97
-53.42
-60.45
-69.05
-78.57
-87.67
-94.49
-97.03
-93.71
-83.94
-68.39
-48.84
-27.68
-7.2
10.99
26.04
37.79
46.37
52.0
54.92
55.38
53.88
51.09
47.81
44.84
42.72
41.65
41.47
41.78
42.11
42.08
41.56
40.67
39.59
38.43
37.08
35.19
32.36
28.37
23.34
17.78
12.38
7.7
3.94
0.81
-2.29
-6.01
-10.76
-16.45
-22.62
-28.58
-33.79
-38.0
-41.37
-44.33
-47.55
-51.69
-57.41
-65.07
-74.52
-84.8
-94.15
-100.29
-101.08
-95.23
-82.83
-65.34
-45.05
-24.38
-5.22
11.36
25.01
35.69
43.41
48.15
50.0
49.37
47.09
44.15
41.5
39.73
38.92
38.8
39.01
39.25
39.4
39.37
39.03
38.14
36.44
33.84
30.49
26.73
22.88
19.06
15.15
10.91
6.18
1.05
-4.18
-9.15
-13.59
-17.54
-21.29
-25.29
-30.01
-35.88
-43.14
-51.73
-61.07
-69.95
-76.66
-79.35
-76.6
-67.97
-54.14
-36.81
-18.07
0.08
16.21
29.57
39.89
47.21
51.71
53.62
53.29
51.26
48.17
44.74
41.57
39.06
37.34
36.31
35.7
35.2
34.52
33.44
31.79
29.5
26.53
22.88
18.61
13.78
8.45
2.68
-3.41
-9.69
-15.88
-21.74
-27.01
-31.59
-35.54
-39.13
-42.78
-46.96
-52.18
-58.9
-67.28
-76.98
-86.92
-95.3
-99.96
-99.04
-91.62
-78.13
-60.2
-40.15
-20.26
-2.23
13.07
25.44
35.07
42.2
47.0
49.65
50.43
49.82
48.52
47.29
46.74
47.14
48.36
49.96
51.5
52.69
53.55
54.23
54.78
54.93
54.12
51.78
47.65
42.01
35.61
29.4
24.01
19.59
15.75
11.84
7.32
1.98
-3.97
-10.14
-16.08
-21.53
-26.41
-30.9
-35.33
-40.28
-46.38
-54.18
-63.73
-74.24
-84.02
-90.74
-92.15
-86.89
-74.98
-57.82
-37.69
-16.98
2.43
19.42
33.49
44.47
52.28
56.98
58.79
58.3
56.33
53.82
51.58
50.06
49.39
49.37
49.61
49.67
49.17
47.9
45.74
42.68
38.77
34.07
28.71
22.91
16.96
11.11
5.54
0.25
-4.89
-10.07
-15.39
-20.81
-26.16
-31.21
-35.78
-39.9
-43.77
-47.86
-52.77
-59.05
-66.88
-75.79
-84.49
-91.06
-93.44
-90.01
-80.21
-64.71
-45.24
-24.1
-3.46
15.02
30.38
42.32
50.88
56.29
58.87
59.03
57.31
54.42
51.16
48.28
46.27
45.28
45.07
45.16
45.06
44.42
43.18
41.47
39.46
37.23
34.64
31.43
27.39
22.5
17.03
11.42
6.19
1.6
-2.27
-5.62
-8.81
-12.11
-15.78
-19.92
-24.51
-29.41
-34.42
-39.22
-43.54
-47.29
-50.66
-54.23
-58.81
-65.12
-73.43
-83.15
-92.76
-100.08
-102.8
-99.15
-88.54
-71.75
-50.72
-28.02
-6.08
13.31
29.26
41.68
50.87
57.21
60.98
62.4
61.77
59.68
56.93
54.36
52.62
51.93
52.06
52.53
52.86
52.75
52.17
51.25
50.1
48.62
46.58
43.7
39.81
34.95
29.39
23.5
17.6
11.98
6.78
2.13
-1.95
-5.55
-8.94
-12.48
-16.52
-21.2
-26.36
-31.64
-36.58
-40.95
-44.8
-48.5
-52.59
-57.6
-63.94
-71.68
-80.38
-89.0
-95.89
-99.11
-96.93
-88.43
-73.85
-54.64
-33.04
-11.43
8.25
24.82
37.86
47.47
53.96
57.69
58.99
58.34
56.34
53.66
50.98
48.72
47.0
45.66
44.44
43.19
41.9
40.62
39.36
37.88
35.87
32.96
29.02
24.15
18.68
12.97
7.37
2.06
-2.9
-7.45
-11.63
-15.45
-18.9
-22.01
-24.81
-27.46
-30.23
-33.54
-37.9
-43.75
-51.19
-59.77
-68.34
-75.17
-78.28
-75.97
-67.37
-52.81
-33.79
-12.59
8.36
27.12
42.6
54.47
62.92
68.32
70.97
71.15
69.21
65.7
61.35
57.02
53.41
50.9
49.45
48.63
47.89
46.75
45.05
42.95
40.8
38.83
36.98
34.85
31.94
27.95
22.92
17.29
11.62
6.34
1.61
-2.72
-6.91
-11.28
-15.98
-21.06
-26.44
-31.9
-37.25
-42.32
-47.07
-51.65
-56.37
-61.6
-67.76
-75.14
-83.74
-93.01
-101.75
-108.11
-110.02
-105.82
-94.91
-78.05
-57.18
-34.81
-13.22
6.04
22.31
35.53
45.9
53.54
58.49
60.82
60.83
59.17
56.7
54.37
52.85
52.37
52.67
53.19
53.37
52.9
51.82
50.43
49.06
47.89
46.8
45.5
43.61
40.86
37.16
32.6
27.44
22.02
16.75
11.94
7.73
3.98
0.31
-3.82
-8.85
-14.97
-21.95
-29.29
-36.35
-42.65
-48.05
-52.8
-57.44
-62.67
-69.09
-76.98
-86.0
-95.12
-102.67
-106.61
-105.16
-97.34
-83.4
-64.77
-43.67
-22.42
-2.88
13.86
27.48
38.03
45.72
50.69
53.11
53.31
51.84
49.51
47.1
45.2
44.06
43.63
43.7
44.06
44.56
45.04
45.28
44.9
43.53
40.92
37.11
32.41
27.28
22.07
16.94
11.79
6.44
0.8
-5.08
-10.96
-16.59
-21.83
-26.65
-31.26
-35.89
-40.96
-46.9
-54.15
-62.87
-72.64
-82.24
-89.78
-93.07
-90.4
-81.13
-65.98
-46.89
-26.34
-6.7
10.32
23.91
34.0
41.01
45.51
48.06
49.02
48.66
47.2
44.98
42.51
40.41
39.18
39.05
39.82
40.94
41.74
41.71
40.61
38.49
35.53
31.93
27.76
23.05
17.78
12.0
5.82
-0.57
-6.92
-13.04
-18.74
-23.95
-28.66
-32.97
-37.06
-41.29
-46.17
-52.22
-59.74
-68.38
-77.01
-83.74
-86.45
-83.42
-74.0
-58.88
-39.79
-19.03
1.23
19.42
34.68
46.7
55.54
61.37
64.42
65.06
63.82
61.45
58.73
56.38
54.77
53.87
53.27
52.44
50.97
48.75
46.04
43.21
40.48
37.74
34.5
30.15
24.15
16.44
7.49
-1.82
-10.5
-17.8
-23.5
-28.0
-32.09
-36.67
-42.52
-50.04
-59.15
-69.29
-79.29
-87.56
-92.27
-91.82
-85.38
-73.26
-56.87
-38.39
-20.11
-3.87
9.27
18.96
25.29
28.56
29.17
27.65
24.68
21.07
17.55
14.63
12.53
11.2
10.53
10.37
10.7
11.4
12.23
12.79
12.61
11.27
8.58
4.58
-0.47
-6.14
-12.0
-17.6
-22.66
-27.12
-31.29
-35.77
-41.35
-48.55
-57.18
-66.16
-73.56
-77.17
-75.17
-66.79
-52.54
-34.1
-13.75
6.23
24.02
38.47
49.12
55.96
59.37
59.93
58.32
55.3
51.64
48.03
45.03
43.08
42.33
42.7
43.79
44.98
45.59
45.03
42.98
39.45
34.68
29.03
22.86
16.48
10.12
3.99
-1.81
-7.33
-12.93
-19.18
-26.63
-35.45
-44.99
-53.79
-59.79
-61.06
-56.45
-46.08
-31.34
-14.43
2.32
17.03
28.56
36.43
40.66
41.42
39.1
34.25
27.66
20.37
13.51
8.02
4.48
2.94
2.9
3.57
4.04
3.6
1.97
-0.72
-4.01
-7.42
-10.67
-13.77
-16.93
-20.48
-24.69
-29.75
-35.72
-42.5
-49.69
-56.34
-61.0
-61.94
-57.62
-47.44
-32.0
-13.19
6.41
24.31
38.72
48.92
55.04
57.7
57.5
54.93
50.39
44.42
37.86
31.69
26.84
23.81
22.55
22.5
22.81
22.62
21.29
18.54
14.45
9.37
3.8
-1.83
-7.25
-12.45
-17.66
-23.27
-29.7
-37.21
-45.74
-54.75
-63.07
-69.02
-70.76
-66.79
-56.54
-40.77
-21.37
-1.04
17.61
32.61
43.05
49.0
51.13
50.3
47.29
42.72
37.22
31.58
26.67
23.23
21.65
21.66
22.51
23.19
22.93
21.46
19.03
16.13
13.15
10.16
6.93
3.08
-1.65
-7.25
-13.49
-19.98
-26.36
-32.39
-37.91
-42.89
-47.39
-51.63
-55.96
-60.88
-66.87
-74.1
-82.15
-89.8
-95.21
-96.35
-91.63
-80.42
-63.32
-42.02
-18.81
4.02
24.58
41.7
54.9
64.21
70.02
72.86
73.24
71.67
68.68
64.87
60.94
57.57
55.23
54.01
53.56
53.32
52.74
51.48
49.5
46.92
43.82
40.17
35.91
31.04
25.74
20.33
15.09
10.17
5.47
0.86
-3.76
-8.28
-12.45
-16.11
-19.33
-22.5
-26.28
-31.35
-38.14
-46.56
-55.84
-64.5
-70.72
-72.66
-69.06
-59.66
-45.36
-27.97
-9.73
7.39
22.02
33.57
42.02
47.6
50.49
50.89
49.08
45.52
41.02
36.54
32.96
30.83
30.19
30.6
31.35
31.78
31.48
30.42
28.81
26.89
24.75
22.22
18.96
14.63
9.16
2.87
-3.64
-9.61
-14.45
-17.96
-20.4
-22.44
-24.94
-28.71
-34.28
-41.73
-50.62
-59.97
-68.25
-73.59
-74.22
-68.96
-57.71
-41.61
-22.78
-3.75
13.37
27.26
37.63
44.75
49.07
50.86
50.26
47.52
43.22
38.26
33.63
30.06
27.77
26.53
25.94
25.69
25.65
25.8
25.99
25.82
24.72
22.14
17.91
12.31
6.04
-0.11
-5.57
-10.17
-14.11
-17.79
-21.53
-25.46
-29.47
-33.37
-36.99
-40.32
-43.42
-46.45
-49.61
-53.23
-57.71
-63.34
-69.93
-76.49
-81.31
-82.24
-77.57
-66.68
-50.39
-30.67
-10.01
9.45
26.32
40.1
50.8
58.59
63.56
65.77
65.43
62.98
59.2
54.99
51.13
48.12
46.07
44.78
43.91
43.17
42.43
41.69
41.01
40.28
39.19
37.24
33.96
29.17
23.14
16.56
10.27
4.95
0.79
-2.48
-5.47
-8.79
-12.74
-17.18
-21.69
-25.74
-29.03
-31.6
-33.83
-36.34
-39.8
-44.74
-51.35
-59.27
-67.49
-74.37
-77.98
-76.59
-69.26
-56.21
-38.82
-19.3
-0.04
16.96
30.51
40.23
46.32
49.34
49.89
48.57
45.96
42.67
39.27
36.28
33.99
32.52
31.76
31.5
31.54
31.73
32.0
32.22
32.19
31.6
30.13
27.5
23.65
18.79
13.34
7.8
2.61
-2.04
-6.24
-10.24
-14.39
-18.84
-23.45
-27.84
-31.56
-34.4
-36.59
-38.81
-41.97
-46.86
-53.74
-62.13
-70.79
-77.9
-81.54
-80.14
-72.98
-60.45
-43.98
-25.64
-7.64
8.35
21.44
31.54
39.02
44.31
47.61
49.01
48.59
46.66
43.85
40.94
38.62
37.29
36.95
37.28
37.83
38.15
37.98
37.19
35.78
33.86
31.51
28.82
25.79
22.36
18.47
14.12
9.47
4.83
0.55
-3.1
-6.07
-8.58
-11.01
-13.76
-17.12
-21.17
-25.81
-30.81
-35.87
-40.64
-44.88
-48.49
-51.67
-54.96
-59.09
-64.75
-72.17
-80.84
-89.42
-95.98
-98.53
-95.52
-86.43
-71.84
-53.34
-33.06
-13.17
4.61
19.27
30.51
38.57
43.89
46.94
48.11
47.7
46.07
43.77
41.39
39.51
38.48
38.36
38.9
39.77
40.6
41.22
41.54
41.49
40.94
39.69
37.5
34.23
29.98
25.01
19.78
14.73
10.13
6.06
2.33
-1.34
-5.24
-9.53
-14.22
-19.2
-24.32
-29.46
-34.49
-39.37
-44.07
-48.7
-53.43
-58.65
-64.77
-72.04
-80.26
-88.53
-95.28
-98.58
-96.75
-88.87
-75.23
-57.27
-37.14
-17.15
0.86
15.75
27.13
35.06
39.86
41.95
41.83
40.08
37.37
34.44
31.93
30.26
29.56
29.73
30.5
31.59
32.72
33.6
33.99
33.65
32.38
30.15
27.06
23.35
19.26
14.92
10.31
5.35
0.03
-5.54
-11.06
-16.23
-20.85
-24.95
-28.76
-32.62
-36.96
-42.19
-48.59
-56.2
-64.51
-72.33
-77.88
-79.19
-74.74
-64.14
-48.31
-29.32
-9.65
8.61
24.23
36.89
46.78
54.13
58.86
60.78
59.88
56.65
52.08
47.42
43.68
41.32
40.16
39.65
39.27
38.76
38.23
37.94
37.96
38.07
37.72
36.31
33.41
28.97
23.34
17.18
11.24
6.07
1.91
-1.37
-4.2
-7.14
-10.65
-14.93
-19.84
-24.96
-29.82
-34.12
-37.88
-41.49
-45.59
-50.9
-57.91
-66.68
-76.5
-85.9
-92.75
-94.79
-90.4
-79.08
-61.86
-40.91
-18.86
1.94
19.93
34.42
45.37
52.95
57.41
59.05
58.35
55.97
52.76
49.52
46.79
44.84
43.63
42.98
42.63
42.32
41.85
41.02
39.7
37.78
35.19
31.86
27.85
23.3
18.43
13.49
8.68
4.05
-0.5
-5.14
-9.96
-14.92
-19.8
-24.35
-28.4
-32.01
-35.54
-39.56
-44.69
-51.35
-59.51
-68.4
-76.59
-82.18
-83.31
-78.74
-68.26
-52.8
-34.16
-14.51
4.16
20.46
33.7
43.7
50.59
54.56
55.76
54.46
51.19
46.8
42.36
38.91
37.03
36.73
37.42
38.25
38.53
37.93
36.53
34.61
32.35
29.69
26.38
22.15
16.9
10.75
4.03
-2.81
-9.38
-15.38
-20.65
-25.25
-29.42
-33.62
-38.39
-44.35
-51.86
-60.81
-70.38
-79.06
-84.91
-86.04
-81.15
-70.03
-53.63
-33.87
-13.07
6.6
23.55
36.96
46.62
52.73
55.64
55.73
53.51
49.62
44.94
40.43
36.94
34.93
34.35
34.74
35.41
35.77
35.57
34.82
33.63
32.04
29.92
27.07
23.44
19.21
14.8
10.59
6.74
3.09
-0.77
-5.21
-10.31
-15.79
-21.12
-25.82
-29.71
-32.98
-36.2
-40.07
-45.28
-52.29
-61.11
-71.11
-80.92
-88.61
-92.04
-89.47
-80.16
-64.72
-45.01
-23.56
-2.9
15.1
29.53
40.26
47.66
52.18
54.21
54.06
52.07
48.74
44.77
40.91
37.83
35.93
35.22
35.37
35.81
35.96
35.36
33.8
31.29
27.97
24.02
19.61
14.86
9.9
4.81
-0.35
-5.51
-10.57
-15.4
-19.78
-23.54
-26.67
-29.4
-32.17
-35.57
-40.1
-46.11
-53.58
-62.02
-70.34
-76.89
-79.79
-77.36
-68.71
-54.16
-35.24
-14.22
6.51
25.03
40.25
51.76
59.63
64.08
65.45
64.16
60.86
56.4
51.72
47.69
44.94
43.73
43.91
44.95
46.15
46.8
46.44
44.9
42.34
39.01
35.17
30.9
26.22
21.18
15.92
10.65
5.52
0.55
-4.33
-9.16
-13.85
-18.12
-21.71
-24.53
-26.83
-29.16
-32.32
-37.04
-43.7
-52.03
-60.91
-68.49
-72.55
-71.07
-63.04
-48.75
-29.95
-9.17
10.96
28.46
42.33
52.52
59.43
63.53
65.18
64.62
62.23
58.62
54.62
51.01
48.25
46.36
44.96
43.62
42.06
40.36
38.81
37.62
36.7
35.56
33.54
30.12
25.24
19.36
13.3
7.88
3.52
0.11
-2.92
-6.25
-10.35
-15.28
-20.72
-26.17
-31.17
-35.58
-39.55
-43.5
-47.99
-53.6
-60.78
-69.63
-79.64
-89.55
-97.46
-101.22
-99.05
-90.22
-75.3
-56.06
-34.92
-14.3
3.97
18.89
30.2
38.07
42.87
44.93
44.63
42.4
38.88
34.86
31.18
28.49
27.06
26.76
27.1
27.54
27.62
27.12
25.99
24.26
21.93
18.99
15.47
11.52
7.29
2.92
-1.56
-6.19
-10.92
-15.59
-19.9
-23.6
-26.61
-29.09
-31.38
-33.85
-36.92
-40.92
-46.2
-52.85
-60.46
-67.81
-72.95
-73.6
-68.04
-55.82
-38.09
-17.3
3.69
22.48
37.71
49.13
57.12
62.24
64.92
65.4
64.02
61.44
58.54
56.17
54.9
54.77
55.34
55.99
56.25
55.93
55.13
54.0
52.54
50.52
47.61
43.56
38.37
32.3
25.73
19.1
12.66
6.55
0.75
-4.83
-10.29
-15.69
-21.0
-26.09
-30.79
-34.95
-38.61
-42.01
-45.67
-50.25
-56.35
-64.18
-73.37
-82.69
-90.34
-94.18
-92.45
-84.27
-70.01
-51.17
-30.0
-8.79
10.58
26.91
39.71
48.96
54.91
57.94
58.52
57.23
54.74
51.73
48.82
46.43
44.71
43.62
42.95
42.52
42.21
41.96
41.72
41.31
40.43
38.67
35.66
31.26
25.68
19.41
13.08
7.19
1.96
-2.73
-7.2
-11.83
-16.86
-22.31
-28.0
-33.61
-38.86
-43.59
-47.84
-51.94
-56.46
-62.01
-69.0
-77.23
-85.64
-92.42
-95.46
-93.0
-84.28
-69.82
-51.28
-30.9
-10.89
7.1
22.1
33.73
42.01
47.1
49.28
48.98
46.81
43.5
39.88
36.63
34.24
32.87
32.38
32.41
32.5
32.18
31.15
29.29
26.68
23.53
20.07
16.46
12.72
8.74
4.41
-0.36
-5.52
-10.88
-16.19
-21.22
-25.82
-29.99
-33.84
-37.63
-41.71
-46.52
-52.49
-59.78
-68.0
-76.06
-82.21
-84.49
-81.25
-71.82
-56.77
-37.84
-17.42
2.16
19.13
32.59
42.42
48.93
52.6
53.89
53.24
51.14
48.24
45.25
42.84
41.39
40.85
40.85
40.83
40.39
39.42
38.11
36.82
35.7
34.6
33.08
30.6
26.82
21.84
16.14
10.45
5.44
1.39
-1.82
-4.69
-7.82
-11.66
-16.35
-21.66
-27.16
-32.38
-37.01
-41.06
-44.8
-48.78
-53.62
-59.92
-67.87
-77.02
-86.06
-93.02
-95.69
-92.31
-82.25
-66.2
-46.02
-24.12
-2.79
16.29
32.19
44.59
53.49
59.07
61.58
61.4
59.13
55.6
51.7
48.21
45.61
43.94
42.91
42.08
41.06
39.69
37.95
35.93
33.61
30.78
27.15
22.48
16.82
10.51
4.13
-1.81
-7.05
-11.62
-15.81
-19.94
-24.19
-28.51
-32.73
-36.65
-40.21
-43.54
-46.97
-50.94
-55.95
-62.35
-70.12
-78.62
-86.46
-91.68
-92.29
-86.86
-75.16
-58.21
-38.06
-17.12
2.53
19.49
33.11
43.24
49.95
53.41
53.89
51.91
48.24
43.84
39.69
36.52
34.76
34.46
35.37
36.96
38.58
39.58
39.44
37.92
35.08
31.23
26.79
22.11
17.35
12.53
7.61
2.58
-2.5
-7.51
-12.32
-16.95
-21.43
-25.84
-30.22
-34.58
-39.03
-43.83
-49.37
-56.14
-64.31
-73.42
-82.22
-88.74
-90.85
-86.91
-76.37
-60.02
-39.71
-17.81
3.44
22.36
38.0
49.94
58.14
62.8
64.27
63.15
60.22
56.41
52.61
49.53
47.58
46.8
46.97
47.67
48.45
48.99
49.13
48.78
47.88
46.25
43.56
39.55
34.14
27.68
20.85
14.5
9.22
5.15
1.87
-1.34
-5.12
-9.73
-14.91
-20.11
-24.75
-28.55
-31.69
-34.68
-38.24
-43.09
-49.76
-58.35
-68.35
-78.49
-86.82
-91.11
-89.44
-80.9
-65.96
-46.34
-24.52
-3.05
16.14
31.96
44.09
52.66
57.93
60.21
59.82
57.22
53.11
48.32
43.7
39.92
37.33
35.9
35.37
35.33
35.37
35.15
34.38
32.81
30.25
26.61
22.02
16.75
11.24
5.87
0.93
-3.5
-7.53
-11.29
-14.96
-18.61
-22.26
-25.86
-29.38
-32.84
-36.4
-40.4
-45.27
-51.43
-58.89
-66.94
-74.18
-78.63
-78.36
-72.15
-59.94
-42.89
-23.09
-2.93
15.57
31.07
43.08
51.66
57.17
59.98
60.44
58.88
55.8
51.92
48.02
44.87
42.96
42.39
42.82
43.66
44.26
44.09
42.85
40.47
37.08
32.86
27.99
22.57
16.73
10.59
4.35
-1.78
-7.56
-12.9
-17.81
-22.41
-26.84
-31.2
-35.54
-39.95
-44.69
-50.19
-56.81
-64.62
-72.99
-80.5
-85.17
-85.04
-78.83
-66.44
-49.05
-28.77
-7.99
11.16
27.31
39.79
48.56
53.9
56.25
56.11
54.02
50.69
46.84
43.18
40.25
38.36
37.46
37.32
37.58
37.89
37.99
37.69
36.82
35.19
32.62
29.04
24.59
19.62
14.59
9.83
5.4
1.01
-3.77
-9.26
-15.44
-21.9
-28.04
-33.36
-37.71
-41.37
-44.96
-49.29
-55.06
-62.62
-71.74
-81.42
-89.95
-95.23
-95.28
-88.98
-76.42
-58.98
-38.89
-18.6
-0.14
15.27
27.15
35.5
40.49
42.29
41.15
37.56
32.38
26.78
21.89
18.58
17.07
16.97
17.51
17.87
17.49
16.23
14.26
11.83
9.13
6.16
2.76
-1.29
