0
15.72
10.99
6.26
1.06
-4.83
-11.24
-17.61
-23.32
-27.96
-31.59
-34.69
-38.18
-43.02
-50.03
-59.53
-70.86
-82.29
-91.09
-94.23
-89.4
-75.96
-55.41
-30.98
-6.62
14.38
30.2
40.71
46.92
50.18
51.44
51.12
49.28
46.08
41.99
37.84
34.47
32.53
32.21
33.25
35.08
37.06
38.57
39.22
38.81
37.32
34.92
31.77
28.07
23.86
19.15
13.9
8.21
2.29
-3.54
-8.92
-13.72
-17.97
-21.98
-26.17
-30.94
-36.66
-43.62
-52.0
-61.71
-72.19
-82.08
-89.25
-91.23
-86.0
-72.88
-53.13
-29.64
-6.04
14.43
29.99
40.5
46.98
50.65
52.29
51.97
49.46
44.82
38.79
32.71
28.03
25.73
25.86
27.7
30.07
31.92
32.67
32.3
31.18
29.7
28.0
25.91
23.03
18.92
13.4
6.71
-0.49
-7.34
-13.11
-17.49
-20.81
-23.81
-27.44
-32.46
-39.3
-47.95
-58.01
-68.5
-77.85
-83.96
-84.6
-78.17
-64.49
-45.09
-22.84
-1.13
17.34
31.24
40.66
46.58
50.07
51.72
51.51
49.27
45.09
39.68
34.22
29.95
27.68
27.46
28.7
30.41
31.77
32.29
31.95
30.99
29.66
28.06
26.05
23.33
19.6
14.69
8.67
1.96
-4.84
-11.06
-16.27
-20.44
-23.98
-27.61
-32.13
-38.21
-46.17
-56.05
-67.32
-78.82
-88.63
-94.32
-93.55
-84.94
-68.75
-47.03
-23.09
-0.46
18.27
32.07
41.42
47.67
52.11
55.4
57.5
57.93
56.39
53.18
49.2
45.63
43.43
43.0
43.99
45.65
47.12
47.87
47.79
47.05
45.85
44.33
42.41
39.97
36.88
33.05
28.45
23.15
17.29
11.13
5.03
-0.66
-5.74
-10.25
-14.47
-18.93
-24.25
-30.97
-39.21
-48.38
-56.97
-62.78
-63.36
-56.82
-42.75
-22.38
1.45
25.21
45.74
61.0
70.5
74.91
75.49
73.48
69.79
65.05
59.89
55.1
51.6
50.07
50.6
52.51
54.52
55.21
53.48
48.8
41.11
30.71
17.91
3.12
-13.13
-30.08
-46.78
-62.32
-76.06
-87.84
-97.85
-106.49
-114.07
-120.68
-126.14
-130.1
-132.28
-132.63
-131.43
-129.33
-127.26
-126.13
-126.53
-128.27
-130.05
-129.61
-124.19
-111.58
-91.05
-63.95
-33.4
-3.3
22.89
43.27
57.73
67.39
73.69
77.57
79.26
78.63
75.68
71.01
65.72
61.12
58.18
57.27
58.08
59.86
61.7
62.86
62.89
61.67
59.27
55.93
51.86
47.27
42.29
37.01
31.47
25.72
19.86
14.02
8.3
2.77
-2.53
-7.67
-12.75
-17.95
-23.52
-29.8
-37.17
-45.8
-55.56
-65.54
-74.03
-78.73
-77.45
-68.92
-53.44
-33.05
-10.87
9.83
26.68
38.75
46.42
50.72
52.61
52.55
50.64
46.97
42.08
36.96
32.85
30.71
30.87
32.87
35.67
38.13
39.36
38.96
37.05
34.09
30.61
27.07
23.71
20.49
17.13
13.34
8.91
3.91
-1.35
-6.47
-11.14
-15.33
-19.25
-23.27
-27.8
-33.15
-39.55
-47.2
-56.08
-65.67
-74.63
-80.82
-81.8
-75.67
-62.01
-42.3
-19.57
2.57
21.15
34.66
43.17
47.76
49.65
49.62
47.87
44.39
39.43
33.82
28.78
25.5
24.63
26.0
28.65
31.39
33.16
33.47
32.47
30.64
28.5
26.34
24.08
21.41
17.98
13.55
8.19
2.2
-3.96
-9.86
-15.19
-19.92
-24.23
-28.48
-33.14
-38.67
-45.51
-53.94
-63.87
-74.54
-84.36
-90.96
-91.9
-85.42
-71.32
-51.16
-27.94
-5.09
14.65
29.84
40.5
47.49
51.79
53.98
54.06
51.93
47.72
42.13
36.35
31.67
29.04
28.66
30.06
32.24
34.18
35.15
34.89
33.55
31.45
28.85
25.85
22.36
18.3
13.64
8.5
3.09
-2.41
-7.82
-13.04
-18.02
-22.72
-27.25
-31.86
-36.98
-43.18
-50.99
-60.55
-71.38
-82.08
-90.44
-93.93
-90.43
-79.09
-60.74
-37.84
-13.82
8.04
25.5
37.78
45.33
49.31
50.84
50.6
48.87
45.81
41.82
37.63
34.12
32.0
31.56
32.5
34.14
35.75
36.81
37.11
36.69
35.66
34.03
31.7
28.59
24.71
20.24
15.39
10.37
5.21
-0.1
-5.54
-10.94
-16.08
-20.75
-24.97
-29.04
-33.4
-38.56
-44.98
-52.93
-62.36
-72.73
-82.65
-89.94
-92.04
-86.76
-73.38
-53.12
-29.07
-5.09
15.46
30.78
40.86
46.93
50.46
52.35
52.76
51.48
48.45
44.22
39.85
36.43
34.64
34.48
35.47
36.94
38.35
39.39
39.9
39.73
38.64
36.35
32.75
28.03
22.66
17.23
12.14
7.49
3.03
-1.65
-6.83
-12.44
-18.14
-23.42
-27.87
-31.47
-34.56
-37.85
-42.11
-48.03
-55.98
-65.73
-76.27
-85.7
-91.51
-91.19
-83.14
-67.42
-45.88
-21.75
1.4
20.74
34.87
43.87
48.78
50.89
51.16
50.08
47.84
44.63
40.91
37.28
34.36
32.59
32.02
32.41
33.39
34.56
35.65
36.42
36.59
35.84
33.87
30.61
26.32
21.55
16.95
12.95
9.64
6.65
3.41
-0.52
-5.32
-10.77
-16.36
-21.67
-26.51
-31.02
-35.61
-40.86
-47.29
-55.26
-64.76
-75.07
-84.58
-90.85
-91.23
-83.76
-68.14
-46.16
-21.29
2.48
21.98
35.79
44.26
48.82
50.92
51.28
49.9
46.45
41.05
34.59
28.52
24.34
22.87
23.98
26.67
29.55
31.5
31.98
31.12
29.43
27.44
25.44
23.37
20.97
17.87
13.74
8.52
2.39
-4.16
-10.47
-15.97
-20.35
-23.77
-26.77
-30.14
-34.63
-40.72
-48.46
-57.52
-67.0
-75.45
-80.96
-81.5
-75.55
-62.78
-44.43
-23.08
-1.91
16.39
30.24
39.52
44.95
47.42
47.51
45.33
40.98
34.96
28.39
22.66
18.98
17.8
18.72
20.74
22.7
23.88
24.1
23.74
23.2
22.71
21.97
20.34
17.14
12.04
5.35
-2.08
-9.09
-14.81
-18.98
-22.13
-25.34
-29.79
-36.36
-45.32
-56.22
-67.85
-78.37
-85.43
-86.75
-80.74
-67.21
-47.65
-24.97
-2.59
16.66
31.16
40.85
46.58
49.44
50.11
48.81
45.55
40.6
34.81
29.37
25.45
23.7
23.97
25.4
26.86
27.45
26.81
25.2
23.15
21.12
19.16
16.91
13.72
9.07
2.89
-4.33
-11.67
-18.17
-23.22
-26.91
-29.93
-33.46
-38.66
-46.26
-56.35
-68.21
-80.31
-90.4
-95.97
-94.84
-85.86
-69.51
-47.94
-24.45
-2.41
15.7
28.98
37.94
43.78
47.64
50.02
50.82
49.73
46.85
42.8
38.68
35.51
33.83
33.54
33.95
34.27
33.92
32.73
30.98
29.07
27.27
25.51
23.32
20.11
15.42
9.23
2.02
-5.36
-11.98
-17.27
-21.2
-24.27
-27.33
-31.26
-36.8
-44.29
-53.68
-64.27
-74.62
-82.68
-86.14
-83.18
-73.2
-57.13
-37.35
-16.8
1.93
17.31
29.14
38.06
44.87
49.99
53.28
54.3
52.81
49.2
44.4
39.71
36.24
34.55
34.51
35.47
36.57
37.09
36.71
35.49
33.71
31.68
29.5
27.03
23.91
19.82
14.65
8.63
2.28
-3.74
-8.96
-13.26
-16.85
-20.28
-24.15
-29.08
-35.48
-43.56
-53.07
-63.17
-72.32
-78.45
-79.44
-73.88
-61.66
-44.21
-24.11
-4.28
12.99
26.58
36.58
43.8
49.01
52.5
54.08
53.41
50.54
46.19
41.55
37.9
36.04
36.08
37.45
39.2
40.47
40.74
39.93
38.29
36.19
33.88
31.44
28.72
25.46
21.43
16.56
11.09
5.48
0.22
-4.41
-8.46
-12.32
-16.53
-21.54
-27.63
-34.86
-43.22
-52.51
-62.21
-71.2
-77.73
-79.74
-75.59
-64.81
-48.5
-29.07
-9.51
7.72
21.28
31.09
37.81
42.16
44.38
44.35
42.02
37.79
32.78
28.44
26.01
25.92
27.67
30.09
31.97
32.59
32.01
30.8
29.65
28.93
28.45
27.63
25.77
22.46
17.75
12.13
6.29
0.83
-4.01
-8.35
-12.65
-17.45
-23.21
-30.2
-38.48
-47.82
-57.62
-66.61
-73.01
-74.76
-70.3
-59.23
-42.68
-23.11
-3.51
13.61
26.89
36.27
42.41
46.05
47.53
46.77
43.64
38.46
32.2
26.29
22.13
20.59
21.66
24.52
27.9
30.64
31.97
31.75
30.27
28.03
25.49
22.87
20.14
17.07
13.37
8.83
3.48
-2.45
-8.52
-14.28
-19.46
-24.07
-28.42
-32.96
-38.21
-44.6
-52.4
-61.6
-71.6
-81.09
-87.98
-89.87
-84.85
-72.34
-53.57
-31.31
-9.02
10.33
25.11
35.21
41.56
45.38
47.49
48.07
46.98
44.18
40.08
35.55
31.63
29.12
28.33
28.98
30.44
31.98
33.03
33.32
32.81
31.63
29.91
27.72
25.02
21.69
17.61
12.75
7.24
1.43
-4.27
-9.5
-14.11
-18.22
-22.16
-26.36
-31.29
-37.36
-44.89
-53.9
-63.89
-73.54
-80.83
-83.41
-79.37
-68.12
-50.69
-29.61
-8.1
11.02
26.06
36.73
43.74
48.07
50.41
50.87
49.25
45.53
40.22
34.38
29.35
26.24
25.46
26.62
28.75
30.69
31.54
30.96
29.18
26.73
24.19
21.86
19.67
17.22
14.05
9.87
4.76
-0.81
-6.22
-10.92
-14.77
-18.06
-21.45
-25.57
-30.98
-37.85
-46.14
-55.41
-64.79
-72.88
-77.8
-77.62
-71.01
-57.89
-39.63
-18.84
1.54
19.03
32.32
41.27
46.47
48.61
48.06
45.02
39.72
32.92
25.87
20.02
16.51
15.71
17.1
19.59
21.99
23.54
24.11
23.99
23.58
23.02
22.04
20.08
16.63
11.56
5.29
-1.35
-7.42
-12.31
-16.01
-19.13
-22.66
-27.58
-34.56
-43.64
-54.23
-65.06
-74.31
-79.82
-79.64
-72.61
-58.87
-40.02
-18.79
1.82
19.39
32.71
41.8
47.36
50.15
50.53
48.5
44.1
37.84
30.84
24.56
20.29
18.56
18.99
20.54
22.02
22.64
22.24
21.23
20.15
19.28
18.35
16.71
13.63
8.72
2.19
-5.17
-12.26
-18.2
-22.63
-25.85
-28.74
-32.37
-37.63
-45.02
-54.49
-65.36
-76.36
-85.64
-90.94
-90.15
-81.97
-66.53
-45.66
-22.45
-0.3
18.12
31.53
40.15
44.99
47.16
47.3
45.55
41.98
36.99
31.55
26.86
24.03
23.42
24.61
26.62
28.29
28.84
28.11
26.5
24.66
23.06
21.73
20.13
17.47
13.1
6.91
-0.53
-8.15
-14.88
-20.02
-23.62
-26.34
-29.16
-33.03
-38.58
-46.06
-55.34
-65.84
-76.3
-84.84
-89.08
-86.81
-76.85
-59.65
-37.5
-13.78
8.03
25.51
37.81
45.49
49.85
51.98
52.4
51.06
47.84
43.03
37.5
32.5
29.09
27.76
28.18
29.47
30.61
30.89
30.17
28.8
27.31
26.09
25.05
23.68
21.22
17.07
11.14
4.0
-3.36
-9.87
-14.89
-18.45
-21.15
-23.99
-27.84
-33.34
-40.7
-49.72
-59.71
-69.39
-76.84
-79.88
-76.69
-66.57
-50.35
-30.35
-9.57
9.22
24.28
35.16
42.33
46.53
48.22
47.45
44.25
39.02
32.74
26.84
22.66
20.89
21.31
22.91
24.46
25.07
24.53
23.23
21.81
20.62
19.52
17.95
15.28
11.19
5.93
0.17
-5.32
-10.0
-13.83
-17.31
-21.16
-26.11
-32.65
-40.84
-50.23
-59.77
-67.82
-72.44
-71.76
-64.66
-51.35
-33.4
-13.43
5.73
21.91
34.07
42.3
47.26
49.57
49.55
47.23
42.8
36.94
30.81
25.78
22.89
22.43
23.87
26.12
28.0
28.75
28.16
26.61
24.67
22.75
20.86
18.55
15.22
10.48
4.4
-2.42
-9.08
-14.78
-19.2
-22.57
-25.64
-29.37
-34.62
-41.92
-51.3
-62.16
-73.2
-82.45
-87.56
-86.46
-78.12
-62.95
-42.97
-21.2
-0.67
16.41
29.16
37.96
43.73
47.34
49.11
48.91
46.6
42.44
37.28
32.35
28.78
27.13
27.27
28.43
29.73
30.48
30.46
29.84
28.96
28.05
26.98
25.4
22.84
19.0
13.9
7.91
1.7
-4.07
-8.94
-12.91
-16.26
-19.6
-23.52
-28.5
-34.86
-42.7
-51.76
-61.26
-69.78
-75.37
-76.01
-70.37
-58.39
-41.54
-22.33
-3.52
12.76
25.5
34.74
41.07
45.0
46.72
46.11
43.23
38.53
33.0
27.84
24.02
21.94
21.38
21.69
22.12
22.2
21.77
21.02
20.11
19.15
18.02
16.44
14.12
10.92
6.97
2.67
-1.43
-4.86
-7.54
-9.83
-12.48
-16.35
-22.1
-30.0
-39.71
-50.28
-60.2
-67.51
-70.23
-66.84
-56.98
-41.66
-23.16
-4.29
12.47
25.62
34.82
40.5
43.28
43.57
41.57
37.51
32.0
26.08
20.95
17.57
16.29
16.76
18.18
19.67
20.62
20.88
20.64
20.21
19.7
18.89
17.25
14.25
9.73
3.99
-2.14
-7.71
-12.02
-15.01
-17.2
-19.57
-23.13
-28.58
-36.13
-45.36
-55.21
-64.03
-69.77
-70.47
-64.87
-52.92
-36.03
-16.72
2.17
18.31
30.52
38.8
43.89
46.56
47.16
45.62
41.8
36.09
29.55
23.66
19.78
18.53
19.52
21.63
23.51
24.21
23.44
21.57
19.24
17.07
15.37
14.02
12.63
10.64
7.64
3.54
-1.35
-6.47
-11.2
-15.24
-18.7
-22.06
-25.92
-30.74
-36.78
-44.05
-52.32
-61.02
-69.02
-74.61
-75.74
-70.73
-58.97
-41.38
-20.31
1.23
20.51
35.92
47.19
54.99
60.33
63.86
65.73
65.79
64.02
60.83
57.18
54.17
52.68
53.01
54.84
57.47
60.2
62.53
64.3
65.52
66.28
66.55
66.17
64.9
62.53
58.92
54.07
48.18
41.67
35.05
28.78
23.01
17.5
11.58
4.43
-4.77
-16.57
-31.11
-48.03
-66.25
-83.88
-98.26
-106.33
-105.54
-94.85
-75.33
-50.18
-23.81
-0.41
17.39
28.97
35.39
38.37
39.19
38.34
35.67
31.1
25.13
18.9
13.69
10.22
8.3
6.99
5.22
2.52
-0.71
-3.4
-4.4
-3.14
0.12
4.38
8.37
11.07
12.01
11.3
9.5
7.24
4.8
2.04
-1.64
-7.01
-14.63
-24.51
-36.13
-48.46
-60.16
-69.81
-75.93
-77.27
-73.13
-63.7
-50.29
-35.15
-20.71
-8.88
-0.45
4.79
7.52
8.15
6.6
2.5
-4.13
-12.43
-20.72
-27.07
-30.03
-29.35
-25.93
-21.32
-17.01
-13.95
-12.34
-11.89
-12.12
-12.74
-13.71
-15.22
-17.56
-20.88
-25.07
-29.67
-34.07
-37.71
-40.34
-42.24
-44.15
-46.96
-51.37
-57.65
-65.5
-74.32
-83.24
-91.23
-97.02
-99.24
-96.57
-88.25
-74.57
-56.92
-37.52
-18.81
-2.59
10.43
20.58
28.66
35.49
41.29
45.79
48.51
49.05
47.51
44.39
40.51
36.67
33.42
30.94
29.09
27.62
26.3
25.04
23.91
23.02
22.37
21.8
20.97
19.5
17.12
13.78
9.65
5.08
0.53
-3.58
-6.97
-9.57
-11.61
-13.56
-16.06
-19.74
-25.12
-32.29
-40.85
-49.71
-57.14
-61.09
-59.66
-51.87
-38.09
-20.14
-0.73
17.41
32.32
43.28
50.56
54.96
57.13
57.37
55.69
52.14
47.17
41.65
36.66
33.12
31.49
31.61
32.9
34.58
35.99
36.71
36.59
35.65
33.93
31.53
28.52
25.06
21.35
17.56
13.8
10.03
6.18
2.22
-1.82
-5.8
-9.63
-13.27
-16.89
-20.78
-25.36
-31.08
-38.27
-46.95
-56.54
-65.68
-72.35
-74.4
-70.23
-59.49
-43.37
-24.23
-4.83
12.54
26.66
37.27
44.68
49.27
51.12
50.22
46.75
41.43
35.46
30.22
26.81
25.59
26.18
27.69
29.12
29.79
29.56
28.64
27.41
26.06
24.44
22.22
19.05
14.8
9.67
4.19
-1.09
-5.75
-9.77
-13.42
-17.2
-21.62
-27.0
-33.48
-40.9
-48.83
-56.43
-62.45
-65.35
-63.72
-56.75
-44.68
-28.91
-11.58
5.03
19.27
30.32
38.21
43.3
45.86
45.95
43.56
38.96
32.9
26.62
21.51
18.62
18.3
20.08
22.86
25.36
26.67
26.51
25.22
23.42
21.61
19.85
17.77
14.8
10.55
5.05
-1.12
-7.09
-12.06
-15.66
-18.11
-20.21
-22.95
-27.28
-33.68
-42.07
-51.79
-61.6
-69.92
-74.97
-75.18
-69.56
-58.08
-41.87
-23.05
-4.18
12.48
25.54
34.67
40.34
43.32
44.18
43.15
40.27
35.81
30.55
25.69
22.48
21.64
23.02
25.69
28.35
29.97
30.24
29.51
28.46
27.56
26.8
25.68
23.51
19.81
14.62
8.38
1.86
-4.27
-9.59
-14.04
-17.87
-21.61
-25.88
-31.27
-38.21
-46.74
-56.31
-65.76
-73.28
-76.83
-74.72
-66.18
-51.83
-33.59
-14.15
3.85
18.57
29.28
36.24
40.08
41.4
40.49
37.54
32.92
27.47
22.29
18.43
16.49
16.39
17.55
19.14
20.51
21.35
21.7
21.72
21.41
20.57
18.76
15.72
11.45
6.42
1.33
-3.19
-6.93
-10.23
-13.87
-18.73
-25.37
-33.83
-43.46
-53.05
-60.87
-65.0
-63.81
-56.48
-43.47
-26.59
-8.47
8.25
21.75
31.39
37.51
40.84
41.95
41.05
38.15
33.59
28.13
22.96
19.17
17.39
17.53
18.91
20.59
21.85
22.32
22.07
21.34
20.32
18.89
16.69
13.23
8.23
1.87
-5.13
-11.83
-17.38
-21.42
-24.26
-26.75
-29.93
-34.73
-41.67
-50.74
-61.16
-71.41
-79.34
-82.64
-79.47
-69.23
-52.89
-32.82
-12.04
6.78
22.01
33.23
40.94
45.86
48.45
48.82
46.97
43.19
38.28
33.42
29.74
27.83
27.6
28.28
29.01
29.14
28.56
27.68
27.0
26.79
26.84
26.5
24.98
21.73
16.7
10.42
3.78
-2.29
-7.23
-11.04
-14.26
-17.8
-22.44
-28.67
-36.53
-45.66
-55.31
-64.31
-71.0
-73.5
-70.1
-60.05
-43.95
-23.89
-2.74
16.61
32.27
43.6
50.95
55.13
56.82
56.39
54.02
50.12
45.41
40.89
37.56
36.02
36.31
37.91
39.92
41.52
42.22
42.04
41.35
40.64
40.15
39.77
39.12
37.79
35.65
32.94
30.21
27.97
26.48
25.63
25.05
24.3
23.14
21.66
20.19
19.08
18.47
18.27
18.12
17.61
16.52
14.87
12.95
11.14
9.71
8.67
7.83
6.88
5.63
4.06
2.32
0.62
-0.93
-2.33
-3.75
-5.43
-7.59
-10.33
-13.62
-17.24
-20.87
-24.2
-26.98
-29.19
-31.12
-33.33
-36.49
-41.14
-47.29
-54.53
-61.93
-68.53
-73.74
-77.67
-81.14
-85.4
-91.78
-101.18
-113.61
-127.78
-140.99
-149.43
-149.14
-137.41
-113.96
-81.43
-44.72
-9.39
20.15
41.79
55.74
63.71
67.5
68.29
66.51
62.35
56.37
49.74
43.9
39.98
38.36
38.49
39.28
39.68
39.14
37.79
36.21
35.02
34.38
33.83
32.46
29.28
23.86
16.49
8.26
0.52
-5.57
-9.65
-12.29
-14.6
-17.92
-23.2
-30.79
-40.28
-50.58
-60.04
-66.65
-68.52
-64.31
-53.83
-38.12
-19.39
-0.29
16.85
30.52
40.26
46.33
49.31
49.68
47.79
43.96
38.74
33.0
27.78
24.03
22.18
22.05
22.91
23.83
24.15
23.71
22.77
21.69
20.53
18.96
16.37
12.25
6.5
-0.34
-7.41
-13.72
-18.7
-22.33
-25.23
-28.38
-32.88
-39.52
-48.45
-58.99
-69.59
-78.02
-81.87
-79.23
-69.34
-52.94
-32.25
-10.31
9.82
25.94
37.12
43.67
46.54
46.72
44.89
41.43
36.68
31.23
25.99
21.88
19.52
18.94
19.64
20.78
21.68
21.95
21.55
20.6
19.12
16.94
13.81
9.53
4.25
-1.56
-7.2
-12.08
-15.99
-19.24
-22.56
-26.85
-32.78
-40.56
-49.73
-58.99
-66.5
-70.18
-68.28
-60.03
-46.03
-28.18
-9.13
8.49
22.9
33.37
40.11
43.67
44.54
43.01
39.35
34.15
28.39
23.24
19.64
17.98
17.96
18.85
19.84
20.33
20.18
19.51
18.48
17.06
14.95
11.74
7.17
1.38
-5.04
-11.23
-16.49
-20.5
-23.59
-26.64
-30.71
-36.74
-45.16
-55.64
-66.97
-77.14
-83.7
-84.47
-78.19
-65.16
-47.18
-27.05
-7.58
9.22
22.5
32.47
39.72
44.65
47.31
47.53
45.35
41.29
36.41
31.91
28.82
27.54
27.77
28.68
29.36
29.17
27.98
26.12
24.06
22.09
20.16
17.78
14.41
9.74
3.87
-2.61
-8.85
-14.12
-18.0
-20.62
-22.61
-24.82
-28.11
-33.12
-40.0
-48.43
-57.57
-66.14
-72.46
-74.77
-71.64
-62.53
-48.11
-30.2
-11.31
6.23
20.91
32.33
40.83
46.95
50.94
52.58
51.59
48.03
42.61
36.67
31.66
28.67
28.05
29.35
31.58
33.6
34.58
34.15
32.48
30.09
27.54
25.21
23.04
20.75
17.88
14.17
9.63
4.61
-0.37
-4.92
-8.87
-12.44
-16.07
-20.26
-25.4
-31.65
-39.03
-47.35
-56.15
-64.57
-71.25
-74.48
-72.64
-64.81
-51.26
-33.56
-14.11
4.62
20.83
33.74
43.32
49.86
53.47
54.08
51.69
46.79
40.54
34.51
30.17
28.3
28.73
30.57
32.59
33.84
33.83
32.59
30.47
27.9
25.21
22.46
19.57
16.3
12.48
8.1
3.35
-1.41
-5.82
-9.72
-13.27
-16.88
-21.06
-26.18
-32.34
-39.47
-47.25
-55.19
-62.44
-67.7
-69.4
-66.17
-57.32
-43.33
-25.9
-7.35
9.95
24.42
35.4
43.08
47.96
50.42
50.58
48.5
44.47
39.23
33.91
29.7
27.43
27.29
28.79
31.07
33.22
34.56
34.8
33.93
32.12
29.55
26.39
22.84
19.1
15.38
11.78
8.28
4.7
0.86
-3.37
-7.88
-12.38
-16.56
-20.2
-23.34
-26.3
-29.57
-33.79
-39.49
-46.97
-56.09
-65.95
-74.84
-80.52
-80.82
-74.43
-61.52
-43.79
-23.89
-4.58
12.25
25.86
36.47
44.68
50.8
54.74
56.17
54.93
51.46
46.76
42.09
38.49
36.44
35.78
35.98
36.47
36.9
37.22
37.52
37.72
37.51
36.45
34.08
30.31
25.53
20.39
15.56
11.43
7.94
4.68
1.21
-2.71
-6.95
-11.17
-14.97
-18.22
-21.06
-23.96
-27.5
-32.2
-38.48
-46.47
-55.87
-65.74
-74.47
-79.99
-80.3
-74.14
-61.53
-43.96
-23.98
-4.44
12.37
25.32
34.48
40.57
44.4
46.33
46.26
44.03
39.85
34.59
29.56
26.02
24.66
25.34
27.22
29.23
30.57
30.89
30.32
29.18
27.75
26.17
24.38
22.22
19.55
16.28
12.45
8.13
3.55
-1.01
-5.28
-9.1
-12.49
-15.72
-19.15
-23.21
-28.26
-34.46
-41.83
-50.1
-58.58
-66.05
-70.82
-71.11
-65.63
-54.19
-37.99
-19.36
-0.98
14.91
27.19
35.86
41.51
44.8
45.98
45.02
41.92
37.14
31.68
26.81
23.54
22.27
22.78
24.34
26.22
27.82
28.8
29.0
28.24
26.4
23.42
19.54
15.16
10.88
7.13
4.01
1.22
-1.74
-5.34
-9.71
-14.59
-19.45
-23.79
-27.43
-30.65
-34.08
-38.46
-44.33
-51.86
-60.62
-69.55
-76.97
-80.89
-79.46
-71.61
-57.57
-38.96
-18.46
1.18
17.81
30.55
39.63
45.82
49.89
52.13
52.47
50.81
47.36
42.81
38.19
34.48
32.26
31.59
32.06
33.04
34.01
34.66
34.91
34.77
34.15
32.81
30.4
26.75
22.01
16.67
11.44
6.97
3.47
0.69
-2.02
-5.34
-9.66
-14.87
-20.4
-25.53
-29.72
-32.88
-35.49
-38.33
-42.36
-48.23
-56.23
-65.96
-76.35
-85.61
-91.44
-91.56
-84.36
-69.72
-49.22
-25.84
-3.08
16.2
30.53
40.05
45.85
49.24
50.95
51.08
49.39
45.82
40.9
35.62
31.13
28.25
27.28
27.91
29.5
31.34
32.82
33.61
33.53
32.52
30.58
27.82
24.35
20.37
16.09
11.67
7.2
2.63
-2.15
-7.24
-12.54
-17.81
-22.76
-27.18
-31.14
-35.04
-39.55
-45.3
-52.64
-61.21
-69.84
-76.57
-79.16
-75.67
-65.28
-48.77
-28.38
-7.19
11.92
27.1
37.85
44.67
48.41
49.65
48.48
44.9
39.21
32.44
26.07
21.59
19.77
20.38
22.33
24.19
24.84
23.89
21.74
19.18
16.91
15.13
13.44
11.15
7.55
2.44
-3.79
-10.3
-16.12
-20.61
-23.71
-25.96
-28.3
-31.65
-36.73
-43.75
-52.44
-61.96
-70.88
-77.26
-79.06
-74.68
-63.57
-46.71
-26.34
-5.45
13.22
27.89
38.07
44.24
47.3
47.98
46.67
43.52
38.85
33.33
27.97
23.82
21.56
21.28
22.42
24.11
25.44
25.86
25.22
23.83
22.1
20.34
18.52
16.28
13.07
8.5
2.55
-4.22
-10.99
-16.9
-21.53
-25.05
-28.12
-31.64
-36.42
-42.96
-51.35
-61.33
-72.11
-82.28
-89.83
-92.47
-88.25
-76.39
-57.77
-34.88
-11.14
10.21
27.07
38.86
46.22
50.3
51.99
51.61
49.13
44.6
38.6
32.28
27.0
23.77
22.84
23.68
25.21
26.4
26.68
26.07
24.98
23.9
22.97
21.88
19.97
16.56
11.35
4.62
-2.81
-9.86
-15.67
-19.9
-22.89
-25.43
-28.54
-33.05
-39.43
-47.76
-57.63
-68.01
-77.21
-82.99
-83.12
-76.11
-61.96
-42.29
-20.01
1.67
20.13
34.04
43.25
48.38
50.21
49.33
46.12
41.01
34.74
28.38
23.06
19.62
18.34
18.81
20.22
21.73
22.73
23.06
22.84
22.23
21.22
19.47
16.58
12.25
6.58
0.03
-6.67
-12.83
-18.13
-22.67
-27.01
-31.87
-38.01
-45.85
-55.24
-65.32
-74.41
-80.3
-80.84
-74.61
-61.58
-43.33
-22.53
-2.19
15.26
28.55
37.49
42.62
44.58
43.85
40.75
35.75
29.71
23.81
19.24
16.77
16.43
17.57
19.2
20.41
20.71
20.15
19.08
17.81
16.38
14.48
11.67
7.65
2.51
-3.23
-8.83
-13.71
-17.71
-21.25
-25.15
-30.34
-37.46
-46.7
-57.47
-68.45
-77.72
-83.06
-82.53
-75.16
-61.43
-43.15
-23.1
-4.05
12.02
24.3
33.02
38.83
42.29
43.55
42.56
39.44
34.76
29.66
25.42
23.05
22.86
24.39
26.62
28.46
29.18
28.66
27.3
25.6
23.83
21.79
18.97
14.8
9.12
2.27
-4.96
-11.71
-17.39
-21.91
-25.65
-29.33
-33.71
-39.37
-46.59
-55.22
-64.5
-73.07
-79.0
-80.29
-75.47
-64.25
-47.84
-28.61
-9.36
7.65
21.28
31.61
39.33
45.04
48.81
50.26
49.02
45.35
40.26
35.27
31.79
30.49
31.17
32.86
34.46
35.17
34.73
33.49
32.0
30.66
29.45
27.91
25.32
21.12
15.22
8.13
0.83
-5.68
-10.79
-14.57
-17.68
-21.03
-25.45
-31.38
-38.86
-47.49
-56.48
-64.59
-70.23
-71.68
-67.66
-57.8
-42.98
-25.13
-6.64
10.31
24.46
35.47
43.59
49.2
52.38
52.95
50.74
46.1
39.99
33.9
29.26
26.97
26.94
28.29
29.79
30.41
29.78
28.16
26.16
24.29
22.61
20.76
18.2
14.56
9.83
4.49
-0.77
-5.32
-8.93
-11.84
-14.74
-18.47
-23.71
-30.71
-39.16
-48.13
-56.26
-61.93
-63.58
-60.13
-51.31
-37.85
-21.4
-4.07
12.15
25.92
36.72
44.62
49.85
52.47
52.34
49.49
44.37
38.11
32.16
27.88
26.0
26.42
28.33
30.68
32.5
33.15
32.48
30.65
28.0
24.92
21.7
18.46
15.15
11.55
7.47
2.8
-2.34
-7.69
-12.91
-17.78
-22.25
-26.51
-30.88
-35.75
-41.48
-48.3
-56.13
-64.48
-72.26
-77.9
-79.63
-76.01
-66.52
-51.83
-33.71
-14.48
3.7
19.38
32.04
41.8
48.91
53.47
55.31
54.3
50.69
45.32
39.49
34.52
31.4
30.42
31.27
33.21
35.37
37.04
37.77
37.33
35.68
32.87
29.09
24.65
19.96
15.41
11.3
7.64
4.18
0.59
-3.39
-7.77
-12.35
-16.79
-20.92
-24.83
-28.87
-33.5
-39.19
-46.2
-54.54
-63.75
-72.79
-79.98
-83.31
-81.02
-72.23
-57.43
-38.47
-17.91
1.73
18.74
32.41
42.86
50.49
55.6
58.23
58.29
55.9
51.61
46.36
41.27
37.26
34.76
33.71
33.66
34.12
34.76
35.38
35.86
35.94
35.15
33.07
29.58
24.99
20.01
15.42
11.73
8.94
6.55
3.86
0.22
-4.6
-10.38
-16.53
-22.39
-27.43
-31.46
-34.75
-37.91
-41.77
-47.08
-54.23
-62.96
-72.17
-79.94
-83.93
-82.11
-73.43
-58.39
-38.95
-17.98
1.72
18.22
30.81
39.81
45.98
49.93
51.81
51.46
48.85
44.35
38.9
33.69
29.77
27.72
27.44
28.36
29.75
31.02
31.82
32.03
31.59
30.37
28.23
25.11
21.13
16.65
12.15
8.04
4.45
1.22
-2.04
-5.62
-9.57
-13.64
-17.5
-20.92
-23.99
-27.09
-30.82
-35.74
-42.23
-50.3
-59.39
-68.23
-74.93
-77.31
-73.64
-63.34
-47.37
-28.05
-8.33
9.24
23.13
33.07
39.57
43.38
44.98
44.53
42.14
38.13
33.25
28.49
24.89
23.06
23.09
24.48
26.41
28.01
28.65
28.1
26.46
24.04
21.15
18.05
14.78
11.26
7.38
3.02
-1.8
-6.88
-11.91
-16.54
-20.57
-24.05
-27.32
-30.84
-35.02
-40.12
-46.21
-53.2
-60.8
-68.31
-74.42
-77.35
-75.3
-67.15
-53.1
-34.78
-14.77
4.23
20.32
32.7
41.5
47.25
50.41
51.14
49.54
45.88
40.81
35.35
30.57
27.28
25.75
25.77
26.78
28.14
29.36
30.09
30.16
29.43
27.8
25.26
21.94
18.14
14.23
10.47
6.87
3.22
-0.75
-5.24
-10.15
-15.23
-20.11
-24.54
-28.51
-32.17
-35.88
-40.1
-45.38
-52.32
-61.15
-71.46
-81.8
-89.76
-92.6
-88.15
-75.78
-56.86
-34.34
-11.85
7.66
22.6
32.98
39.82
44.24
46.94
48.0
47.2
44.53
40.45
35.89
31.89
29.2
28.06
28.25
29.29
30.71
32.21
33.6
34.71
35.29
35.0
33.58
30.91
27.17
22.72
18.11
13.7
9.63
5.64
1.32
-3.72
-9.61
-16.05
-22.52
-28.46
-33.62
-38.15
-42.61
-47.78
-54.45
-62.96
-72.94
-83.02
-90.92
-93.9
-89.71
-77.55
-58.52
-35.42
-11.84
9.09
25.51
37.17
44.8
49.46
51.84
52.06
50.0
45.76
40.0
33.85
28.64
25.38
24.44
25.44
27.47
29.55
30.92
31.29
30.79
29.65
28.04
25.89
22.95
19.03
14.11
8.43
2.43
-3.36
-8.58
-13.03
-16.71
-19.87
-22.92
-26.36
-30.8
-36.76
-44.48
-53.58
-62.98
-70.85
-74.99
-73.45
-65.28
-50.84
-31.92
-11.13
8.81
25.89
39.09
48.34
54.05
56.68
56.57
54.0
49.47
43.85
38.4
34.44
32.88
33.97
37.12
41.19
44.86
47.16
47.75
46.88
45.17
43.2
41.25
39.29
37.15
34.74
32.22
29.92
28.21
27.16
26.55
25.97
24.95
23.25
20.98
18.47
16.22
14.64
13.89
13.95
14.56
15.34
15.95
16.16
15.87
15.09
13.98
12.65
11.27
9.93
8.7
7.56
6.42
5.05
3.19
0.67
-2.49
-6.02
-9.47
-12.42
-14.74
-16.69
-18.93
-22.13
-26.63
-32.24
-38.24
-43.73
-48.1
-51.33
-54.06
-57.23
-61.7
-67.82
-75.32
-83.41
-91.12
-97.75
-102.98
-107.14
-111.03
-115.86
-123.01
-133.56
-147.69
-164.02
-179.31
-188.94
-188.03
-173.33
-144.49
-104.62
-59.5
-15.66
21.62
49.66
68.52
80.04
86.47
89.42
89.53
86.95
81.99
75.52
68.86
63.3
59.59
57.59
56.55
55.53
53.93
51.79
49.59
47.94
47.06
46.51
45.31
42.31
36.72
28.49
18.51
8.24
-0.8
-7.66
-12.32
-15.75
-19.34
-24.45
-31.88
-41.64
-53.03
-64.71
-74.86
-81.43
-82.47
-76.59
-63.57
-44.63
-22.27
0.36
20.38
35.93
46.51
52.6
55.09
54.75
52.03
47.25
40.92
33.97
27.61
22.94
20.56
20.34
21.6
23.43
24.98
25.73
25.29
23.46
20.13
15.26
9.14
2.27
-4.63
-10.89
-16.15
-20.52
-24.57
-29.17
-35.31
-43.73
-54.58
-67.12
-79.59
-89.37
-93.65
-90.26
-78.54
-59.71
-36.56
-12.67
8.74
25.69
37.65
45.13
49.06
50.14
48.77
45.23
40.06
34.26
28.97
25.1
22.99
22.29
22.32
22.44
22.42
22.39
22.55
22.86
22.83
21.67
18.73
13.75
7.1
-0.38
-7.74
-14.35
-20.13
-25.59
-31.61
-39.15
-48.91
-60.97
-74.57
-88.01
-98.94
-104.7
-103.23
-93.74
-77.14
-55.87
-33.06
-11.68
6.4
20.62
31.37
39.3
44.79
47.75
48.02
45.73
41.65
37.08
33.35
31.3
30.97
31.7
32.54
32.76
32.13
30.95
29.71
28.67
27.6
25.82
22.53
17.29
10.29
2.44
-5.08
-11.32
-16.04
-19.76
-23.57
-28.66
-35.81
-45.24
-56.36
-67.92
-78.13
-84.83
-86.03
-80.45
-68.03
-50.05
-28.86
-7.17
12.76
29.58
42.99
53.27
60.86
65.97
68.56
68.64
66.58
63.23
59.81
57.44
56.8
57.83
59.87
61.97
63.36
63.69
63.14
62.14
61.15
60.32
59.48
58.3
56.45
53.89
50.82
47.71
44.99
42.9
41.4
40.18
38.97
37.59
36.16
34.92
34.1
33.73
33.61
33.44
32.9
31.9
30.49
28.89
27.33
