0
-76.95
-46.82
-18.6
5.74
25.62
41.33
53.42
62.19
67.74
70.2
70.08
68.29
65.94
63.98
62.92
62.74
63.04
63.36
63.37
63.05
62.55
62.01
61.4
60.37
58.36
54.73
49.13
41.67
33.06
24.35
16.59
10.34
5.41
0.93
-4.23
-10.9
-19.17
-28.37
-37.39
-45.24
-51.49
-56.49
-61.12
-66.55
-73.91
-83.96
-96.85
-111.84
-127.12
-139.84
-146.76
-145.12
-133.66
-113.16
-86.3
-56.78
-28.15
-2.87
18.04
34.71
47.84
58.1
65.87
71.26
74.37
75.51
75.21
74.18
73.02
72.17
71.74
71.63
71.65
71.6
71.39
70.97
70.3
69.28
67.72
65.34
61.83
56.99
50.79
43.56
35.94
28.72
22.51
17.47
13.15
8.75
3.45
-3.16
-10.92
-19.16
-27.14
-34.32
-40.58
-46.12
-51.4
-56.9
-63.13
-70.68
-80.1
-91.68
-105.01
-118.63
-130.07
-136.29
-134.7
-124.03
-104.93
-79.81
-52.07
-25.02
-1.0
18.95
34.9
47.45
57.16
64.28
68.8
70.77
70.51
68.72
66.38
64.42
63.41
63.44
64.15
64.93
65.29
65.03
64.21
63.07
61.75
60.18
58.1
55.27
51.54
46.95
41.64
35.74
29.43
22.85
16.29
10.12
4.62
-0.14
-4.45
-8.87
-13.93
-19.86
-26.52
-33.43
-40.04
-46.02
-51.38
-56.44
-61.72
-67.85
-75.42
-84.84
-95.99
-107.88
-118.53
-125.19
-125.11
-116.54
-99.47
-75.88
-49.07
-22.59
0.82
19.88
34.52
45.4
53.07
57.77
59.49
58.44
55.28
51.22
47.62
45.48
45.2
46.52
48.78
51.25
53.34
54.7
55.22
54.92
53.92
52.35
50.24
47.46
43.77
38.92
32.83
25.76
18.23
10.88
4.21
-1.57
-6.65
-11.39
-16.27
-21.64
-27.62
-34.09
-40.71
-47.11
-53.0
-58.32
-63.34
-68.6
-74.86
-82.9
-93.25
-105.83
-119.55
-132.23
-140.9
-142.63
-135.52
-119.54
-96.57
-69.85
-42.86
-18.28
2.49
19.31
32.66
43.17
51.22
56.97
60.52
62.13
62.26
61.47
60.36
59.4
58.86
58.83
59.25
60.01
60.96
61.93
62.68
62.91
62.27
60.5
57.56
53.65
49.16
44.43
39.63
34.65
29.25
23.23
16.66
9.84
3.25
-2.76
-8.08
-12.95
-17.84
-23.24
-29.49
-36.56
-44.18
-51.88
-59.3
-66.28
-73.0
-79.9
-87.62
-96.84
-108.09
-121.4
-135.94
-149.79
-160.12
-163.87
-158.68
-143.88
-120.81
-92.46
-62.53
-34.27
-9.69
10.54
26.77
39.75
50.13
58.3
64.34
68.32
70.39
70.96
70.62
70.04
69.79
70.16
71.14
72.54
74.13
75.77
77.3
78.49
78.93
78.11
75.64
71.5
66.09
60.14
54.34
49.09
44.34
39.64
34.45
28.42
21.61
14.42
7.44
1.17
-4.27
-9.17
-14.11
-19.73
-26.49
-34.4
-43.15
-52.15
-60.83
-68.83
-76.23
-83.49
-91.5
-101.28
-113.52
-128.03
-143.26
-156.29
-163.57
-161.88
-149.63
-127.46
-98.11
-65.54
-33.64
-5.27
18.13
36.41
50.09
59.88
66.41
70.18
71.69
71.54
70.4
69.0
67.94
67.68
68.44
70.14
72.51
75.19
77.74
79.8
81.11
81.42
80.59
78.54
75.31
71.07
66.03
60.37
54.22
47.61
40.65
33.49
26.44
19.83
13.84
8.38
3.08
-2.56
-8.91
-16.05
-23.76
-31.6
-39.21
-46.41
-53.33
-60.36
-68.08
-77.19
-88.28
-101.58
-116.48
-131.29
-143.18
-148.8
-145.32
-131.45
-108.12
-78.23
-45.79
-14.69
12.37
34.17
50.72
62.6
70.43
74.64
75.65
74.05
70.8
67.04
63.83
61.9
61.5
62.44
64.26
66.37
68.26
69.6
70.16
69.86
68.53
65.96
61.83
55.92
48.3
39.49
30.38
21.98
14.94
9.24
4.17
-1.4
-8.37
-17.01
-26.8
-36.65
-45.44
-52.59
-58.29
-63.44
-69.34
-77.32
-88.33
-102.59
-119.31
-136.44
-150.8
-158.73
-157.09
-144.35
-121.29
-90.87
-57.31
-24.76
3.8
27.1
45.23
59.02
69.26
76.41
80.65
82.18
81.53
79.57
77.35
75.74
75.19
75.61
76.56
77.48
78.06
78.23
78.18
78.06
77.75
76.79
74.47
70.17
63.59
55.05
45.4
35.8
27.29
20.44
15.11
10.48
5.46
-0.97
-9.22
-18.98
-29.37
-39.31
-47.97
-55.04
-60.89
-66.4
-72.75
-81.17
-92.55
-107.02
-123.53
-139.66
-151.84
-156.3
-150.19
-132.76
-105.73
-72.82
-38.6
-7.04
19.5
40.43
56.44
68.7
78.04
84.82
89.01
90.69
90.31
88.74
87.08
86.18
86.45
87.71
89.36
90.71
91.28
90.97
90.0
88.71
87.21
85.35
82.68
78.66
72.96
65.6
57.02
47.92
39.05
30.95
23.78
17.31
11.0
4.24
-3.47
-12.26
-21.87
-31.68
-40.98
-49.16
-56.06
-62.04
-67.93
-74.81
-83.69
-95.22
-109.36
-125.13
-140.48
-152.44
-157.71
-153.51
-138.64
-114.05
-82.73
-48.89
-16.68
10.96
32.89
49.42
61.61
70.45
76.38
79.46
79.73
77.7
74.4
71.18
69.22
69.08
70.59
72.96
75.27
76.83
77.47
77.4
76.99
76.39
75.34
73.27
69.57
63.85
56.25
47.43
38.35
29.99
22.99
17.44
12.83
8.27
2.84
-4.07
-12.42
-21.6
-30.59
-38.5
-44.91
-50.08
-54.87
-60.43
-67.84
-77.84
-90.58
-105.44
-120.87
-134.36
-142.8
-143.22
-133.75
-114.45
-87.47
-56.51
-25.65
1.8
24.0
40.67
52.45
60.27
64.85
66.67
66.11
63.8
60.64
57.69
55.84
55.52
56.62
58.6
60.71
62.31
63.15
63.27
62.87
62.08
60.69
58.21
54.01
47.72
39.45
29.98
20.47
12.13
5.66
0.92
-3.05
-7.62
-13.96
-22.49
-32.64
-43.14
-52.62
-60.25
-66.08
-71.0
-76.4
-83.67
-93.79
-107.0
-122.5
-138.36
-151.63
-158.89
-157.12
-144.81
-122.58
-93.16
-60.62
-29.08
-1.6
20.45
37.18
49.6
58.74
65.26
69.37
71.17
70.97
69.5
67.76
66.62
66.55
67.39
68.58
69.48
69.73
69.36
68.67
67.93
67.12
65.83
63.43
59.33
53.27
45.5
36.73
27.94
20.04
13.53
8.33
3.74
-1.23
-7.5
-15.42
-24.7
-34.46
-43.64
-51.5
-57.87
-63.22
-68.46
-74.62
-82.66
-93.24
-106.52
-121.79
-137.27
-150.07
-156.74
-154.34
-141.39
-118.75
-89.38
-57.43
-26.86
-0.39
21.03
37.82
50.98
61.39
69.41
75.01
78.13
78.96
78.1
76.41
74.78
73.86
73.94
74.88
76.27
77.57
78.37
78.42
77.77
76.53
74.77
72.37
69.02
64.42
58.45
51.33
43.58
35.86
28.7
22.38
16.84
11.7
6.44
0.48
-6.57
-14.89
-24.21
-33.94
-43.29
-51.61
-58.63
-64.68
-70.58
-77.45
-86.37
-97.98
-112.25
-128.13
-143.45
-155.09
-159.68
-154.57
-138.85
-113.89
-83.08
-50.8
-20.94
4.09
23.72
38.73
50.33
59.33
65.94
70.01
71.52
70.97
69.35
67.76
67.02
67.38
68.53
69.92
71.07
71.79
72.14
72.34
72.43
72.26
71.39
69.26
65.35
59.48
51.89
43.23
34.53
26.73
20.43
15.59
11.51
7.17
1.64
-5.49
-13.93
-22.85
-31.25
-38.38
-43.96
-48.29
-52.09
-56.38
-62.28
-70.79
-82.48
-97.07
-113.05
-127.64
-137.31
-138.71
-129.85
-110.86
-84.15
-53.64
-23.54
2.91
24.07
39.93
51.41
59.53
64.98
67.94
68.52
67.07
64.44
61.77
60.13
60.1
61.53
63.74
65.84
67.22
67.76
67.8
67.78
67.84
67.65
66.39
63.2
57.57
49.65
40.26
30.61
21.81
14.44
8.37
2.83
-3.13
-10.3
-18.91
-28.56
-38.43
-47.58
-55.37
-61.69
-67.05
-72.45
-79.09
-88.11
-100.14
-115.03
-131.44
-146.87
-157.94
-161.26
-154.49
-137.17
-111.11
-79.84
-47.59
-17.98
6.86
26.45
41.51
53.14
62.11
68.67
72.74
74.37
74.03
72.63
71.26
70.73
71.35
72.77
74.36
75.5
75.91
75.74
75.27
74.69
73.86
72.29
69.33
64.54
57.87
49.76
40.98
32.44
24.79
18.26
12.59
7.08
0.91
-6.58
-15.55
-25.59
-35.82
-45.26
-53.24
-59.65
-65.06
-70.48
-77.12
-86.04
-97.9
-112.53
-128.73
-144.12
-155.41
-159.22
-153.09
-136.44
-110.97
-80.2
-48.36
-19.07
5.59
25.25
40.73
53.18
63.38
71.5
77.32
80.68
81.84
81.52
80.63
79.97
79.93
80.45
81.22
81.9
82.33
82.47
82.35
81.9
80.88
78.95
75.81
71.28
65.39
58.39
50.69
42.86
35.44
28.82
23.08
17.95
12.85
7.16
0.4
-7.55
-16.39
-25.57
-34.4
-42.4
-49.36
-55.48
-61.36
-67.86
-76.0
-86.63
-100.11
-115.84
-131.98
-145.58
-153.14
-151.7
-139.86
-118.42
-90.23
-59.29
-29.53
-3.69
17.09
33.04
45.13
54.28
60.99
65.44
67.72
68.21
67.61
66.8
66.54
67.14
68.39
69.77
70.73
71.03
70.82
70.46
70.28
70.21
69.74
68.09
64.55
58.87
51.38
42.95
34.67
27.47
21.71
17.17
13.11
8.6
2.95
-4.05
-12.0
-20.11
-27.52
-33.73
-38.75
-43.18
-47.98
-54.2
-62.73
-74.07
-88.08
-103.79
-119.2
-131.43
-137.26
-134.1
-120.97
-99.03
-71.38
-42.07
-14.74
8.36
26.7
40.93
52.05
60.58
66.44
69.31
69.18
66.76
63.35
60.45
59.08
59.5
61.18
63.22
64.86
65.74
65.95
65.83
65.54
64.91
63.4
60.37
55.34
48.34
39.91
31.02
22.7
15.67
10.03
5.19
0.13
-6.15
-14.14
-23.54
-33.41
-42.58
-50.2
-56.2
-61.25
-66.53
-73.28
-82.49
-94.69
-109.75
-126.62
-143.15
-156.17
-162.2
-158.43
-143.94
-120.16
-90.57
-59.5
-30.72
-6.33
13.37
29.29
42.62
54.01
63.45
70.49
74.91
76.95
77.39
77.22
77.24
77.78
78.63
79.32
79.46
78.93
77.99
77.01
76.2
75.43
74.15
71.64
67.32
61.03
53.15
44.51
36.08
28.66
22.55
17.45
12.65
7.23
0.48
-7.87
-17.52
-27.71
-37.46
-46.0
-52.98
-58.66
-63.91
-69.99
-78.15
-89.31
-103.55
-119.85
-135.95
-148.71
-154.85
-151.85
-138.84
-116.92
-88.93
-58.57
-29.34
-3.64
17.57
34.55
48.19
59.32
68.32
75.12
79.52
81.63
81.97
81.49
81.13
81.5
82.61
83.99
84.95
85.01
84.09
82.48
80.69
79.01
77.39
75.32
72.14
67.29
60.62
52.56
43.89
35.53
28.17
22.05
16.91
12.12
6.94
0.79
-6.52
-14.66
-22.97
-30.73
-37.5
-43.39
-49.01
-55.24
-62.93
-72.67
-84.68
-98.62
-113.48
-127.34
-137.54
-141.18
-136.08
-121.67
-99.46
-72.62
-44.83
-19.22
2.57
20.26
34.39
45.51
53.81
59.13
61.43
61.14
59.19
56.81
55.05
54.49
55.14
56.64
58.47
60.22
61.7
62.82
63.47
63.4
62.25
59.56
55.08
48.85
41.38
33.45
25.95
19.48
14.08
9.19
3.94
-2.42
-10.09
-18.65
-27.17
-34.77
-41.03
-46.27
-51.51
-58.05
-67.09
-79.26
-94.23
-110.5
-125.45
-135.78
-138.38
-131.35
-114.74
-90.69
-62.79
-34.86
-9.83
10.95
27.53
40.71
51.25
59.39
65.02
68.03
68.69
67.75
66.19
64.84
64.12
63.96
64.03
63.97
63.67
63.25
62.95
62.87
62.83
62.24
60.32
56.41
50.25
42.23
33.31
24.62
17.01
10.69
5.16
-0.55
-7.39
-15.84
-25.7
-36.2
-46.33
-55.29
-62.81
-69.36
-75.92
-83.8
-94.17
-107.76
-124.46
-142.89
-160.37
-173.18
-177.53
-170.73
-152.33
-124.47
-91.29
-57.52
-26.98
-1.53
18.9
35.58
49.82
62.29
72.81
80.85
86.02
88.43
88.68
87.57
85.76
83.56
81.07
78.23
75.16
72.11
69.45
67.46
66.1
64.99
63.49
60.95
56.93
51.36
44.59
37.28
30.19
23.91
18.67
14.31
10.23
5.63
-0.21
-7.67
-16.54
-26.15
-35.56
-43.99
-51.11
-57.19
-63.02
-69.65
-78.18
-89.37
-103.41
-119.59
-136.01
-149.79
-157.55
-156.43
-145.07
-124.22
-96.64
-66.16
-36.53
-10.37
11.26
28.57
42.46
53.79
62.99
70.11
74.99
77.64
78.41
77.93
76.99
76.24
75.98
76.16
76.51
76.72
76.63
76.28
75.75
75.05
73.96
72.13
69.16
64.85
59.35
53.04
46.49
40.22
34.57
29.57
24.98
20.31
15.04
8.77
1.41
-6.75
-15.13
-23.1
-30.2
-36.4
-42.01
-47.68
-54.13
-62.04
-71.88
-83.74
-97.08
-110.46
-121.6
-127.7
-126.3
-116.11
-97.59
-72.96
-45.51
-18.54
5.55
25.64
41.72
54.32
63.84
70.35
73.73
74.04
71.84
68.3
64.84
62.61
62.11
63.05
64.65
66.01
66.58
66.36
65.68
64.91
64.11
62.88
60.58
56.56
50.59
43.0
34.61
26.4
19.11
12.92
7.37
1.62
-5.18
-13.39
-22.79
-32.62
-41.94
-50.09
-56.91
-62.83
-68.66
-75.37
-83.86
-94.65
-107.7
-122.11
-136.0
-146.64
-151.12
-147.17
-134.07
-113.04
-86.94
-59.33
-33.27
-10.63
8.15
23.55
36.26
46.61
54.47
59.57
61.94
62.09
60.97
59.68
59.07
59.56
61.08
63.17
65.31
67.03
68.08
68.46
68.3
67.68
66.57
64.76
61.95
57.96
52.8
46.74
40.19
33.59
27.23
21.18
15.31
9.33
2.9
-4.24
-12.1
-20.41
-28.68
-36.39
-43.17
-49.05
-54.49
-60.3
-67.37
-76.47
-87.95
-101.43
-115.7
-128.63
-137.61
-140.08
-134.32
-120.13
-98.96
-73.47
-46.83
-21.74
0.14
18.24
32.86
44.53
53.75
60.74
65.6
68.42
69.48
69.24
68.26
67.15
66.34
66.11
66.47
67.3
68.31
69.17
69.59
69.34
68.31
66.42
63.61
59.83
55.03
49.25
42.64
35.56
28.44
21.67
15.5
9.92
4.73
-0.42
-5.84
-11.73
-18.08
-24.7
-31.29
-37.52
-43.2
-48.36
-53.25
-58.41
-64.47
-72.14
-81.88
-93.7
-106.8
-119.42
-129.0
-132.78
-128.64
-115.93
-95.78
-70.85
-44.42
-19.48
2.04
19.47
33.08
43.58
51.66
57.72
61.91
64.29
65.09
64.73
63.89
63.27
63.39
64.35
65.9
67.55
68.87
69.67
70.02
70.11
69.99
69.39
67.84
64.86
60.22
54.1
47.09
39.98
33.51
28.07
23.64
19.75
15.67
10.7
4.37
-3.33
-11.91
-20.6
-28.58
-35.34
-40.87
-45.69
-50.75
-57.15
-65.85
-77.37
-91.45
-106.93
-121.65
-132.85
-137.73
-134.38
-122.35
-102.99
-79.08
-53.99
-30.68
-11.04
4.37
15.96
24.45
30.44
34.13
35.6
35.12
33.39
31.45
30.34
30.71
32.54
35.33
38.35
41.05
43.27
45.12
46.81
48.35
49.46
49.67
48.47
45.54
40.89
34.88
28.17
21.48
15.44
10.29
5.84
1.49
-3.51
-9.67
-17.06
-25.18
-33.24
-40.5
-46.65
-52.0
-57.37
-63.83
-72.37
-83.53
-97.16
-112.27
-126.97
-138.65
-144.53
-142.37
-131.23
-111.9
-86.85
-59.38
-32.75
-9.2
10.37
26.21
39.09
49.67
58.16
64.42
68.29
69.93
69.92
69.12
68.36
68.15
68.57
69.39
70.21
70.72
70.77
70.39
69.65
68.57
67.01
64.69
61.24
56.38
50.07
42.59
34.54
26.63
19.47
13.27
7.83
2.55
-3.22
-9.93
-17.65
-26.01
-34.39
-42.24
-49.26
-55.51
-61.41
-67.59
-74.76
-83.6
-94.64
-107.97
-122.89
-137.71
-149.77
-156.02
-153.94
-142.46
-122.44
-96.43
-67.9
-40.12
-15.3
5.67
22.98
37.31
49.26
59.06
66.58
71.68
74.43
75.3
75.1
74.7
74.77
75.58
76.98
78.66
80.31
81.77
82.97
83.77
83.9
82.95
80.58
76.72
71.63
65.8
59.67
53.53
47.34
41.0
34.46
27.9
21.58
15.72
10.26
4.85
-1.05
-7.87
-15.71
-24.3
-33.02
-41.28
-48.72
-55.41
-61.87
-68.96
-77.62
-88.64
-102.26
-117.83
-133.57
-146.63
-153.73
-152.07
-140.35
-119.42
-92.07
-62.18
-33.45
-8.43
11.91
27.89
40.36
50.07
57.33
62.17
64.7
65.34
64.88
64.25
64.23
65.16
66.94
69.21
71.51
73.6
75.36
76.85
78.05
78.8
78.69
77.22
73.96
68.78
61.92
54.01
45.93
38.53
32.35
27.42
23.26
19.04
13.91
7.35
-0.6
-9.4
-18.18
-26.17
-32.94
-38.6
-43.74
-49.23
-56.07
-65.09
-76.72
-90.59
-105.31
-118.44
-126.89
-127.83
-119.56
-102.27
-78.09
-50.37
-22.73
2.09
22.68
38.93
51.39
60.69
67.17
70.91
71.98
70.77
68.12
65.15
63.02
62.47
63.67
66.12
69.0
71.44
73.01
73.7
73.81
73.52
72.66
70.66
66.85
60.84
52.89
43.82
34.76
26.63
19.81
14.04
8.55
2.45
-4.96
-13.89
-23.97
-34.34
-44.01
-52.18
-58.65
-63.88
-68.89
-74.96
-83.29
-94.63
-109.01
-125.41
-141.69
-154.78
-161.33
-158.69
-145.81
-123.78
-95.54
-64.95
-35.57
-9.82
11.42
28.44
42.07
53.05
61.76
68.21
72.35
74.33
74.66
74.13
73.62
73.8
74.89
76.69
78.65
80.27
81.22
81.5
81.24
80.51
79.15
76.74
72.82
67.14
59.82
51.39
42.61
34.2
26.58
19.8
13.56
7.3
0.51
-7.16
-15.77
-25.0
-34.31
-43.08
-50.83
-57.48
-63.39
-69.31
-76.29
-85.36
-97.24
-111.93
-128.38
-144.38
-156.81
-162.37
-158.56
-144.59
-121.75
-93.08
-62.4
-33.2
-7.7
13.3
30.16
43.7
54.59
63.09
69.22
73.0
74.78
75.26
75.24
75.38
75.99
76.97
78.05
78.92
79.46
79.7
79.73
79.49
78.79
77.32
74.72
70.8
65.56
59.18
51.98
44.38
36.75
29.49
22.87
16.95
11.6
6.42
0.85
-5.53
-12.93
-21.13
-29.68
-38.03
-45.85
-53.1
-60.09
-67.38
-75.61
-85.5
-97.49
-111.48
-126.48
-140.42
-150.38
-153.42
-147.47
-132.2
-109.25
-81.67
-52.92
-25.93
-2.44
16.98
32.56
44.78
54.04
60.55
64.54
66.4
66.83
66.67
66.71
67.36
68.47
69.5
69.83
69.13
67.57
65.71
64.14
63.08
62.19
60.7
57.81
53.1
46.8
39.65
32.63
26.49
21.44
17.07
12.6
7.29
0.78
-6.68
-14.32
-21.26
-26.89
-31.16
-34.64
-38.23
-42.94
-49.64
-58.8
-70.32
-83.31
-95.9
-105.46
-109.23
-105.1
-92.52
-72.73
-48.42
-22.85
1.17
21.95
38.94
52.41
62.76
70.27
75.01
77.11
76.95
75.27
72.98
70.9
69.54
69.03
69.17
69.64
70.12
70.47
70.59
70.41
69.69
68.06
65.03
60.21
53.5
45.24
36.16
27.24
19.24
12.53
6.82
1.39
-4.64
-11.83
-20.19
-29.2
-38.1
-46.27
-53.44
-59.87
-66.18
-73.18
-81.67
-92.24
-104.99
-119.16
-132.97
-143.74
-148.51
-144.96
-132.33
-111.81
-86.19
-59.0
-33.3
-10.94
7.57
22.68
35.17
45.53
53.84
59.89
63.59
65.17
65.28
64.8
64.6
65.18
66.6
68.47
70.27
71.51
72.0
71.82
71.18
70.25
68.95
66.96
63.81
59.13
52.87
45.41
37.46
29.89
23.31
17.85
13.07
8.2
2.47
-4.53
-12.64
-21.29
-29.7
-37.26
-43.74
-49.35
-54.73
-60.74
-68.31
-78.14
-90.54
-104.99
-120.01
-133.21
-141.71
-142.88
-135.2
-118.82
-95.74
-69.14
-42.51
-18.59
1.25
17.03
29.64
40.09
48.97
56.27
61.63
64.77
65.8
65.29
64.08
62.93
62.3
62.21
62.44
62.68
62.81
62.87
62.96
63.08
62.98
62.2
60.26
56.89
52.16
46.46
40.36
34.37
28.83
23.83
19.27
14.86
10.25
5.02
-1.07
-8.05
-15.64
-23.33
-30.57
-37.07
-42.83
-48.23
-53.86
-60.4
-68.53
-78.76
-91.18
-105.12
-118.92
-129.95
-135.31
-132.68
-121.3
-102.29
-78.41
-53.06
-29.21
-8.71
7.96
21.21
31.72
40.02
46.3
50.59
53.02
53.98
54.06
53.87
53.9
54.33
55.12
56.08
57.02
57.84
58.52
59.06
59.45
59.54
59.04
57.56
54.74
50.36
44.57
37.85
30.98
24.74
19.65
15.73
12.48
9.12
4.94
-0.42
-6.87
-13.87
-20.81
-27.17
-32.79
-37.88
-42.92
-48.59
-55.58
-64.42
-75.24
-87.47
-99.69
-109.75
-115.14
-113.78
-104.74
-88.62
-67.52
-44.34
-21.91
-2.27
13.69
25.97
35.04
41.36
45.23
46.89
46.69
45.33
43.72
42.7
42.83
44.13
46.18
48.35
50.11
51.21
51.7
51.8
51.58
50.9
49.31
46.29
41.58
35.33
28.2
21.02
14.44
8.6
3.17
-2.52
-9.04
-16.54
-24.67
-32.74
-40.1
-46.32
-51.54
-56.32
-61.65
-68.6
-78.05
-90.28
-104.65
-119.38
-131.78
-138.86
-138.19
-128.76
-111.35
-88.37
-63.08
-38.57
-16.91
1.2
16.11
28.66
39.53
48.87
56.4
61.72
64.72
65.76
65.56
64.96
64.56
64.59
64.91
65.26
65.41
65.33
65.17
65.07
65.0
64.62
63.36
60.61
56.02
49.74
42.45
35.14
28.75
23.63
19.47
15.38
10.37
3.82
-4.25
-13.16
-22.02
-30.09
-37.11
-43.31
-49.31
-55.89
-63.82
-73.76
-85.94
-99.96
-114.43
-127.0
-134.85
-135.47
-127.62
-111.81
-90.18
-65.82
-41.75
-20.06
-1.63
13.69
26.51
37.36
46.39
53.44
58.33
61.11
62.24
62.44
62.53
63.09
64.32
66.03
67.75
69.01
69.55
69.39
68.78
67.99
67.07
65.76
63.58
60.07
55.03
48.73
41.82
35.09
29.1
23.95
19.3
14.54
9.08
2.62
-4.79
-12.81
-20.89
-28.52
-35.35
-41.37
-46.84
-52.39
-58.83
-66.93
-77.24
-89.71
-103.54
-117.03
-127.78
-133.19
-131.23
-121.05
-103.45
-80.67
-55.73
-31.53
-10.08
7.83
22.38
34.17
43.66
50.89
55.7
58.02
58.27
57.32
56.3
56.11
57.08
58.91
60.95
62.6
63.66
64.34
64.99
65.77
66.35
66.06
64.12
60.16
54.39
47.55
40.65
34.47
29.34
24.98
20.78
15.98
10.09
3.01
-4.92
-13.06
-20.69
-27.34
-32.98
-38.12
-43.74
-50.89
-60.41
-72.43
-86.17
-99.83
-110.98
-117.02
-116.01
-107.17
-91.23
-70.27
-47.03
-24.22
-3.76
13.47
27.55
38.97
48.23
55.48
60.6
63.49
64.3
63.7
62.58
61.84
61.99
62.97
64.32
65.45
66.04
66.1
65.94
65.79
65.56
64.71
62.47
58.23
51.84
43.79
35.05
26.71
19.52
13.71
8.9
4.36
-0.7
-6.78
-13.92
-21.72
-29.54
-36.79
-43.16
-48.74
-54.08
-59.97
-67.33
-76.88
-88.78
-102.4
-116.09
-127.39
-133.51
-132.21
-122.51
-105.11
-82.25
-56.98
-32.23
-10.05
8.67
24.05
36.72
47.3
56.12
63.2
68.41
71.75
73.41
73.87
73.7
73.39
73.24
73.27
73.35
73.27
72.91
72.34
71.61
70.74
69.57
67.78
64.99
61.0
55.87
49.89
43.46
36.89
30.34
23.76
17.02
9.93
2.32
-5.9
-14.68
-23.75
-32.61
-40.63
-47.35
-52.7
-57.09
-61.37
-66.52
-73.42
-82.53
-93.83
-106.56
-119.17
-129.37
-134.54
-132.47
-122.14
-104.22
-81.06
-55.84
-31.62
-10.42
7.12
21.36
33.08
42.79
50.58
56.21
59.53
60.78
60.58
59.77
59.08
58.93
59.36
60.14
60.95
61.56
61.92
62.07
62.07
61.88
61.31
60.06
57.78
54.22
49.34
43.39
36.86
30.42
24.68
19.93
16.05
12.53
8.72
4.08
-1.61
-8.18
-15.19
-22.12
-28.58
-34.38
-39.57
-44.49
-49.65
-55.79
-63.68
-73.85
-86.17
-99.55
-111.83
-120.26
-122.2
-116.08
-101.92
-81.46
-57.56
-33.4
-11.52
6.62
20.71
31.17
38.71
43.9
47.07
48.46
48.34
47.23
45.77
44.62
44.22
44.62
45.58
46.65
47.53
48.14
48.63
49.21
49.84
50.14
49.46
47.13
42.83
36.79
29.82
22.95
17.03
12.34
8.51
4.67
-0.09
-6.3
-13.87
-22.18
-30.35
-37.66
-43.86
-49.27
-54.65
-60.97
-69.15
-79.7
-92.47
-106.34
-119.2
-128.29
-130.92
-125.41
-111.71
-91.54
-67.85
-43.8
-21.85
-3.25
11.87
23.96
33.51
40.77
45.74
48.48
49.31
48.89
48.06
47.59
47.93
49.14
50.89
52.72
54.2
55.11
55.49
55.57
55.5
55.23
54.39
52.45
48.91
43.58
36.79
29.33
22.18
16.08
11.23
7.15
2.88
-2.57
-9.69
-18.31
-27.55
-36.28
-43.66
-49.49
-54.29
-59.06
-64.96
-72.92
-83.42
-96.27
-110.47
-124.1
-134.57
-139.13
-135.72
-123.72
-104.3
-80.13
-54.49
-30.26
-9.24
8.11
22.23
33.86
43.52
51.33
57.15
60.87
62.67
63.08
62.91
62.91
63.52
64.79
66.43
68.05
69.35
70.24
70.82
71.12
71.03
70.24
68.34
64.99
60.09
53.86
46.79
39.52
32.64
26.49
21.08
16.03
10.7
4.43
-3.23
-12.22
-22.03
-31.84
-40.83
-48.52
-55.0
-60.91
-67.28
-75.21
-85.53
-98.46
-113.3
-128.34
-140.99
-148.32
-147.83
-138.31
-120.36
-96.31
-69.53
-43.37
-20.25
-1.18
14.03
26.23
36.17
44.21
50.3
54.29
56.33
57.0
57.15
57.61
58.81
60.63
62.56
64.03
64.72
64.73
64.42
64.18
64.0
63.44
61.8
58.48
53.31
46.72
39.55
32.72
26.84
21.94
17.61
13.11
7.75
1.16
-6.5
-14.63
-22.41
-29.13
-34.53
-38.91
-43.06
-48.0
-54.65
-63.59
-74.89
-87.94
-101.37
-113.08
-120.52
-121.34
-114.14
-99.05
-77.82
-53.29
-28.5
-5.79
13.63
29.59
42.45
52.58
60.11
64.98
67.23
67.21
65.65
63.49
61.61
60.57
60.56
61.45
62.95
64.76
66.55
67.94
68.47
67.63
65.05
60.65
54.72
47.88
40.77
33.84
27.17
20.51
13.47
5.76
-2.67
-11.55
-20.43
-28.87
-36.59
-43.57
-50.17
-57.09
-65.21
-75.36
-87.84
-102.03
-116.09
-127.16
-132.19
-128.91
-116.74
-97.06
-72.76
-47.23
-23.28
-2.52
14.69
28.76
40.24
49.46
56.5
61.38
64.31
65.79
66.44
66.91
67.62
68.68
69.99
71.31
72.49
73.49
74.38
75.2
75.73
75.49
73.83
70.22
64.57
57.38
49.56
42.02
35.23
28.96
22.48
14.9
5.78
-4.6
-15.41
-25.64
-34.58
-42.15
-48.89
-55.77
-63.86
-74.13
-87.16
-102.83
-119.97
-136.22
-148.37
-153.16
-148.46
-134.08
-112.0
-85.69
-58.85
-34.25
-13.06
4.89
20.45
34.28
46.45
56.49
63.85
68.46
70.81
71.89
72.67
73.82
75.45
77.27
78.87
80.01
80.77
81.44
82.27
83.25
83.99
83.87
82.25
78.73
73.44
66.94
60.12
53.82
48.49
44.01
39.68
34.54
27.8
19.22
9.23
-1.19
-11.01
-19.51
-26.59
-32.76
-38.92
-46.04
-54.99
-66.21
-79.61
-94.34
-108.61
-119.9
-125.48
-123.2
-112.3
-93.87
-70.47
-45.4
-21.57
-0.77
16.45
30.43
41.79
50.86
57.64
62.06
64.3
64.97
64.95
65.11
65.97
67.6
69.73
71.99
74.1
75.97
77.57
78.85
79.64
79.6
78.32
75.4
70.72
64.5
57.32
50.03
43.35
37.65
32.75
28.03
22.79
16.61
9.61
2.32
-4.56
-10.58
-15.75
-20.55
-25.75
-32.18
-40.46
-50.88
-63.1
-76.01
-87.68
-95.64
-97.5
-91.91
-79.05
-60.8
-40.16
-20.22
-3.16
10.15
20.02
27.24
32.44
35.79
37.16
36.52
34.31
31.41
28.77
27.1
26.54
26.8
27.43
28.09
28.68
29.18
29.52
29.42
28.53
26.55
23.43
19.41
14.91
10.3
5.79
1.36
-3.24
-8.28
-13.97
-20.32
-27.1
-33.96
-40.49
-46.44
-51.82
-57.01
-62.62
-69.35
-77.73
-87.66
-98.2
-107.51
-113.23
-113.16
-106.04
-92.12
-73.09
-51.55
-30.16
-10.83
5.56
19.05
30.02
38.85
45.59
50.14
52.47
52.87
52.02
50.8
49.97
49.88
50.4
51.01
51.15
50.56
49.35
47.94
46.7
45.65
44.35
42.09
38.26
32.7
25.89
18.72
12.06
6.36
1.45
-3.3
-8.67
-15.09
-22.48
-30.29
-37.82
-44.53
-50.25
-55.1
-59.42
-63.63
-68.26
-73.93
-81.32
-90.64
-101.3
-111.56
-118.77
-120.2
-114.08
-100.33
-80.73
-58.19
-35.78
-15.68
1.16
14.85
25.91
34.8
41.62
46.32
48.93
49.79
49.55
48.93
48.52
48.65
49.34
50.46
51.75
52.96
53.91
54.47
54.65
54.44
53.89
52.95
51.46
49.21
45.97
41.72
36.62
31.0
25.21
19.55
14.07
8.73
3.36
-2.23
-8.19
-14.65
-21.55
-28.72
-35.8
-42.39
-48.23
-53.27
-57.86
-62.63
-68.35
-75.65
-84.83
-95.51
-106.57
-116.11
-121.78
-121.42
-113.7
-98.75
-78.2
-54.78
-31.4
-10.32
7.37
21.67
33.14
42.35
49.49
54.42
57.09
57.8
57.34
56.71
56.79
57.9
59.83
62.0
63.9
65.26
66.19
66.92
67.59
68.0
67.66
65.96
62.36
56.71
49.23
40.54
31.44
22.76
15.14
8.79
3.52
-1.25
-6.24
-12.04
-18.85
-26.36
-33.94
-40.85
-46.71
-51.61
-56.17
-61.32
-68.0
-76.88
-88.1
-101.01
-114.09
-125.02
-131.16
-130.27
-121.3
-104.9
-83.28
-59.5
-36.45
-16.08
0.91
14.71
25.83
34.52
40.7
44.22
45.21
44.38
42.87
41.93
42.46
44.69
48.19
52.19
55.88
58.79
60.84
62.2
63.05
63.33
62.67
60.55
56.51
50.43
42.71
34.11
25.63
18.04
11.62
6.05
0.57
-5.68
-13.24
-22.14
-31.82
-41.49
-50.37
-58.1
-64.8
-71.06
-77.75
-85.78
-95.87
-108.32
-122.62
-137.21
-149.55
-156.51
-155.41
-144.88
-125.59
-100.09
-72.0
-44.76
-20.67
-0.56
15.92
29.53
40.87
50.1
57.14
62.0
64.98
66.67
67.72
68.7
69.85
71.2
72.61
73.89
74.94
75.67
76.07
76.05
75.47
74.12
71.76
68.19
63.29
57.15
50.0
42.3
34.63
27.53
21.31
15.9
10.87
5.49
-0.88
-8.59
-17.47
-26.94
-36.17
-44.44
-51.44
-57.38
-62.92
-69.03
-76.69
-86.66
-99.21
-113.79
-128.91
-142.14
-150.5
-151.2
-142.54
-124.63
-99.44
-70.33
-40.96
-14.23
8.39
26.77
41.66
53.9
63.95
71.82
77.35
80.54
81.76
81.73
81.26
80.94
81.08
81.61
82.26
82.71
82.72
82.23
81.29
80.04
78.51
76.58
73.91
70.11
64.88
58.26
50.68
42.77
35.2
28.35
22.18
16.29
10.14
3.33
-4.27
-12.44
-20.76
-28.75
-36.03
-42.45
-48.15
-53.56
-59.28
-66.02
-74.38
-84.68
-96.67
-109.4
-121.13
-129.48
-131.96
-126.64
-112.83
-91.55
-65.25
-37.28
-10.81
11.95
30.11
43.89
53.99
61.08
65.51
67.44
67.17
65.4
63.18
61.59
61.33
62.43
64.37
66.34
67.72
68.3
68.3
68.06
67.75
67.16
65.74
62.88
58.25
51.98
44.7
37.2
30.19
23.93
18.21
12.5
6.21
-0.96
-8.9
-17.12
-24.97
-31.98
-38.02
-43.44
-49.03
-55.77
-64.57
-75.89
-89.36
-103.64
-116.42
-124.9
-126.54
-119.79
-104.71
-82.98
-57.42
-31.14
-6.77
14.11
30.98
44.07
53.87
60.76
65.0
66.79
66.5
64.76
62.44
60.38
59.17
58.96
59.52
60.38
61.1
61.36
61.1
60.39
59.28
57.69
55.3
51.72
46.66
40.2
32.82
25.37
18.68
13.18
8.63
4.28
-0.82
-7.32
-15.29
-24.15
-33.03
-41.11
-47.95
-53.66
-58.77
-64.17
-70.82
-79.57
-90.75
-103.89
-117.48
-129.0
-135.58
-134.8
-125.51
-108.28
-85.23
-59.35
-33.6
-10.19
9.78
26.14
39.3
49.74
57.83
63.69
67.36
69.01
69.08
68.27
67.35
66.92
67.22
68.06
69.01
69.59
69.54
68.87
67.77
66.42
64.82
62.79
59.98
56.09
50.97
44.72
37.68
30.36
23.25
16.69
10.76
5.3
-0.08
-5.77
-12.1
-19.14
-26.79
-34.73
-42.55
-49.96
-56.87
-63.54
-70.5
-78.42
-87.91
-99.19
-111.88
-124.8
-136.03
-143.18
-143.9
-136.67
-121.34
-99.36
-73.45
-46.76
-21.96
-0.57
17.12
31.61
43.54
53.19
60.47
65.16
67.38
67.71
67.06
66.35
66.17
66.62
67.5
68.49
69.36
70.03
70.5
70.68
70.42
69.46
67.57
64.65
60.69
55.76
50.0
43.59
36.78
29.91
23.37
17.49
12.43
8.05
3.99
-0.26
-5.1
-10.68
-16.86
-23.25
-29.45
-35.21
-40.54
-45.76
-51.37
-58.03
-66.31
-76.49
-88.29
-100.6
-111.51
-118.59
-119.49
-112.75
-98.39
-77.99
-54.21
-29.99
-7.74
11.2
26.51
38.57
47.91
54.91
59.75
62.5
63.38
62.85
61.61
60.44
59.95
60.45
61.86
63.82
65.86
67.56
68.7
69.22
69.14
68.4
66.78
63.98
59.75
54.06
47.25
39.98
32.96
26.72
21.41
16.7
